Teste de posicionamento 4(EMG tendao-inervacao (Vermelho A, Verde C) + Ref no cotovelo) - 16/04/2024 - teste2 - 5 contrações
long frequencia = 1000;                 //frequência de aquisição do sinal, neste caso, 1000 sinais por segundo
float fator1 = 0.02, fator2 = 0.01;
float incerteza = 0.13;
float pico_basal = 130; // Mínimo para ser considerado um pico de contração
int filtro_horizontal=200000; //intervalo de 200ms valores não pode ter mais de 1 contração

Biceps_D,mediaMovel_1,mediaMovel_2,Contracao
26,0.52,0.26,0
25,1.01,0.51,0
26,1.51,0.76,0
25,1.98,1.00,0
25,2.44,1.24,0
26,2.91,1.49,0
28,3.41,1.76,0
25,3.84,1.99,0
27,4.31,2.24,0
27,4.76,2.49,0
29,5.25,2.75,0
28,5.70,3.01,0
26,6.11,3.23,0
27,6.53,3.47,0
25,6.89,3.69,0
29,7.34,3.94,0
26,7.71,4.16,0
28,8.12,4.40,0
25,8.45,4.61,0
29,8.86,4.85,0
25,9.19,5.05,0
28,9.56,5.28,0
26,9.89,5.49,0
25,10.19,5.68,0
26,10.51,5.89,0
23,10.76,6.06,0
26,11.06,6.26,0
25,11.34,6.44,0
26,11.64,6.64,0
27,11.94,6.84,0
26,12.23,7.04,0
26,12.50,7.22,0
26,12.77,7.41,0
26,13.04,7.60,0
25,13.27,7.77,0
25,13.51,7.94,0
27,13.78,8.14,0
27,14.04,8.32,0
26,14.28,8.50,0
26,14.52,8.68,0
26,14.75,8.85,0
26,14.97,9.02,0
26,15.19,9.19,0
26,15.41,9.36,0
27,15.64,9.53,0
25,15.83,9.69,0
26,16.03,9.85,0
26,16.23,10.01,0
27,16.45,10.18,0
26,16.64,10.34,0
26,16.82,10.50,0
26,17.01,10.65,0
26,17.19,10.81,0
28,17.40,10.98,0
26,17.58,11.13,0
26,17.74,11.28,0
26,17.91,11.43,0
26,18.07,11.57,0
26,18.23,11.72,0
26,18.38,11.86,0
26,18.54,12.00,0
26,18.69,12.14,0
26,18.83,12.28,0
26,18.98,12.42,0
26,19.12,12.55,0
26,19.25,12.69,0
26,19.39,12.82,0
28,19.56,12.97,0
26,19.69,13.10,0
25,19.80,13.22,0
26,19.92,13.35,0
26,20.04,13.47,0
26,20.16,13.60,0
25,20.26,13.71,0
26,20.37,13.84,0
25,20.47,13.95,0
26,20.58,14.07,0
27,20.70,14.20,0
26,20.81,14.32,0
24,20.87,14.41,0
25,20.96,14.52,0
26,21.06,14.63,0
26,21.16,14.75,0
25,21.23,14.85,0
25,21.31,14.95,0
25,21.38,15.05,0
25,21.45,15.15,0
24,21.51,15.24,0
26,21.60,15.35,0
25,21.66,15.44,0
25,21.73,15.54,0
25,21.80,15.63,0
26,21.88,15.74,0
25,21.94,15.83,0
28,22.06,15.95,0
25,22.12,16.04,0
26,22.20,16.14,0
26,22.28,16.24,0
25,22.33,16.33,0
26,22.40,16.42,0
24,22.44,16.50,0
25,22.49,16.59,0
26,22.56,16.68,0
25,22.61,16.76,0
26,22.67,16.86,0
24,22.70,16.93,0
25,22.75,17.01,0
25,22.79,17.09,0
25,22.84,17.17,0
26,22.90,17.25,0
25,22.94,17.33,0
25,22.98,17.41,0
25,23.02,17.48,0
26,23.08,17.57,0
25,23.12,17.64,0
26,23.18,17.73,0
24,23.19,17.79,0
24,23.21,17.85,0
25,23.25,17.92,0
26,23.30,18.00,0
26,23.36,18.08,0
24,23.37,18.14,0
25,23.40,18.21,0
25,23.43,18.28,0
24,23.44,18.34,0
24,23.46,18.39,0
25,23.49,18.46,0
25,23.52,18.53,0
26,23.57,18.60,0
24,23.57,18.65,0
26,23.62,18.73,0
25,23.65,18.79,0
26,23.70,18.86,0
24,23.70,18.91,0
26,23.75,18.98,0
26,23.79,19.06,0
26,23.84,19.12,0
26,23.88,19.19,0
25,23.90,19.25,0
26,23.95,19.32,0
24,23.95,19.37,0
26,23.99,19.43,0
25,24.01,19.49,0
24,24.01,19.53,0
26,24.05,19.60,0
25,24.07,19.65,0
26,24.11,19.71,0
26,24.14,19.78,0
26,24.18,19.84,0
26,24.22,19.90,0
25,24.23,19.95,0
26,24.27,20.01,0
26,24.30,20.07,0
26,24.34,20.13,0
26,24.37,20.19,0
26,24.40,20.25,0
26,24.43,20.31,0
26,24.47,20.36,0
26,24.50,20.42,0
26,24.53,20.48,0
26,24.56,20.53,0
25,24.57,20.58,0
27,24.61,20.64,0
26,24.64,20.69,0
26,24.67,20.75,0
26,24.70,20.80,0
27,24.74,20.86,0
26,24.77,20.91,0
28,24.83,20.98,0
25,24.83,21.02,0
25,24.84,21.06,0
26,24.86,21.11,0
25,24.86,21.15,0
25,24.87,21.19,0
25,24.87,21.23,0
25,24.87,21.27,0
30,24.97,21.35,0
25,24.98,21.39,0
25,24.98,21.43,0
25,24.98,21.46,0
25,24.98,21.50,0
26,25.00,21.54,0
26,25.02,21.59,0
28,25.08,21.65,0
24,25.06,21.67,0
26,25.07,21.72,0
25,25.07,21.75,0
28,25.13,21.81,0
26,25.15,21.85,0
26,25.17,21.90,0
25,25.16,21.93,0
26,25.18,21.97,0
26,25.20,22.01,0
26,25.21,22.05,0
25,25.21,22.08,0
26,25.22,22.12,0
25,25.22,22.15,0
26,25.23,22.18,0
26,25.25,22.22,0
26,25.26,22.26,0
26,25.28,22.30,0
24,25.25,22.31,0
25,25.25,22.34,0
26,25.26,22.38,0
26,25.28,22.41,0
26,25.29,22.45,0
25,25.29,22.48,0
25,25.28,22.50,0
26,25.30,22.54,0
24,25.27,22.55,0
26,25.28,22.58,0
25,25.28,22.61,0
24,25.25,22.62,0
24,25.23,22.64,0
25,25.22,22.66,0
26,25.24,22.69,0
24,25.21,22.71,0
24,25.19,22.72,0
25,25.19,22.74,0
25,25.18,22.77,0
24,25.16,22.78,0
26,25.18,22.81,0
26,25.19,22.84,0
26,25.21,22.87,0
25,25.20,22.89,0
26,25.22,22.93,0
26,25.24,22.96,0
28,25.29,23.01,0
26,25.31,23.04,0
25,25.30,23.06,0
26,25.31,23.09,0
26,25.33,23.11,0
26,25.34,23.14,0
25,25.33,23.16,0
26,25.35,23.19,0
26,25.36,23.22,0
26,25.37,23.25,0
26,25.39,23.27,0
26,25.40,23.30,0
26,25.41,23.33,0
26,25.42,23.36,0
25,25.41,23.37,0
26,25.42,23.40,0
26,25.44,23.42,0
26,25.45,23.45,0
25,25.44,23.47,0
26,25.45,23.49,0
26,25.46,23.52,0
25,25.45,23.53,0
26,25.46,23.56,0
26,25.47,23.58,0
26,25.48,23.60,0
26,25.49,23.63,0
26,25.50,23.65,0
26,25.51,23.67,0
26,25.52,23.70,0
26,25.53,23.72,0
26,25.54,23.74,0
25,25.53,23.76,0
25,25.52,23.77,0
25,25.51,23.78,0
26,25.52,23.80,0
25,25.51,23.82,0
25,25.50,23.83,0
25,25.49,23.84,0
24,25.46,23.84,0
25,25.45,23.85,0
26,25.46,23.87,0
25,25.45,23.88,0
26,25.46,23.91,0
25,25.45,23.92,0
25,25.45,23.93,0
26,25.46,23.95,0
24,25.43,23.95,0
25,25.42,23.96,0
25,25.41,23.97,0
24,25.38,23.97,0
25,25.37,23.98,0
25,25.37,23.99,0
25,25.36,24.00,0
24,25.33,24.00,0
24,25.31,24.00,0
25,25.30,24.01,0
26,25.31,24.03,0
26,25.33,24.05,0
25,25.32,24.06,0
25,25.31,24.07,0
25,25.31,24.08,0
25,25.30,24.09,0
25,25.30,24.10,0
25,25.29,24.11,0
28,25.34,24.14,0
26,25.36,24.16,0
26,25.37,24.18,0
26,25.38,24.20,0
24,25.36,24.20,0
25,25.35,24.21,0
26,25.36,24.22,0
26,25.37,24.24,0
23,25.33,24.23,0
26,25.34,24.25,0
25,25.33,24.25,0
25,25.33,24.26,0
26,25.34,24.28,0
26,25.35,24.30,0
25,25.35,24.30,0
25,25.34,24.31,0
22,25.27,24.29,0
26,25.29,24.30,0
26,25.30,24.32,0
24,25.28,24.32,0
26,25.29,24.34,0
26,25.30,24.35,0
25,25.30,24.36,0
26,25.31,24.37,0
28,25.37,24.41,0
26,25.38,24.43,0
26,25.39,24.44,0
25,25.38,24.45,0
25,25.38,24.45,0
26,25.39,24.47,0
25,25.38,24.47,0
26,25.39,24.49,0
27,25.42,24.51,0
26,25.44,24.53,0
25,25.43,24.53,0
26,25.44,24.55,0
25,25.43,24.55,0
25,25.42,24.56,0
24,25.39,24.55,0
24,25.37,24.55,0
26,25.38,24.56,0
25,25.37,24.57,0
25,25.36,24.57,0
25,25.36,24.57,0
27,25.39,24.60,0
25,25.38,24.60,0
25,25.37,24.61,0
24,25.35,24.60,0
28,25.40,24.63,0
24,25.37,24.63,0
24,25.34,24.62,0
25,25.34,24.63,0
25,25.33,24.63,0
24,25.30,24.62,0
24,25.28,24.62,0
25,25.27,24.62,0
25,25.27,24.62,0
24,25.24,24.62,0
24,25.22,24.61,0
25,25.21,24.62,0
24,25.19,24.61,0
24,25.16,24.60,0
24,25.14,24.60,0
25,25.14,24.60,0
25,25.13,24.61,0
24,25.11,24.60,0
24,25.09,24.59,0
24,25.07,24.59,0
25,25.07,24.59,0
24,25.05,24.59,0
24,25.02,24.58,0
24,25.00,24.57,0
24,24.98,24.57,0
25,24.98,24.57,0
24,24.96,24.57,0
24,24.95,24.56,0
24,24.93,24.56,0
24,24.91,24.55,0
24,24.89,24.54,0
24,24.87,24.54,0
24,24.85,24.53,0
24,24.84,24.53,0
24,24.82,24.52,0
24,24.80,24.52,0
24,24.79,24.51,0
24,24.77,24.51,0
24,24.76,24.50,0
24,24.74,24.50,0
24,24.73,24.49,0
24,24.71,24.49,0
24,24.70,24.48,0
24,24.68,24.48,0
24,24.67,24.47,0
24,24.66,24.47,0
24,24.64,24.46,0
24,24.63,24.46,0
24,24.62,24.45,0
24,24.61,24.45,0
24,24.59,24.45,0
24,24.58,24.44,0
24,24.57,24.44,0
24,24.56,24.43,0
24,24.55,24.43,0
24,24.54,24.42,0
24,24.53,24.42,0
24,24.52,24.42,0
24,24.51,24.41,0
24,24.50,24.41,0
24,24.49,24.40,0
24,24.48,24.40,0
24,24.47,24.39,0
24,24.46,24.39,0
26,24.49,24.41,0
24,24.48,24.40,0
24,24.47,24.40,0
27,24.52,24.43,0
26,24.55,24.44,0
24,24.54,24.44,0
23,24.51,24.42,0
24,24.50,24.42,0
24,24.49,24.41,0
24,24.48,24.41,0
24,24.47,24.41,0
23,24.44,24.39,0
26,24.47,24.41,0
24,24.46,24.40,0
24,24.45,24.40,0
24,24.44,24.40,0
24,24.43,24.39,0
24,24.42,24.39,0
24,24.42,24.38,0
21,24.35,24.35,0
24,24.34,24.35,0
24,24.33,24.34,0
24,24.33,24.34,0
24,24.32,24.34,0
24,24.31,24.33,0
24,24.31,24.33,0
24,24.30,24.33,0
24,24.30,24.32,0
24,24.29,24.32,0
24,24.28,24.32,0
24,24.28,24.31,0
24,24.27,24.31,0
24,24.27,24.31,0
24,24.26,24.30,0
24,24.26,24.30,0
24,24.25,24.30,0
24,24.25,24.29,0
24,24.24,24.29,0
24,24.24,24.29,0
24,24.23,24.29,0
24,24.23,24.28,0
24,24.22,24.28,0
24,24.22,24.28,0
24,24.21,24.27,0
24,24.21,24.27,0
24,24.21,24.27,0
24,24.20,24.27,0
24,24.20,24.26,0
27,24.25,24.29,0
24,24.25,24.29,0
24,24.24,24.29,0
24,24.24,24.28,0
24,24.23,24.28,0
24,24.23,24.28,0
24,24.22,24.27,0
23,24.20,24.26,0
22,24.16,24.24,0
23,24.13,24.23,0
23,24.11,24.21,0
23,24.09,24.20,0
23,24.07,24.19,0
23,24.04,24.18,0
23,24.02,24.17,0
24,24.02,24.16,0
22,23.98,24.14,0
24,23.98,24.14,0
22,23.94,24.12,0
23,23.92,24.11,0
26,23.97,24.13,0
24,23.97,24.13,0
24,23.97,24.13,0
23,23.95,24.11,0
23,23.93,24.10,0
22,23.89,24.08,0
24,23.89,24.08,0
23,23.88,24.07,0
23,23.86,24.06,0
24,23.86,24.06,0
23,23.84,24.05,0
25,23.87,24.06,0
23,23.85,24.05,0
24,23.85,24.05,0
23,23.84,24.04,0
22,23.80,24.02,0
23,23.78,24.01,0
23,23.77,24.00,0
23,23.75,23.99,0
24,23.76,23.99,0
24,23.76,23.99,0
24,23.77,23.99,0
24,23.77,23.99,0
23,23.76,23.98,0
24,23.76,23.98,0
24,23.76,23.98,0
23,23.75,23.97,0
23,23.73,23.96,0
23,23.72,23.95,0
22,23.69,23.93,0
23,23.67,23.92,0
24,23.68,23.92,0
24,23.68,23.92,0
24,23.69,23.92,0
23,23.68,23.91,0
24,23.68,23.91,0
24,23.69,23.91,0
24,23.70,23.92,0
23,23.68,23.91,0
26,23.73,23.93,0
24,23.73,23.93,0
22,23.70,23.91,0
23,23.69,23.90,0
25,23.71,23.91,0
23,23.70,23.90,0
23,23.68,23.89,0
22,23.65,23.87,0
24,23.66,23.87,0
23,23.64,23.87,0
24,23.65,23.87,0
26,23.70,23.89,0
24,23.70,23.89,0
24,23.71,23.89,0
24,23.72,23.89,0
26,23.76,23.91,0
25,23.79,23.92,0
24,23.79,23.92,0
24,23.79,23.93,0
23,23.78,23.92,0
24,23.78,23.92,0
24,23.79,23.92,0
23,23.77,23.91,0
24,23.78,23.91,0
24,23.78,23.91,0
24,23.79,23.91,0
24,23.79,23.91,0
22,23.75,23.89,0
26,23.80,23.91,0
24,23.80,23.91,0
24,23.81,23.92,0
24,23.81,23.92,0
23,23.79,23.91,0
24,23.80,23.91,0
23,23.78,23.90,0
24,23.79,23.90,0
24,23.79,23.90,0
23,23.78,23.89,0
22,23.74,23.87,0
24,23.74,23.87,0
24,23.75,23.88,0
24,23.75,23.88,0
22,23.72,23.86,0
24,23.73,23.86,0
23,23.71,23.85,0
23,23.70,23.84,0
22,23.66,23.82,0
24,23.67,23.83,0
23,23.66,23.82,0
24,23.66,23.82,0
24,23.67,23.82,0
24,23.68,23.82,0
23,23.66,23.81,0
24,23.67,23.82,0
24,23.68,23.82,0
24,23.68,23.82,0
23,23.67,23.81,0
24,23.68,23.81,0
24,23.68,23.82,0
24,23.69,23.82,0
24,23.69,23.82,0
24,23.70,23.82,0
24,23.71,23.82,0
24,23.71,23.82,0
27,23.78,23.86,0
24,23.78,23.86,0
24,23.79,23.86,0
25,23.81,23.87,0
25,23.84,23.88,0
25,23.86,23.89,0
25,23.88,23.90,0
24,23.88,23.91,0
25,23.91,23.92,0
25,23.93,23.93,0
24,23.93,23.93,0
25,23.95,23.94,0
26,23.99,23.96,0
24,23.99,23.96,0
24,23.99,23.96,0
24,23.99,23.96,0
25,24.01,23.97,0
25,24.03,23.98,0
24,24.03,23.98,0
24,24.03,23.98,0
25,24.05,23.99,0
24,24.05,23.99,0
24,24.05,23.99,0
24,24.05,23.99,0
24,24.05,23.99,0
24,24.05,23.99,0
24,24.04,23.99,0
24,24.04,23.99,0
24,24.04,23.99,0
24,24.04,23.99,0
24,24.04,23.99,0
26,24.08,24.01,0
24,24.08,24.01,0
24,24.08,24.01,0
24,24.08,24.01,0
26,24.11,24.03,0
25,24.13,24.04,0
24,24.13,24.04,0
24,24.13,24.04,0
24,24.12,24.04,0
24,24.12,24.04,0
24,24.12,24.04,0
24,24.12,24.04,0
24,24.11,24.04,0
24,24.11,24.04,0
25,24.13,24.05,0
24,24.13,24.05,0
24,24.12,24.05,0
24,24.12,24.05,0
24,24.12,24.05,0
24,24.12,24.05,0
24,24.12,24.05,0
25,24.13,24.05,0
24,24.13,24.05,0
24,24.13,24.05,0
24,24.12,24.05,0
24,24.12,24.05,0
24,24.12,24.05,0
24,24.12,24.05,0
24,24.12,24.05,0
24,24.11,24.05,0
24,24.11,24.05,0
28,24.19,24.09,0
24,24.18,24.09,0
24,24.18,24.09,0
25,24.20,24.10,0
24,24.19,24.10,0
24,24.19,24.10,0
24,24.19,24.09,0
25,24.20,24.10,0
26,24.24,24.12,0
24,24.23,24.12,0
24,24.23,24.12,0
24,24.22,24.12,0
24,24.22,24.12,0
24,24.22,24.12,0
25,24.23,24.12,0
22,24.19,24.10,0
21,24.12,24.07,0
24,24.12,24.07,0
25,24.14,24.08,0
25,24.15,24.09,0
24,24.15,24.09,0
24,24.15,24.09,0
24,24.15,24.09,0
24,24.14,24.09,0
24,24.14,24.09,0
24,24.14,24.09,0
24,24.13,24.08,0
24,24.13,24.08,0
24,24.13,24.08,0
24,24.13,24.08,0
24,24.12,24.08,0
24,24.12,24.08,0
23,24.10,24.07,0
24,24.10,24.07,0
24,24.10,24.07,0
25,24.11,24.08,0
23,24.09,24.07,0
22,24.05,24.05,0
24,24.05,24.05,0
24,24.05,24.04,0
24,24.05,24.04,0
24,24.05,24.04,0
25,24.06,24.05,0
24,24.06,24.05,0
24,24.06,24.05,0
26,24.10,24.07,0
25,24.12,24.08,0
25,24.14,24.09,0
24,24.13,24.09,0
26,24.17,24.11,0
25,24.19,24.12,0
25,24.20,24.13,0
24,24.20,24.13,0
24,24.20,24.12,0
26,24.23,24.14,0
24,24.23,24.14,0
24,24.22,24.14,0
24,24.22,24.14,0
25,24.23,24.15,0
24,24.23,24.15,0
24,24.22,24.14,0
24,24.22,24.14,0
26,24.26,24.16,0
25,24.27,24.17,0
26,24.31,24.19,0
26,24.34,24.21,0
26,24.37,24.22,0
26,24.40,24.24,0
25,24.42,24.25,0
26,24.45,24.27,0
26,24.48,24.28,0
26,24.51,24.30,0
26,24.54,24.32,0
26,24.57,24.34,0
26,24.60,24.35,0
26,24.63,24.37,0
26,24.65,24.38,0
26,24.68,24.40,0
26,24.71,24.42,0
28,24.77,24.45,0
26,24.80,24.47,0
26,24.82,24.48,0
26,24.84,24.50,0
25,24.85,24.50,0
26,24.87,24.52,0
25,24.87,24.52,0
25,24.88,24.53,0
26,24.90,24.54,0
26,24.92,24.56,0
26,24.94,24.57,0
27,24.98,24.60,0
26,25.00,24.61,0
26,25.02,24.62,0
25,25.02,24.63,0
26,25.04,24.64,0
27,25.08,24.67,0
26,25.10,24.68,0
26,25.12,24.69,0
26,25.14,24.70,0
28,25.19,24.74,0
26,25.21,24.75,0
26,25.22,24.76,0
25,25.22,24.77,0
28,25.28,24.80,0
26,25.29,24.81,0
25,25.28,24.81,0
26,25.30,24.82,0
27,25.33,24.85,0
26,25.35,24.86,0
26,25.36,24.87,0
28,25.41,24.90,0
27,25.44,24.92,0
26,25.45,24.93,0
26,25.47,24.94,0
28,25.52,24.97,0
26,25.53,24.98,0
26,25.54,24.99,0
26,25.55,25.00,0
26,25.55,25.01,0
26,25.56,25.02,0
26,25.57,25.03,0
26,25.58,25.04,0
26,25.59,25.05,0
28,25.64,25.08,0
26,25.64,25.09,0
26,25.65,25.10,0
26,25.66,25.11,0
26,25.67,25.12,0
26,25.67,25.13,0
26,25.68,25.14,0
26,25.68,25.14,0
23,25.63,25.12,0
26,25.64,25.13,0
26,25.65,25.14,0
26,25.65,25.15,0
26,25.66,25.16,0
26,25.67,25.17,0
26,25.67,25.17,0
25,25.66,25.17,0
26,25.67,25.18,0
26,25.67,25.19,0
26,25.68,25.20,0
25,25.67,25.19,0
26,25.67,25.20,0
26,25.68,25.21,0
26,25.69,25.22,0
26,25.69,25.23,0
26,25.70,25.23,0
28,25.74,25.26,0
26,25.75,25.27,0
27,25.77,25.29,0
26,25.78,25.29,0
26,25.78,25.30,0
26,25.79,25.31,0
26,25.79,25.31,0
25,25.78,25.31,0
25,25.76,25.31,0
26,25.77,25.32,0
28,25.81,25.34,0
26,25.81,25.35,0
26,25.82,25.36,0
26,25.82,25.36,0
28,25.86,25.39,0
25,25.85,25.38,0
26,25.85,25.39,0
26,25.85,25.40,0
26,25.86,25.40,0
25,25.84,25.40,0
26,25.84,25.40,0
26,25.85,25.41,0
26,25.85,25.42,0
26,25.85,25.42,0
25,25.83,25.42,0
26,25.84,25.42,0
25,25.82,25.42,0
26,25.82,25.43,0
26,25.83,25.43,0
26,25.83,25.44,0
26,25.84,25.44,0
26,25.84,25.45,0
25,25.82,25.44,0
26,25.83,25.45,0
26,25.83,25.45,0
25,25.81,25.45,0
25,25.80,25.45,0
26,25.80,25.45,0
26,25.80,25.46,0
25,25.79,25.45,0
25,25.77,25.45,0
26,25.78,25.45,0
26,25.78,25.46,0
28,25.83,25.48,0
24,25.79,25.47,0
26,25.79,25.47,0
25,25.78,25.47,0
26,25.78,25.47,0
26,25.79,25.48,0
26,25.79,25.49,0
27,25.81,25.50,0
26,25.82,25.51,0
26,25.82,25.51,0
26,25.83,25.52,0
25,25.81,25.51,0
26,25.81,25.52,0
26,25.82,25.52,0
26,25.82,25.52,0
26,25.82,25.53,0
26,25.83,25.53,0
26,25.83,25.54,0
26,25.83,25.54,0
26,25.84,25.55,0
26,25.84,25.55,0
26,25.84,25.56,0
26,25.85,25.56,0
26,25.85,25.57,0
26,25.85,25.57,0
26,25.86,25.57,0
26,25.86,25.58,0
26,25.86,25.58,0
26,25.86,25.59,0
24,25.83,25.57,0
25,25.81,25.57,0
28,25.85,25.59,0
24,25.82,25.57,0
24,25.78,25.56,0
24,25.75,25.54,0
25,25.73,25.54,0
24,25.70,25.52,0
26,25.70,25.53,0
25,25.69,25.52,0
25,25.67,25.52,0
26,25.68,25.52,0
25,25.67,25.52,0
24,25.63,25.50,0
25,25.62,25.50,0
26,25.63,25.50,0
24,25.60,25.49,0
25,25.58,25.48,0
28,25.63,25.51,0
24,25.60,25.49,0
25,25.59,25.49,0
25,25.58,25.48,0
25,25.56,25.48,0
24,25.53,25.46,0
26,25.54,25.47,0
26,25.55,25.47,0
23,25.50,25.45,0
25,25.49,25.44,0
24,25.46,25.43,0
26,25.47,25.43,0
26,25.48,25.44,0
27,25.51,25.46,0
24,25.48,25.44,0
25,25.47,25.44,0
23,25.42,25.41,0
25,25.41,25.41,0
24,25.39,25.39,0
25,25.38,25.39,0
25,25.37,25.39,0
24,25.34,25.37,0
24,25.32,25.36,0
24,25.29,25.35,0
24,25.26,25.33,0
24,25.24,25.32,0
24,25.21,25.31,0
24,25.19,25.29,0
24,25.17,25.28,0
24,25.14,25.27,0
24,25.12,25.25,0
25,25.12,25.25,0
25,25.12,25.25,0
24,25.09,25.24,0
24,25.07,25.22,0
24,25.05,25.21,0
25,25.05,25.21,0
26,25.07,25.22,0
24,25.05,25.21,0
24,25.03,25.19,0
25,25.03,25.19,0
24,25.00,25.18,0
24,24.98,25.17,0
24,24.96,25.16,0
25,24.97,25.15,0
24,24.95,25.14,0
24,24.93,25.13,0
24,24.91,25.12,0
25,24.91,25.12,0
24,24.89,25.11,0
24,24.87,25.10,0
24,24.86,25.09,0
25,24.86,25.08,0
25,24.86,25.08,0
24,24.85,25.07,0
24,24.83,25.06,0
24,24.81,25.05,0
24,24.80,25.04,0
24,24.78,25.03,0
24,24.76,25.02,0
24,24.75,25.01,0
24,24.73,25.00,0
24,24.72,24.99,0
24,24.70,24.98,0
24,24.69,24.97,0
24,24.68,24.96,0
24,24.66,24.95,0
24,24.65,24.94,0
24,24.64,24.93,0
26,24.66,24.94,0
24,24.65,24.93,0
24,24.64,24.92,0
24,24.63,24.91,0
24,24.61,24.91,0
24,24.60,24.90,0
24,24.59,24.89,0
24,24.58,24.88,0
24,24.57,24.87,0
24,24.55,24.86,0
24,24.54,24.85,0
25,24.55,24.85,0
24,24.54,24.85,0
24,24.53,24.84,0
24,24.52,24.83,0
24,24.51,24.82,0
24,24.50,24.81,0
24,24.49,24.80,0
24,24.48,24.80,0
25,24.49,24.80,0
24,24.48,24.79,0
24,24.47,24.78,0
24,24.46,24.77,0
26,24.49,24.79,0
24,24.48,24.78,0
24,24.47,24.77,0
24,24.46,24.76,0
25,24.47,24.77,0
24,24.46,24.76,0
24,24.45,24.75,0
22,24.41,24.72,0
24,24.40,24.72,0
24,24.39,24.71,0
24,24.38,24.70,0
24,24.37,24.69,0
24,24.37,24.69,0
25,24.38,24.69,0
23,24.35,24.67,0
23,24.32,24.66,0
23,24.30,24.64,0
24,24.29,24.63,0
24,24.29,24.63,0
22,24.24,24.60,0
24,24.24,24.60,0
24,24.23,24.59,0
24,24.23,24.58,0
26,24.26,24.60,0
24,24.26,24.59,0
24,24.25,24.59,0
24,24.25,24.58,0
22,24.20,24.55,0
24,24.20,24.55,0
24,24.19,24.54,0
24,24.19,24.54,0
24,24.19,24.53,0
24,24.18,24.53,0
25,24.20,24.53,0
24,24.19,24.53,0
22,24.15,24.50,0
24,24.15,24.50,0
24,24.14,24.49,0
24,24.14,24.49,0
20,24.06,24.44,0
24,24.06,24.44,0
24,24.06,24.43,0
24,24.06,24.43,0
24,24.05,24.42,0
24,24.05,24.42,0
24,24.05,24.42,0
24,24.05,24.41,0
24,24.05,24.41,0
24,24.05,24.40,0
24,24.05,24.40,0
24,24.05,24.40,0
24,24.05,24.39,0
24,24.05,24.39,0
24,24.04,24.38,0
24,24.04,24.38,0
24,24.04,24.38,0
24,24.04,24.37,0
24,24.04,24.37,0
24,24.04,24.36,0
24,24.04,24.36,0
24,24.04,24.36,0
24,24.04,24.35,0
24,24.04,24.35,0
24,24.04,24.35,0
23,24.02,24.33,0
23,24.00,24.32,0
24,24.00,24.32,0
24,24.00,24.31,0
23,23.98,24.30,0
25,24.00,24.31,0
25,24.02,24.31,0
24,24.02,24.31,0
26,24.06,24.33,0
24,24.05,24.32,0
24,24.05,24.32,0
23,24.03,24.31,0
23,24.01,24.30,0
24,24.01,24.29,0
24,24.01,24.29,0
24,24.01,24.29,0
23,23.99,24.27,0
25,24.01,24.28,0
24,24.01,24.28,0
24,24.01,24.28,0
25,24.03,24.28,0
24,24.03,24.28,0
24,24.03,24.28,0
24,24.03,24.27,0
23,24.01,24.26,0
24,24.01,24.26,0
24,24.01,24.26,0
23,23.99,24.24,0
24,23.99,24.24,0
23,23.97,24.23,0
24,23.97,24.23,0
22,23.93,24.20,0
25,23.95,24.21,0
23,23.93,24.20,0
24,23.93,24.20,0
23,23.91,24.19,0
24,23.92,24.18,0
24,23.92,24.18,0
23,23.90,24.17,0
23,23.88,24.16,0
24,23.88,24.16,0
23,23.87,24.15,0
23,23.85,24.13,0
22,23.81,24.11,0
24,23.82,24.11,0
23,23.80,24.10,0
23,23.78,24.09,0
22,23.75,24.07,0
23,23.73,24.06,0
23,23.72,24.05,0
23,23.70,24.04,0
24,23.71,24.04,0
24,23.72,24.04,0
22,23.68,24.02,0
22,23.65,24.00,0
22,23.61,23.98,0
24,23.62,23.98,0
24,23.63,23.98,0
24,23.64,23.98,0
22,23.60,23.96,0
24,23.61,23.96,0
23,23.60,23.95,0
24,23.61,23.95,0
23,23.60,23.94,0
24,23.60,23.94,0
24,23.61,23.94,0
24,23.62,23.94,0
25,23.65,23.95,0
24,23.65,23.95,0
24,23.66,23.95,0
24,23.67,23.95,0
24,23.67,23.95,0
24,23.68,23.95,0
24,23.69,23.95,0
28,23.77,23.99,0
25,23.80,24.00,0
25,23.82,24.01,0
24,23.83,24.01,0
24,23.83,24.01,0
25,23.85,24.02,0
24,23.86,24.02,0
24,23.86,24.02,0
24,23.86,24.02,0
25,23.88,24.03,0
25,23.91,24.04,0
25,23.93,24.05,0
24,23.93,24.05,0
25,23.95,24.06,0
26,23.99,24.08,0
25,24.01,24.09,0
23,23.99,24.08,0
25,24.01,24.09,0
28,24.09,24.13,0
25,24.11,24.14,0
25,24.13,24.14,0
25,24.15,24.15,0
27,24.20,24.18,0
25,24.22,24.19,0
24,24.21,24.19,0
26,24.25,24.21,0
27,24.30,24.23,0
26,24.34,24.25,0
26,24.37,24.27,0
25,24.38,24.28,0
26,24.42,24.29,0
26,24.45,24.31,0
26,24.48,24.33,0
26,24.51,24.34,0
26,24.54,24.36,0
26,24.57,24.38,0
26,24.60,24.39,0
26,24.63,24.41,0
25,24.63,24.42,0
26,24.66,24.43,0
26,24.69,24.45,0
26,24.71,24.46,0
27,24.76,24.49,0
26,24.78,24.50,0
26,24.81,24.52,0
26,24.83,24.53,0
27,24.88,24.56,0
27,24.92,24.58,0
26,24.94,24.60,0
27,24.98,24.62,0
29,25.06,24.66,0
27,25.10,24.69,0
27,25.14,24.71,0
26,25.16,24.72,0
28,25.21,24.76,0
28,25.27,24.79,0
26,25.28,24.80,0
28,25.34,24.83,0
29,25.41,24.87,0
29,25.48,24.92,0
28,25.53,24.95,0
28,25.58,24.98,0
29,25.65,25.02,0
30,25.74,25.07,0
30,25.82,25.12,0
30,25.91,25.17,0
30,25.99,25.21,0
30,26.07,25.26,0
30,26.15,25.31,0
30,26.22,25.36,0
31,26.32,25.41,0
30,26.39,25.46,0
30,26.47,25.50,0
30,26.54,25.55,0
29,26.58,25.58,0
30,26.65,25.63,0
30,26.72,25.67,0
30,26.79,25.71,0
30,26.85,25.76,0
30,26.91,25.80,0
30,26.97,25.84,0
29,27.02,25.87,0
30,27.08,25.91,0
30,27.13,25.96,0
30,27.19,26.00,0
29,27.23,26.03,0
30,27.28,26.07,0
30,27.34,26.10,0
30,27.39,26.14,0
29,27.42,26.17,0
30,27.47,26.21,0
30,27.52,26.25,0
30,27.57,26.29,0
29,27.60,26.31,0
29,27.63,26.34,0
30,27.68,26.38,0
30,27.72,26.41,0
29,27.75,26.44,0
30,27.79,26.47,0
31,27.86,26.52,0
29,27.88,26.54,0
30,27.92,26.58,0
31,27.99,26.62,0
30,28.03,26.66,0
30,28.07,26.69,0
30,28.10,26.72,0
30,28.14,26.76,0
30,28.18,26.79,0
30,28.22,26.82,0
30,28.25,26.85,0
30,28.29,26.88,0
30,28.32,26.92,0
30,28.35,26.95,0
30,28.39,26.98,0
33,28.48,27.04,0
32,28.55,27.09,0
30,28.58,27.12,0
30,28.61,27.14,0
31,28.65,27.18,0
31,28.70,27.22,0
30,28.73,27.25,0
30,28.75,27.28,0
31,28.80,27.31,0
34,28.90,27.38,0
30,28.92,27.41,0
30,28.95,27.43,0
31,28.99,27.47,0
31,29.03,27.50,0
30,29.05,27.53,0
30,29.07,27.55,0
32,29.12,27.60,0
29,29.12,27.61,0
32,29.18,27.66,0
30,29.20,27.68,0
31,29.23,27.71,0
31,29.27,27.75,0
30,29.28,27.77,0
32,29.34,27.81,0
31,29.37,27.84,0
29,29.36,27.85,0
32,29.41,27.90,0
32,29.47,27.94,0
31,29.50,27.97,0
31,29.53,28.00,0
30,29.54,28.02,0
32,29.59,28.06,0
31,29.61,28.09,0
32,29.66,28.13,0
32,29.71,28.16,0
32,29.75,28.20,0
32,29.80,28.24,0
32,29.84,28.28,0
32,29.89,28.32,0
32,29.93,28.35,0
31,29.95,28.38,0
32,29.99,28.41,0
32,30.03,28.45,0
32,30.07,28.49,0
31,30.09,28.51,0
32,30.13,28.55,0
32,30.17,28.58,0
32,30.20,28.61,0
33,30.26,28.66,0
32,30.29,28.69,0
32,30.33,28.73,0
32,30.36,28.76,0
32,30.39,28.79,0
35,30.49,28.85,0
32,30.52,28.88,0
32,30.55,28.92,0
34,30.61,28.97,0
34,30.68,29.02,0
32,30.71,29.05,0
31,30.71,29.07,0
32,30.74,29.10,0
33,30.79,29.13,0
32,30.81,29.16,0
32,30.83,29.19,0
32,30.86,29.22,0
33,30.90,29.26,0
31,30.90,29.27,0
32,30.92,29.30,0
33,30.96,29.34,0
34,31.03,29.39,0
31,31.03,29.40,0
32,31.04,29.43,0
32,31.06,29.45,0
33,31.10,29.49,0
33,31.14,29.52,0
33,31.18,29.56,0
34,31.23,29.60,0
33,31.27,29.64,0
34,31.32,29.68,0
34,31.38,29.72,0
35,31.45,29.78,0
34,31.50,29.82,0
34,31.55,29.86,0
34,31.60,29.90,0
34,31.65,29.94,0
34,31.69,29.98,0
34,31.74,30.02,0
34,31.79,30.06,0
33,31.81,30.09,0
35,31.87,30.14,0
34,31.92,30.18,0
34,31.96,30.22,0
34,32.00,30.26,0
34,32.04,30.29,0
34,32.08,30.33,0
34,32.12,30.37,0
31,32.09,30.37,0
34,32.13,30.41,0
34,32.17,30.45,0
34,32.21,30.48,0
35,32.26,30.53,0
34,32.30,30.56,0
34,32.33,30.60,0
34,32.36,30.63,0
34,32.40,30.66,0
34,32.43,30.70,0
34,32.46,30.73,0
34,32.49,30.76,0
36,32.56,30.82,0
34,32.59,30.85,0
34,32.62,30.88,0
35,32.67,30.92,0
36,32.73,30.97,0
36,32.80,31.02,0
34,32.82,31.05,0
34,32.85,31.08,0
36,32.91,31.13,0
34,32.93,31.16,0
34,32.95,31.19,0
36,33.01,31.23,0
35,33.05,31.27,0
34,33.07,31.30,0
36,33.13,31.35,0
36,33.19,31.39,0
36,33.24,31.44,0
36,33.30,31.48,0
36,33.35,31.53,0
37,33.43,31.58,0
36,33.48,31.63,0
36,33.53,31.67,0
36,33.58,31.72,0
36,33.63,31.76,0
38,33.71,31.82,0
37,33.78,31.87,0
36,33.82,31.91,0
36,33.87,31.95,0
36,33.91,32.00,0
38,33.99,32.06,0
36,34.03,32.09,0
36,34.07,32.13,0
35,34.09,32.16,0
37,34.15,32.21,0
36,34.19,32.25,0
37,34.24,32.30,0
38,34.32,32.35,0
37,34.37,32.40,0
37,34.42,32.45,0
37,34.47,32.49,0
36,34.50,32.53,0
37,34.55,32.57,0
36,34.58,32.61,0
36,34.61,32.64,0
37,34.66,32.68,0
36,34.69,32.72,0
36,34.71,32.75,0
36,34.74,32.78,0
37,34.78,32.82,0
38,34.85,32.88,0
37,34.89,32.92,0
37,34.93,32.96,0
37,34.97,33.00,0
37,35.02,33.04,0
38,35.07,33.09,0
38,35.13,33.14,0
37,35.17,33.18,0
38,35.23,33.22,0
38,35.28,33.27,0
38,35.34,33.32,0
37,35.37,33.36,0
38,35.42,33.40,0
37,35.45,33.44,0
38,35.51,33.48,0
38,35.56,33.53,0
38,35.60,33.57,0
38,35.65,33.62,0
38,35.70,33.66,0
38,35.75,33.70,0
38,35.79,33.75,0
38,35.83,33.79,0
38,35.88,33.83,0
38,35.92,33.87,0
38,35.96,33.92,0
38,36.00,33.96,0
38,36.04,34.00,0
39,36.10,34.05,0
38,36.14,34.09,0
38,36.18,34.13,0
38,36.21,34.16,0
38,36.25,34.20,0
38,36.28,34.24,0
38,36.32,34.28,0
38,36.35,34.32,0
38,36.38,34.35,0
40,36.46,34.41,0
38,36.49,34.44,0
38,36.52,34.48,0
39,36.57,34.53,0
38,36.60,34.56,0
38,36.62,34.59,0
37,36.63,34.62,0
39,36.68,34.66,0
40,36.75,34.72,0
40,36.81,34.77,0
40,36.87,34.82,0
41,36.96,34.88,0
40,37.02,34.93,0
40,37.08,34.98,0
40,37.14,35.03,0
40,37.19,35.08,0
40,37.25,35.13,0
40,37.30,35.18,0
40,37.36,35.23,0
41,37.43,35.29,0
41,37.50,35.35,0
42,37.59,35.41,0
42,37.68,35.48,0
42,37.77,35.54,0
42,37.85,35.61,0
42,37.93,35.67,0
42,38.02,35.73,0
42,38.10,35.80,0
42,38.17,35.86,0
43,38.27,35.93,0
42,38.35,35.99,0
44,38.46,36.07,0
42,38.53,36.13,0
42,38.60,36.19,0
43,38.69,36.26,0
44,38.79,36.33,0
44,38.90,36.41,0
44,39.00,36.49,0
46,39.14,36.58,0
49,39.34,36.71,0
47,39.49,36.81,0
47,39.64,36.91,0
48,39.81,37.02,0
49,39.99,37.14,0
50,40.19,37.27,0
49,40.37,37.39,0
49,40.54,37.50,0
50,40.73,37.63,0
50,40.91,37.75,0
48,41.06,37.86,0
48,41.19,37.96,0
49,41.35,38.07,0
48,41.48,38.17,0
48,41.61,38.26,0
48,41.74,38.36,0
49,41.89,38.47,0
48,42.01,38.56,0
50,42.17,38.68,0
48,42.29,38.77,0
51,42.46,38.89,0
50,42.61,39.00,0
49,42.74,39.10,0
48,42.84,39.19,0
49,42.97,39.29,0
52,43.15,39.42,0
49,43.26,39.51,0
50,43.40,39.62,0
49,43.51,39.71,0
50,43.64,39.82,0
50,43.77,39.92,0
50,43.89,40.02,0
50,44.02,40.12,0
52,44.17,40.24,0
54,44.37,40.38,0
52,44.52,40.49,0
54,44.71,40.63,0
53,44.88,40.75,0
54,45.06,40.88,0
54,45.24,41.01,0
56,45.46,41.16,0
56,45.67,41.31,0
55,45.85,41.45,0
56,46.06,41.59,0
56,46.26,41.74,0
56,46.45,41.88,0
56,46.64,42.02,0
57,46.85,42.17,0
57,47.05,42.32,0
58,47.27,42.48,0
58,47.48,42.63,0
59,47.72,42.80,0
59,47.94,42.96,0
59,48.16,43.12,0
60,48.40,43.29,0
57,48.57,43.42,0
59,48.78,43.58,0
60,49.00,43.74,0
60,49.22,43.91,0
60,49.44,44.07,0
60,49.65,44.23,0
60,49.86,44.39,0
62,50.10,44.56,0
62,50.34,44.74,0
62,50.57,44.91,0
61,50.78,45.07,0
64,51.04,45.26,0
64,51.30,45.45,0
65,51.58,45.64,0
65,51.85,45.84,0
66,52.13,46.04,0
65,52.39,46.23,0
68,52.70,46.44,0
66,52.96,46.64,0
67,53.25,46.84,0
67,53.52,47.04,0
66,53.77,47.23,0
67,54.03,47.43,0
68,54.31,47.64,0
68,54.59,47.84,0
68,54.86,48.04,0
68,55.12,48.24,0
68,55.38,48.44,0
68,55.63,48.64,0
69,55.90,48.84,0
71,56.20,49.06,0
70,56.47,49.27,0
70,56.75,49.48,0
71,57.03,49.69,0
70,57.29,49.90,0
72,57.58,50.12,0
70,57.83,50.32,0
73,58.14,50.54,0
73,58.43,50.77,0
72,58.70,50.98,0
70,58.93,51.17,0
72,59.19,51.38,0
72,59.45,51.58,0
71,59.68,51.78,0
70,59.89,51.96,0
73,60.15,52.17,0
72,60.38,52.37,0
70,60.58,52.55,0
71,60.79,52.73,0
71,60.99,52.91,0
72,61.21,53.10,0
72,61.43,53.29,0
71,61.62,53.47,0
73,61.84,53.67,0
72,62.05,53.85,0
72,62.25,54.03,0
72,62.44,54.21,0
72,62.63,54.39,0
72,62.82,54.56,0
72,63.00,54.74,0
72,63.18,54.91,0
72,63.36,55.08,0
71,63.51,55.24,0
72,63.68,55.41,0
72,63.85,55.57,0
72,64.01,55.74,0
72,64.17,55.90,0
72,64.33,56.06,0
72,64.48,56.22,0
72,64.63,56.38,0
72,64.78,56.54,0
72,64.92,56.69,0
72,65.07,56.84,0
72,65.20,56.99,0
76,65.42,57.18,0
76,65.63,57.37,0
73,65.78,57.53,0
73,65.92,57.68,0
72,66.05,57.83,0
72,66.16,57.97,0
73,66.30,58.12,0
75,66.47,58.29,0
76,66.67,58.47,0
76,66.85,58.64,0
76,67.03,58.81,0
76,67.21,58.99,0
76,67.39,59.16,0
76,67.56,59.32,0
76,67.73,59.49,0
76,67.90,59.66,0
79,68.12,59.85,0
76,68.28,60.01,0
76,68.43,60.17,0
78,68.62,60.35,0
77,68.79,60.52,0
77,68.95,60.68,0
77,69.11,60.84,0
76,69.25,61.00,0
78,69.43,61.17,0
76,69.56,61.31,0
76,69.69,61.46,0
77,69.83,61.62,0
76,69.96,61.76,0
76,70.08,61.90,0
76,70.20,62.04,0
77,70.33,62.19,0
77,70.47,62.34,0
76,70.58,62.48,0
76,70.68,62.61,0
78,70.83,62.77,0
75,70.91,62.89,0
77,71.04,63.03,0
76,71.14,63.16,0
77,71.25,63.30,0
76,71.35,63.43,0
76,71.44,63.55,0
76,71.53,63.68,0
76,71.62,63.80,0
76,71.71,63.92,0
75,71.77,64.03,0
76,71.86,64.15,0
76,71.94,64.27,0
76,72.02,64.39,0
76,72.10,64.50,0
76,72.18,64.62,0
76,72.26,64.73,0
76,72.33,64.84,0
76,72.41,64.96,0
76,72.48,65.07,0
77,72.57,65.19,0
77,72.66,65.30,0
77,72.74,65.42,0
78,72.85,65.55,0
77,72.93,65.66,0
76,72.99,65.76,0
76,73.05,65.87,0
78,73.15,65.99,0
77,73.23,66.10,0
77,73.30,66.21,0
76,73.36,66.31,0
77,73.43,66.41,0
78,73.52,66.53,0
78,73.61,66.64,0
78,73.70,66.76,0
78,73.79,66.87,0
78,73.87,66.98,0
78,73.95,67.09,0
79,74.05,67.21,0
78,74.13,67.32,0
77,74.19,67.41,0
78,74.27,67.52,0
78,74.34,67.63,0
78,74.41,67.73,0
79,74.51,67.84,0
78,74.58,67.94,0
78,74.64,68.04,0
77,74.69,68.13,0
78,74.76,68.23,0
78,74.82,68.33,0
78,74.89,68.43,0
77,74.93,68.51,0
77,74.97,68.60,0
76,74.99,68.67,0
78,75.05,68.76,0
76,75.07,68.84,0
76,75.09,68.91,0
76,75.11,68.98,0
76,75.12,69.05,0
77,75.16,69.13,0
77,75.20,69.21,0
76,75.21,69.28,0
77,75.25,69.35,0
77,75.28,69.43,0
77,75.32,69.50,0
76,75.33,69.57,0
76,75.35,69.63,0
77,75.38,69.71,0
76,75.39,69.77,0
77,75.42,69.84,0
77,75.46,69.91,0
77,75.49,69.99,0
79,75.56,70.08,0
77,75.59,70.14,0
77,75.61,70.21,0
78,75.66,70.29,0
77,75.69,70.36,0
78,75.73,70.43,0
76,75.74,70.49,0
76,75.74,70.55,0
79,75.81,70.63,0
76,75.81,70.68,0
77,75.84,70.75,0
76,75.84,70.80,0
78,75.88,70.87,0
77,75.91,70.93,0
76,75.91,70.98,0
76,75.91,71.03,0
79,75.97,71.11,0
77,75.99,71.17,0
76,75.99,71.22,0
76,75.99,71.27,0
77,76.01,71.33,0
78,76.05,71.39,0
76,76.05,71.44,0
76,76.05,71.48,0
77,76.07,71.54,0
76,76.07,71.58,0
76,76.07,71.63,0
76,76.07,71.67,0
76,76.06,71.71,0
76,76.06,71.76,0
76,76.06,71.80,0
76,76.06,71.84,0
77,76.08,71.89,0
77,76.10,71.94,0
76,76.10,71.99,0
76,76.09,72.03,0
78,76.13,72.09,0
76,76.13,72.12,0
76,76.13,72.16,0
76,76.12,72.20,0
77,76.14,72.25,0
75,76.12,72.28,0
77,76.14,72.32,0
78,76.17,72.38,0
77,76.19,72.43,0
76,76.19,72.46,0
77,76.20,72.51,0
78,76.24,72.56,0
78,76.27,72.62,0
78,76.31,72.67,0
78,76.34,72.72,0
78,76.38,72.78,0
77,76.39,72.82,0
78,76.42,72.87,0
78,76.45,72.92,0
77,76.46,72.96,0
78,76.49,73.01,0
78,76.52,73.06,0
78,76.55,73.11,0
78,76.58,73.16,0
78,76.61,73.21,0
77,76.62,73.25,0
78,76.65,73.30,0
78,76.67,73.34,0
77,76.68,73.38,0
77,76.69,73.42,0
76,76.67,73.44,0
77,76.68,73.48,0
77,76.69,73.51,0
77,76.69,73.55,0
76,76.68,73.57,0
76,76.66,73.60,0
77,76.67,73.63,0
76,76.66,73.65,0
76,76.64,73.68,0
76,76.63,73.70,0
76,76.62,73.72,0
76,76.61,73.75,0
76,76.59,73.77,0
76,76.58,73.79,0
76,76.57,73.81,0
76,76.56,73.83,0
76,76.55,73.86,0
76,76.54,73.88,0
76,76.53,73.90,0
76,76.52,73.92,0
77,76.53,73.95,0
76,76.51,73.97,0
76,76.50,73.99,0
76,76.49,74.01,0
76,76.48,74.03,0
76,76.47,74.05,0
76,76.47,74.07,0
76,76.46,74.09,0
75,76.43,74.10,0
76,76.42,74.12,0
76,76.41,74.14,0
75,76.38,74.15,0
74,76.33,74.14,0
75,76.31,74.15,0
76,76.30,74.17,0
75,76.28,74.18,0
74,76.23,74.18,0
74,76.19,74.18,0
75,76.16,74.18,0
76,76.16,74.20,0
74,76.12,74.20,0
74,76.07,74.20,0
75,76.05,74.21,0
74,76.01,74.20,0
74,75.97,74.20,0
76,75.97,74.22,0
75,75.95,74.23,0
75,75.93,74.24,0
76,75.93,74.25,0
74,75.90,74.25,0
75,75.88,74.26,0
74,75.84,74.26,0
74,75.80,74.25,0
74,75.77,74.25,0
75,75.75,74.26,0
74,75.72,74.26,0
76,75.72,74.27,0
74,75.69,74.27,0
78,75.73,74.31,0
74,75.70,74.30,0
74,75.67,74.30,0
73,75.61,74.29,0
74,75.58,74.29,0
75,75.57,74.29,0
73,75.52,74.28,0
74,75.49,74.28,0
74,75.46,74.27,0
74,75.43,74.27,0
73,75.38,74.26,0
74,75.35,74.26,0
73,75.30,74.24,0
72,75.24,74.22,0
74,75.21,74.22,0
73,75.17,74.21,0
71,75.09,74.17,0
72,75.02,74.15,0
72,74.96,74.13,0
73,74.92,74.12,0
74,74.91,74.12,0
72,74.85,74.10,0
72,74.79,74.08,0
73,74.76,74.07,0
74,74.74,74.07,0
73,74.71,74.05,0
74,74.69,74.05,0
72,74.64,74.03,0
71,74.56,74.00,0
73,74.53,73.99,0
72,74.48,73.97,0
73,74.45,73.96,0
72,74.40,73.94,0
73,74.38,73.93,0
72,74.33,73.92,0
72,74.28,73.90,0
74,74.28,73.90,0
74,74.27,73.90,0
73,74.25,73.89,0
73,74.22,73.88,0
74,74.22,73.88,0
73,74.19,73.87,0
73,74.17,73.86,0
74,74.16,73.87,0
75,74.18,73.88,0
75,74.20,73.89,0
74,74.19,73.89,0
73,74.17,73.88,0
73,74.15,73.87,0
73,74.12,73.86,0
73,74.10,73.85,0
73,74.08,73.85,0
73,74.06,73.84,0
72,74.02,73.82,0
72,73.98,73.80,0
72,73.94,73.78,0
73,73.92,73.77,0
72,73.88,73.76,0
72,73.84,73.74,0
72,73.80,73.72,0
72,73.77,73.70,0
72,73.73,73.69,0
72,73.70,73.67,0
72,73.66,73.65,0
72,73.63,73.64,0
72,73.60,73.62,0
72,73.57,73.60,0
71,73.52,73.58,0
72,73.49,73.56,0
71,73.44,73.54,0
70,73.37,73.50,0
71,73.32,73.48,0
72,73.29,73.46,0
71,73.25,73.44,0
70,73.18,73.40,0
70,73.12,73.37,0
72,73.10,73.36,0
70,73.03,73.32,0
72,73.01,73.31,0
70,72.95,73.28,0
70,72.89,73.24,0
70,72.84,73.21,0
70,72.78,73.18,0
70,72.72,73.15,0
71,72.69,73.13,0
70,72.64,73.09,0
70,72.58,73.06,0
70,72.53,73.03,0
70,72.48,73.00,0
70,72.43,72.97,0
70,72.38,72.94,0
70,72.33,72.91,0
70,72.29,72.88,0
70,72.24,72.85,0
70,72.20,72.83,0
70,72.15,72.80,0
70,72.11,72.77,0
70,72.07,72.74,0
70,72.03,72.71,0
70,71.99,72.69,0
70,71.95,72.66,0
70,71.91,72.63,0
70,71.87,72.61,0
70,71.83,72.58,0
70,71.80,72.56,0
70,71.76,72.53,0
69,71.70,72.50,0
70,71.67,72.47,0
70,71.64,72.45,0
69,71.58,72.41,0
69,71.53,72.38,0
69,71.48,72.34,0
68,71.41,72.30,0
69,71.36,72.27,0
68,71.30,72.22,0
70,71.27,72.20,0
68,71.21,72.16,0
68,71.14,72.12,0
68,71.08,72.08,0
68,71.02,72.04,0
69,70.98,72.01,0
68,70.92,71.97,0
68,70.86,71.93,0
68,70.80,71.89,0
68,70.75,71.85,0
68,70.69,71.81,0
66,70.60,71.75,0
66,70.50,71.69,0
68,70.45,71.66,0
69,70.43,71.63,0
66,70.34,71.57,0
64,70.21,71.50,0
67,70.15,71.45,0
67,70.08,71.41,0
66,70.00,71.35,0
66,69.92,71.30,0
65,69.82,71.24,0
66,69.75,71.19,0
66,69.67,71.13,0
66,69.60,71.08,0
66,69.53,71.03,0
66,69.46,70.98,0
66,69.39,70.93,0
66,69.32,70.88,0
66,69.25,70.83,0
66,69.19,70.79,0
66,69.12,70.74,0
66,69.06,70.69,0
66,69.00,70.64,0
66,68.94,70.60,0
66,68.88,70.55,0
66,68.82,70.51,0
66,68.77,70.46,0
66,68.71,70.42,0
66,68.66,70.37,0
66,68.60,70.33,0
65,68.53,70.27,0
66,68.48,70.23,0
66,68.43,70.19,0
66,68.38,70.15,0
66,68.34,70.11,0
68,68.33,70.09,0
64,68.24,70.02,0
66,68.20,69.98,0
65,68.13,69.93,0
65,68.07,69.88,0
66,68.03,69.85,0
65,67.97,69.80,0
65,67.91,69.75,0
65,67.85,69.70,0
64,67.77,69.64,0
64,67.70,69.59,0
64,67.62,69.53,0
64,67.55,69.48,0
64,67.48,69.42,0
64,67.41,69.37,0
64,67.34,69.31,0
65,67.30,69.27,0
66,67.27,69.24,0
65,67.23,69.20,0
64,67.16,69.14,0
65,67.12,69.10,0
64,67.06,69.05,0
64,66.99,69.00,0
63,66.91,68.94,0
64,66.86,68.89,0
64,66.80,68.84,0
64,66.74,68.79,0
65,66.71,68.76,0
64,66.65,68.71,0
64,66.60,68.66,0
64,66.55,68.62,0
65,66.52,68.58,0
63,66.45,68.52,0
64,66.40,68.48,0
63,66.33,68.42,0
63,66.26,68.37,0
63,66.20,68.32,0
62,66.11,68.25,0
62,66.03,68.19,0
63,65.97,68.14,0
63,65.91,68.09,0
62,65.83,68.03,0
62,65.76,67.97,0
61,65.66,67.90,0
63,65.61,67.85,0
62,65.54,67.79,0
62,65.47,67.73,0
63,65.42,67.68,0
63,65.37,67.64,0
62,65.30,67.58,0
62,65.24,67.52,0
63,65.19,67.48,0
62,65.13,67.42,0
66,65.14,67.41,0
62,65.08,67.36,0
63,65.04,67.31,0
62,64.98,67.26,0
62,64.92,67.21,0
62,64.86,67.15,0
61,64.78,67.09,0
62,64.73,67.04,0
62,64.67,66.99,0
62,64.62,66.94,0
62,64.57,66.89,0
61,64.50,66.83,0
62,64.45,66.79,0
61,64.38,66.73,0
61,64.31,66.67,0
61,64.24,66.61,0
62,64.20,66.57,0
61,64.13,66.51,0
61,64.07,66.46,0
60,63.99,66.39,0
62,63.95,66.35,0
60,63.87,66.28,0
61,63.81,66.23,0
62,63.78,66.19,0
60,63.70,66.13,0
60,63.63,66.07,0
61,63.58,66.02,0
62,63.54,65.98,0
62,63.51,65.94,0
60,63.44,65.88,0
62,63.41,65.84,0
60,63.35,65.78,0
58,63.24,65.70,0
62,63.21,65.66,0
62,63.19,65.63,0
62,63.17,65.59,0
62,63.14,65.56,0
61,63.10,65.51,0
62,63.08,65.47,0
61,63.04,65.43,0
59,62.96,65.37,0
61,62.92,65.32,0
62,62.90,65.29,0
60,62.84,65.24,0
62,62.82,65.20,0
61,62.79,65.16,0
62,62.77,65.13,0
60,62.72,65.08,0
61,62.68,65.04,0
61,62.65,65.00,0
60,62.60,64.95,0
61,62.56,64.91,0
61,62.53,64.87,0
60,62.48,64.82,0
62,62.47,64.79,0
60,62.42,64.74,0
61,62.39,64.71,0
59,62.33,64.65,0
60,62.28,64.60,0
60,62.23,64.56,0
60,62.19,64.51,0
60,62.15,64.47,0
61,62.12,64.43,0
60,62.08,64.39,0
60,62.04,64.34,0
59,61.98,64.29,0
60,61.94,64.25,0
60,61.90,64.20,0
60,61.86,64.16,0
59,61.80,64.11,0
59,61.75,64.06,0
60,61.71,64.02,0
60,61.68,63.98,0
58,61.61,63.92,0
59,61.55,63.87,0
58,61.48,63.81,0
58,61.41,63.75,0
58,61.34,63.70,0
59,61.30,63.65,0
58,61.23,63.59,0
58,61.17,63.54,0
58,61.10,63.48,0
58,61.04,63.43,0
58,60.98,63.37,0
58,60.92,63.32,0
58,60.86,63.27,0
58,60.81,63.21,0
58,60.75,63.16,0
58,60.69,63.11,0
58,60.64,63.06,0
58,60.59,63.01,0
58,60.54,62.96,0
58,60.48,62.91,0
58,60.44,62.86,0
58,60.39,62.81,0
57,60.32,62.75,0
58,60.27,62.70,0
58,60.23,62.66,0
58,60.18,62.61,0
57,60.12,62.55,0
58,60.08,62.51,0
56,59.99,62.44,0
58,59.96,62.40,0
56,59.88,62.34,0
58,59.84,62.29,0
58,59.80,62.25,0
57,59.75,62.20,0
58,59.71,62.15,0
57,59.66,62.10,0
58,59.62,62.06,0
57,59.57,62.01,0
56,59.50,61.95,0
57,59.45,61.90,0
56,59.38,61.84,0
56,59.31,61.78,0
56,59.25,61.73,0
56,59.18,61.67,0
56,59.12,61.61,0
58,59.10,61.58,0
56,59.03,61.52,0
56,58.97,61.47,0
55,58.89,61.40,0
56,58.84,61.35,0
55,58.76,61.28,0
56,58.70,61.23,0
56,58.65,61.18,0
56,58.60,61.13,0
54,58.50,61.06,0
55,58.43,60.99,0
56,58.39,60.94,0
57,58.36,60.91,0
56,58.31,60.86,0
55,58.24,60.80,0
55,58.18,60.74,0
55,58.12,60.68,0
56,58.07,60.64,0
54,57.99,60.57,0
55,57.93,60.51,0
54,57.85,60.45,0
58,57.86,60.42,0
55,57.80,60.37,0
55,57.74,60.32,0
55,57.69,60.26,0
55,57.64,60.21,0
54,57.56,60.15,0
56,57.53,60.11,0
57,57.52,60.08,0
53,57.43,60.00,0
54,57.36,59.94,0
54,57.29,59.89,0
54,57.23,59.83,0
55,57.18,59.78,0
54,57.12,59.72,0
54,57.06,59.66,0
55,57.02,59.62,0
53,56.94,59.55,0
54,56.88,59.49,0
54,56.82,59.44,0
54,56.76,59.39,0
54,56.71,59.33,0
54,56.65,59.28,0
54,56.60,59.23,0
54,56.55,59.17,0
54,56.50,59.12,0
54,56.45,59.07,0
54,56.40,59.02,0
53,56.33,58.96,0
54,56.28,58.91,0
54,56.24,58.86,0
53,56.17,58.80,0
53,56.11,58.74,0
54,56.07,58.70,0
52,55.99,58.63,0
52,55.91,58.56,0
53,55.85,58.51,0
53,55.79,58.45,0
52,55.72,58.39,0
53,55.66,58.33,0
53,55.61,58.28,0
54,55.58,58.24,0
52,55.51,58.18,0
52,55.44,58.11,0
53,55.39,58.06,0
52,55.32,58.00,0
52,55.25,57.94,0
52,55.19,57.88,0
53,55.14,57.83,0
52,55.08,57.78,0
52,55.02,57.72,0
52,54.96,57.66,0
52,54.90,57.60,0
54,54.88,57.57,0
52,54.82,57.51,0
52,54.77,57.46,0
52,54.71,57.40,0
55,54.72,57.38,0
52,54.66,57.32,0
52,54.61,57.27,0
52,54.56,57.22,0
52,54.51,57.17,0
52,54.46,57.12,0
50,54.37,57.04,0
51,54.30,56.98,0
52,54.25,56.93,0
52,54.21,56.88,0
52,54.16,56.84,0
52,54.12,56.79,0
51,54.06,56.73,0
52,54.02,56.68,0
51,53.96,56.63,0
51,53.90,56.57,0
52,53.86,56.52,0
52,53.82,56.48,0
51,53.77,56.42,0
52,53.73,56.38,0
51,53.68,56.33,0
51,53.62,56.27,0
51,53.57,56.22,0
50,53.50,56.16,0
54,53.51,56.14,0
50,53.44,56.07,0
51,53.39,56.02,0
52,53.36,55.98,0
51,53.32,55.93,0
50,53.25,55.87,0
50,53.18,55.82,0
49,53.10,55.75,0
49,53.02,55.68,0
50,52.96,55.62,0
50,52.90,55.57,0
50,52.84,55.51,0
50,52.78,55.46,0
50,52.73,55.40,0
50,52.67,55.35,0
49,52.60,55.28,0
50,52.55,55.23,0
50,52.50,55.18,0
50,52.45,55.13,0
50,52.40,55.08,0
50,52.35,55.02,0
50,52.30,54.97,0
50,52.26,54.92,0
49,52.19,54.87,0
49,52.13,54.81,0
50,52.09,54.76,0
50,52.04,54.71,0
51,52.02,54.67,0
50,51.98,54.63,0
50,51.94,54.58,0
50,51.90,54.54,0
50,51.87,54.49,0
49,51.81,54.44,0
50,51.77,54.39,0
50,51.74,54.35,0
52,51.74,54.32,0
49,51.69,54.27,0
49,51.63,54.22,0
50,51.60,54.18,0
49,51.55,54.12,0
50,51.52,54.08,0
48,51.45,54.02,0
50,51.42,53.98,0
47,51.33,53.91,0
48,51.26,53.85,0
50,51.24,53.81,0
47,51.15,53.75,0
49,51.11,53.70,0
48,51.05,53.64,0
49,51.01,53.59,0
49,50.97,53.55,0
47,50.89,53.48,0
48,50.83,53.43,0
49,50.79,53.38,0
49,50.76,53.34,0
49,50.72,53.30,0
50,50.71,53.26,0
49,50.67,53.22,0
48,50.62,53.17,0
48,50.57,53.12,0
48,50.52,53.07,0
48,50.47,53.02,0
48,50.42,52.97,0
48,50.37,52.92,0
48,50.32,52.87,0
48,50.28,52.82,0
47,50.21,52.76,0
48,50.17,52.71,0
48,50.12,52.67,0
47,50.06,52.61,0
47,50.00,52.55,0
48,49.96,52.51,0
47,49.90,52.45,0
47,49.84,52.40,0
47,49.78,52.34,0
48,49.75,52.30,0
47,49.69,52.25,0
47,49.64,52.19,0
47,49.59,52.14,0
47,49.54,52.09,0
48,49.50,52.05,0
47,49.45,52.00,0
47,49.41,51.95,0
47,49.36,51.90,0
48,49.33,51.86,0
47,49.28,51.81,0
46,49.22,51.75,0
47,49.17,51.71,0
48,49.15,51.67,0
47,49.11,51.62,0
47,49.06,51.58,0
47,49.02,51.53,0
47,48.98,51.49,0
47,48.94,51.44,0
47,48.90,51.40,0
47,48.87,51.35,0
47,48.83,51.31,0
46,48.77,51.26,0
46,48.72,51.20,0
47,48.68,51.16,0
46,48.63,51.11,0
46,48.58,51.06,0
46,48.53,51.01,0
47,48.49,50.97,0
46,48.44,50.92,0
46,48.40,50.87,0
46,48.35,50.82,0
47,48.32,50.78,0
46,48.27,50.73,0
46,48.23,50.69,0
46,48.18,50.64,0
47,48.16,50.60,0
46,48.12,50.56,0
46,48.08,50.51,0
47,48.05,50.48,0
46,48.01,50.43,0
47,47.99,50.40,0
46,47.95,50.35,0
47,47.93,50.32,0
46,47.89,50.28,0
46,47.86,50.23,0
46,47.82,50.19,0
46,47.78,50.15,0
47,47.77,50.12,0
46,47.73,50.08,0
46,47.70,50.04,0
46,47.66,50.00,0
46,47.63,49.96,0
46,47.60,49.92,0
46,47.57,49.88,0
46,47.53,49.84,0
46,47.50,49.80,0
46,47.47,49.76,0
46,47.44,49.72,0
46,47.42,49.69,0
46,47.39,49.65,0
45,47.34,49.60,0
46,47.31,49.57,0
45,47.27,49.52,0
46,47.24,49.49,0
45,47.20,49.44,0
46,47.17,49.41,0
46,47.15,49.37,0
46,47.13,49.34,0
46,47.10,49.31,0
46,47.08,49.27,0
46,47.06,49.24,0
45,47.02,49.20,0
46,47.00,49.17,0
46,46.98,49.13,0
43,46.90,49.07,0
45,46.86,49.03,0
45,46.82,48.99,0
44,46.77,48.94,0
45,46.73,48.90,0
45,46.70,48.86,0
46,46.68,48.84,0
45,46.65,48.80,0
45,46.62,48.76,0
45,46.58,48.72,0
47,46.59,48.70,0
45,46.56,48.67,0
45,46.53,48.63,0
47,46.54,48.61,0
47,46.55,48.60,0
46,46.54,48.57,0
44,46.49,48.53,0
45,46.46,48.49,0
45,46.43,48.46,0
45,46.40,48.42,0
46,46.39,48.40,0
45,46.36,48.36,0
45,46.34,48.33,0
45,46.31,48.30,0
44,46.26,48.25,0
45,46.24,48.22,0
45,46.21,48.19,0
45,46.19,48.16,0
46,46.18,48.14,0
45,46.16,48.10,0
46,46.16,48.08,0
45,46.13,48.05,0
46,46.13,48.03,0
45,46.11,48.00,0
45,46.09,47.97,0
44,46.05,47.93,0
44,46.00,47.89,0
45,45.98,47.86,0
46,45.98,47.84,0
46,45.99,47.83,0
46,45.99,47.81,0
45,45.97,47.78,0
46,45.97,47.76,0
45,45.95,47.73,0
44,45.91,47.70,0
46,45.91,47.68,0
45,45.89,47.65,0
44,45.85,47.62,0
44,45.82,47.58,0
45,45.80,47.55,0
46,45.80,47.54,0
44,45.77,47.50,0
44,45.73,47.47,0
45,45.72,47.44,0
44,45.68,47.41,0
44,45.65,47.38,0
44,45.62,47.34,0
45,45.61,47.32,0
45,45.59,47.30,0
43,45.54,47.25,0
46,45.55,47.24,0
45,45.54,47.22,0
46,45.55,47.21,0
44,45.52,47.17,0
45,45.51,47.15,0
44,45.48,47.12,0
44,45.45,47.09,0
44,45.42,47.06,0
44,45.39,47.03,0
46,45.40,47.02,0
45,45.39,47.00,0
44,45.37,46.97,0
46,45.38,46.96,0
44,45.35,46.93,0
47,45.38,46.93,0
44,45.36,46.90,0
44,45.33,46.87,0
45,45.32,46.85,0
45,45.32,46.83,0
44,45.29,46.80,0
44,45.26,46.78,0
44,45.24,46.75,0
44,45.21,46.72,0
44,45.19,46.69,0
44,45.17,46.67,0
44,45.14,46.64,0
44,45.12,46.61,0
44,45.10,46.59,0
44,45.08,46.56,0
44,45.05,46.54,0
44,45.03,46.51,0
44,45.01,46.49,0
44,44.99,46.46,0
44,44.97,46.44,0
44,44.95,46.41,0
44,44.93,46.39,0
44,44.92,46.36,0
44,44.90,46.34,0
44,44.88,46.32,0
46,44.90,46.31,0
42,44.84,46.27,0
45,44.85,46.26,0
44,44.83,46.24,0
44,44.81,46.21,0
44,44.80,46.19,0
44,44.78,46.17,0
44,44.77,46.15,0
44,44.75,46.13,0
42,44.69,46.08,0
45,44.70,46.07,0
44,44.69,46.05,0
43,44.65,46.02,0
42,44.60,45.98,0
44,44.59,45.96,0
45,44.60,45.95,0
44,44.58,45.93,0
44,44.57,45.91,0
45,44.58,45.90,0
44,44.57,45.89,0
43,44.54,45.86,0
44,44.53,45.84,0
44,44.52,45.82,0
44,44.51,45.80,0
46,44.54,45.80,0
44,44.53,45.79,0
43,44.50,45.76,0
43,44.47,45.73,0
44,44.46,45.71,0
44,44.45,45.70,0
43,44.42,45.67,0
44,44.41,45.65,0
43,44.38,45.63,0
44,44.37,45.61,0
44,44.37,45.59,0
44,44.36,45.58,0
42,44.31,45.54,0
44,44.31,45.53,0
43,44.28,45.50,0
43,44.25,45.48,0
40,44.17,45.42,0
44,44.17,45.41,0
44,44.16,45.39,0
44,44.16,45.38,0
44,44.16,45.37,0
45,44.17,45.36,0
43,44.15,45.34,0
44,44.15,45.32,0
44,44.14,45.31,0
44,44.14,45.30,0
44,44.14,45.29,0
44,44.13,45.27,0
44,44.13,45.26,0
44,44.13,45.25,0
44,44.13,45.23,0
45,44.14,45.23,0
44,44.14,45.22,0
44,44.14,45.21,0
43,44.12,45.19,0
44,44.11,45.17,0
44,44.11,45.16,0
44,44.11,45.15,0
43,44.09,45.13,0
44,44.09,45.12,0
44,44.08,45.11,0
44,44.08,45.10,0
46,44.12,45.10,0
44,44.12,45.09,0
44,44.12,45.08,0
43,44.09,45.06,0
43,44.07,45.04,0
44,44.07,45.03,0
44,44.07,45.02,0
43,44.05,45.00,0
44,44.05,44.99,0
44,44.05,44.98,0
44,44.04,44.97,0
43,44.02,44.95,0
44,44.02,44.94,0
43,44.00,44.92,0
43,43.98,44.90,0
42,43.94,44.87,0
44,43.94,44.86,0
43,43.93,44.85,0
44,43.93,44.84,0
44,43.93,44.83,0
44,43.93,44.82,0
44,43.93,44.81,0
44,43.93,44.80,0
44,43.93,44.80,0
44,43.93,44.79,0
43,43.92,44.77,0
44,43.92,44.76,0
43,43.90,44.75,0
44,43.90,44.74,0
44,43.90,44.73,0
42,43.87,44.70,0
44,43.87,44.70,0
44,43.87,44.69,0
44,43.87,44.68,0
42,43.84,44.66,0
42,43.80,44.63,0
43,43.78,44.61,0
43,43.77,44.60,0
42,43.73,44.57,0
44,43.74,44.56,0
43,43.72,44.55,0
43,43.71,44.53,0
44,43.71,44.53,0
42,43.68,44.50,0
43,43.67,44.49,0
43,43.65,44.47,0
42,43.62,44.45,0
44,43.63,44.44,0
43,43.62,44.43,0
44,43.62,44.43,0
44,43.63,44.42,0
44,43.64,44.42,0
43,43.62,44.40,0
44,43.63,44.40,0
44,43.64,44.39,0
44,43.65,44.39,0
44,43.65,44.39,0
44,43.66,44.38,0
44,43.67,44.38,0
45,43.69,44.39,0
44,43.70,44.38,0
44,43.71,44.38,0
44,43.71,44.37,0
44,43.72,44.37,0
44,43.72,44.37,0
44,43.73,44.36,0
44,43.73,44.36,0
44,43.74,44.36,0
43,43.73,44.34,0
45,43.75,44.35,0
44,43.76,44.35,0
44,43.76,44.34,0
44,43.77,44.34,0
46,43.81,44.35,0
44,43.81,44.35,0
44,43.82,44.35,0
44,43.82,44.34,0
44,43.82,44.34,0
44,43.83,44.34,0
44,43.83,44.33,0
44,43.84,44.33,0
44,43.84,44.33,0
44,43.84,44.32,0
44,43.84,44.32,0
44,43.85,44.32,0
44,43.85,44.31,0
44,43.85,44.31,0
44,43.86,44.31,0
44,43.86,44.31,0
43,43.84,44.29,0
44,43.85,44.29,0
44,43.85,44.29,0
44,43.85,44.28,0
44,43.85,44.28,0
43,43.84,44.27,0
42,43.80,44.25,0
44,43.80,44.24,0
44,43.81,44.24,0
43,43.79,44.23,0
44,43.80,44.23,0
44,43.80,44.22,0
44,43.80,44.22,0
44,43.81,44.22,0
42,43.77,44.20,0
44,43.78,44.19,0
44,43.78,44.19,0
44,43.79,44.19,0
44,43.79,44.19,0
44,43.79,44.19,0
44,43.80,44.19,0
42,43.76,44.16,0
44,43.77,44.16,0
45,43.79,44.17,0
43,43.78,44.16,0
42,43.74,44.14,0
44,43.75,44.14,0
45,43.77,44.14,0
44,43.78,44.14,0
44,43.78,44.14,0
44,43.78,44.14,0
44,43.79,44.14,0
44,43.79,44.14,0
44,43.80,44.14,0
44,43.80,44.13,0
44,43.81,44.13,0
44,43.81,44.13,0
44,43.81,44.13,0
44,43.82,44.13,0
44,43.82,44.13,0
44,43.82,44.13,0
44,43.83,44.13,0
44,43.83,44.12,0
44,43.83,44.12,0
44,43.84,44.12,0
44,43.84,44.12,0
44,43.84,44.12,0
45,43.87,44.13,0
44,43.87,44.13,0
45,43.89,44.14,0
46,43.93,44.15,0
45,43.96,44.16,0
44,43.96,44.16,0
44,43.96,44.16,0
44,43.96,44.16,0
45,43.98,44.17,0
44,43.98,44.16,0
46,44.02,44.18,0
46,44.06,44.20,0
46,44.10,44.22,0
47,44.16,44.25,0
46,44.19,44.26,0
45,44.21,44.27,0
45,44.23,44.28,0
45,44.24,44.29,0
45,44.26,44.29,0
45,44.27,44.30,0
45,44.29,44.31,0
44,44.28,44.30,0
44,44.27,44.30,0
45,44.29,44.31,0
46,44.32,44.33,0
48,44.40,44.36,0
44,44.39,44.36,0
45,44.40,44.36,0
45,44.41,44.37,0
45,44.42,44.38,0
46,44.46,44.39,0
44,44.45,44.39,0
45,44.46,44.40,0
45,44.47,44.40,0
45,44.48,44.41,0
46,44.51,44.42,0
45,44.52,44.43,0
45,44.53,44.44,0
46,44.56,44.45,0
45,44.57,44.46,0
46,44.60,44.47,0
46,44.62,44.49,0
46,44.65,44.50,0
47,44.70,44.53,0
47,44.74,44.55,0
47,44.79,44.58,0
48,44.85,44.61,0
46,44.88,44.62,0
47,44.92,44.65,0
48,44.98,44.68,0
48,45.04,44.71,0
46,45.06,44.73,0
51,45.18,44.79,0
48,45.24,44.82,0
46,45.25,44.83,0
46,45.27,44.85,0
47,45.30,44.87,0
47,45.33,44.89,0
48,45.39,44.92,0
46,45.40,44.93,0
47,45.43,44.95,0
47,45.46,44.97,0
48,45.51,45.00,0
48,45.56,45.03,0
48,45.61,45.06,0
48,45.66,45.09,0
48,45.71,45.12,0
48,45.75,45.15,0
47,45.78,45.17,0
48,45.82,45.20,0
48,45.87,45.22,0
49,45.93,45.26,0
49,45.99,45.30,0
48,46.03,45.33,0
48,46.07,45.35,0
47,46.09,45.37,0
50,46.17,45.42,0
50,46.24,45.46,0
50,46.32,45.51,0
49,46.37,45.54,0
50,46.44,45.59,0
49,46.50,45.62,0
49,46.55,45.65,0
50,46.61,45.70,0
50,46.68,45.74,0
50,46.75,45.78,0
50,46.81,45.83,0
47,46.82,45.84,0
50,46.88,45.88,0
50,46.94,45.92,0
48,46.96,45.94,0
50,47.03,45.98,0
51,47.11,46.03,0
50,47.16,46.07,0
50,47.22,46.11,0
50,47.28,46.15,0
53,47.39,46.22,0
52,47.48,46.28,0
52,47.57,46.33,0
52,47.66,46.39,0
52,47.75,46.45,0
53,47.85,46.51,0
52,47.94,46.57,0
52,48.02,46.62,0
52,48.10,46.67,0
52,48.17,46.73,0
52,48.25,46.78,0
52,48.33,46.83,0
53,48.42,46.89,0
52,48.49,46.95,0
52,48.56,47.00,0
52,48.63,47.05,0
53,48.72,47.11,0
54,48.82,47.17,0
53,48.91,47.23,0
53,48.99,47.29,0
53,49.07,47.35,0
53,49.15,47.40,0
53,49.22,47.46,0
54,49.32,47.53,0
53,49.39,47.58,0
53,49.47,47.63,0
52,49.52,47.68,0
52,49.57,47.72,0
54,49.65,47.78,0
54,49.74,47.85,0
54,49.83,47.91,0
54,49.91,47.97,0
53,49.97,48.02,0
54,50.05,48.08,0
54,50.13,48.14,0
54,50.21,48.20,0
54,50.28,48.25,0
55,50.38,48.32,0
54,50.45,48.38,0
54,50.52,48.44,0
56,50.63,48.51,0
55,50.72,48.58,0
54,50.79,48.63,0
54,50.85,48.68,0
55,50.93,48.75,0
56,51.03,48.82,0
56,51.13,48.89,0
55,51.21,48.95,0
57,51.33,49.03,0
60,51.50,49.14,0
58,51.63,49.23,0
58,51.76,49.32,0
58,51.88,49.41,0
58,52.00,49.49,0
58,52.12,49.58,0
57,52.22,49.65,0
58,52.34,49.73,0
58,52.45,49.82,0
56,52.52,49.88,0
58,52.63,49.96,0
58,52.74,50.04,0
58,52.84,50.12,0
57,52.93,50.19,0
58,53.03,50.27,0
59,53.15,50.35,0
58,53.24,50.43,0
58,53.34,50.51,0
59,53.45,50.59,0
58,53.54,50.67,0
58,53.63,50.74,0
58,53.72,50.81,0
61,53.87,50.91,0
59,53.97,50.99,0
58,54.05,51.06,0
59,54.15,51.14,0
59,54.25,51.22,0
60,54.36,51.31,0
60,54.47,51.40,0
60,54.58,51.48,0
61,54.71,51.58,0
61,54.84,51.67,0
61,54.96,51.77,0
62,55.10,51.87,0
61,55.22,51.96,0
62,55.36,52.06,0
61,55.47,52.15,0
62,55.60,52.25,0
59,55.67,52.31,0
61,55.77,52.40,0
62,55.90,52.50,0
62,56.02,52.59,0
62,56.14,52.69,0
63,56.28,52.79,0
62,56.39,52.88,0
62,56.50,52.97,0
60,56.57,53.04,0
63,56.70,53.14,0
64,56.85,53.25,0
62,56.95,53.34,0
63,57.07,53.44,0
64,57.21,53.54,0
64,57.35,53.65,0
64,57.48,53.75,0
62,57.57,53.83,0
64,57.70,53.93,0
64,57.82,54.03,0
64,57.95,54.13,0
64,58.07,54.23,0
65,58.21,54.34,0
65,58.34,54.45,0
65,58.48,54.55,0
66,58.63,54.67,0
66,58.77,54.78,0
66,58.92,54.89,0
66,59.06,55.00,0
66,59.20,55.11,0
67,59.36,55.23,0
68,59.53,55.36,0
67,59.68,55.48,0
66,59.80,55.58,0
68,59.97,55.71,0
67,60.11,55.82,0
68,60.27,55.94,0
71,60.48,56.09,0
70,60.67,56.23,0
70,60.86,56.37,0
70,61.04,56.50,0
71,61.24,56.65,0
70,61.42,56.78,0
70,61.59,56.91,0
72,61.80,57.07,0
72,62.00,57.22,0
72,62.20,57.36,0
73,62.42,57.52,0
73,62.63,57.67,0
75,62.87,57.85,0
75,63.12,58.02,0
74,63.33,58.18,0
76,63.59,58.36,0
76,63.84,58.53,0
76,64.08,58.71,0
76,64.32,58.88,0
76,64.55,59.05,0
76,64.78,59.22,0
78,65.05,59.41,0
78,65.30,59.60,0
78,65.56,59.78,0
78,65.81,59.96,0
78,66.05,60.14,0
80,66.33,60.34,0
78,66.56,60.52,0
78,66.79,60.69,0
78,67.02,60.87,0
80,67.28,61.06,0
78,67.49,61.23,0
79,67.72,61.40,0
80,67.97,61.59,0
82,68.25,61.79,0
82,68.52,62.00,0
81,68.77,62.19,0
82,69.04,62.38,0
82,69.30,62.58,0
82,69.55,62.77,0
82,69.80,62.97,0
82,70.04,63.16,0
82,70.28,63.35,0
82,70.52,63.53,0
82,70.75,63.72,0
82,70.97,63.90,0
86,71.27,64.12,0
82,71.49,64.30,0
83,71.72,64.49,0
83,71.94,64.67,0
84,72.18,64.86,0
84,72.42,65.06,0
84,72.65,65.25,0
83,72.86,65.42,0
84,73.08,65.61,0
83,73.28,65.78,0
83,73.47,65.95,0
84,73.68,66.14,0
84,73.89,66.31,0
84,74.09,66.49,0
84,74.29,66.67,0
86,74.52,66.86,0
86,74.75,67.05,0
84,74.94,67.22,0
84,75.12,67.39,0
84,75.30,67.55,0
85,75.49,67.73,0
84,75.66,67.89,0
84,75.83,68.05,0
85,76.01,68.22,0
86,76.21,68.40,0
86,76.41,68.58,0
86,76.60,68.75,0
86,76.79,68.92,0
86,76.97,69.09,0
86,77.15,69.26,0
86,77.33,69.43,0
87,77.52,69.61,0
86,77.69,69.77,0
86,77.86,69.93,0
86,78.02,70.09,0
87,78.20,70.26,0
87,78.38,70.43,0
86,78.53,70.58,0
86,78.68,70.74,0
87,78.85,70.90,0
88,79.03,71.07,0
86,79.17,71.22,0
88,79.34,71.39,0
88,79.52,71.56,0
88,79.69,71.72,0
88,79.85,71.88,0
88,80.02,72.04,0
88,80.18,72.20,0
88,80.33,72.36,0
88,80.49,72.52,0
88,80.64,72.67,0
88,80.78,72.83,0
88,80.93,72.98,0
88,81.07,73.13,0
88,81.21,73.28,0
88,81.34,73.42,0
86,81.44,73.55,0
86,81.53,73.67,0
88,81.66,73.82,0
86,81.74,73.94,0
86,81.83,74.06,0
86,81.91,74.18,0
87,82.01,74.31,0
86,82.09,74.42,0
86,82.17,74.54,0
86,82.25,74.65,0
86,82.32,74.77,0
88,82.44,74.90,0
85,82.49,75.00,0
86,82.56,75.11,0
86,82.63,75.22,0
85,82.68,75.32,0
88,82.78,75.44,0
85,82.83,75.54,0
85,82.87,75.63,0
87,82.95,75.75,0
86,83.01,75.85,0
85,83.05,75.94,0
85,83.09,76.03,0
85,83.13,76.12,0
86,83.19,76.22,0
84,83.20,76.30,0
85,83.24,76.39,0
84,83.25,76.46,0
86,83.31,76.56,0
84,83.32,76.63,0
85,83.36,76.72,0
85,83.39,76.80,0
85,83.42,76.88,0
84,83.43,76.95,0
84,83.45,77.02,0
85,83.48,77.10,0
84,83.49,77.17,0
84,83.50,77.24,0
84,83.51,77.31,0
86,83.56,77.39,0
84,83.57,77.46,0
84,83.57,77.53,0
84,83.58,77.59,0
84,83.59,77.65,0
84,83.60,77.72,0
83,83.59,77.77,0
82,83.56,77.81,0
83,83.54,77.86,0
82,83.51,77.91,0
82,83.48,77.95,0
82,83.45,77.99,0
83,83.44,78.04,0
83,83.44,78.09,0
82,83.41,78.13,0
82,83.38,78.17,0
83,83.37,78.21,0
82,83.34,78.25,0
82,83.32,78.29,0
84,83.33,78.35,0
81,83.28,78.37,0
82,83.26,78.41,0
82,83.23,78.44,0
79,83.15,78.45,0
82,83.13,78.49,0
82,83.10,78.52,0
82,83.08,78.56,0
82,83.06,78.59,0
82,83.04,78.62,0
82,83.02,78.66,0
82,83.00,78.69,0
82,82.98,78.72,0
81,82.94,78.75,0
81,82.90,78.77,0
80,82.84,78.78,0
81,82.80,78.80,0
81,82.77,78.83,0
82,82.75,78.86,0
81,82.72,78.88,0
81,82.68,78.90,0
81,82.65,78.92,0
80,82.60,78.93,0
81,82.56,78.95,0
80,82.51,78.96,0
80,82.46,78.97,0
84,82.49,79.02,0
82,82.48,79.05,0
81,82.45,79.07,0
80,82.41,79.08,0
82,82.40,79.11,0
80,82.35,79.12,0
80,82.30,79.13,0
80,82.26,79.14,0
79,82.19,79.14,0
81,82.17,79.16,0
79,82.10,79.15,0
80,82.06,79.16,0
82,82.06,79.19,0
79,82.00,79.19,0
79,81.94,79.19,0
80,81.90,79.20,0
77,81.80,79.17,0
79,81.75,79.17,0
80,81.71,79.18,0
80,81.68,79.19,0
80,81.64,79.20,0
80,81.61,79.20,0
79,81.56,79.20,0
80,81.53,79.21,0
79,81.48,79.21,0
79,81.43,79.21,0
78,81.36,79.19,0
79,81.31,79.19,0
81,81.31,79.21,0
78,81.24,79.20,0
78,81.17,79.19,0
80,81.15,79.19,0
79,81.11,79.19,0
78,81.05,79.18,0
78,80.99,79.17,0
78,80.93,79.16,0
78,80.87,79.15,0
78,80.81,79.13,0
78,80.75,79.12,0
78,80.70,79.11,0
78,80.64,79.10,0
78,80.59,79.09,0
78,80.54,79.08,0
77,80.47,79.06,0
77,80.40,79.04,0
76,80.31,79.01,0
78,80.27,79.00,0
77,80.20,78.98,0
77,80.14,78.96,0
76,80.05,78.93,0
76,79.97,78.90,0
77,79.91,78.88,0
77,79.85,78.86,0
76,79.78,78.83,0
76,79.70,78.80,0
77,79.65,78.79,0
77,79.59,78.77,0
78,79.56,78.76,0
78,79.53,78.75,0
77,79.48,78.73,0
78,79.45,78.73,0
76,79.38,78.70,0
76,79.31,78.67,0
78,79.29,78.67,0
76,79.22,78.64,0
78,79.20,78.63,0
76,79.13,78.61,0
78,79.11,78.60,0
76,79.05,78.57,0
76,78.99,78.55,0
76,78.93,78.52,0
77,78.89,78.51,0
76,78.83,78.48,0
76,78.78,78.46,0
76,78.72,78.43,0
77,78.69,78.42,0
76,78.63,78.40,0
76,78.58,78.37,0
76,78.53,78.35,0
76,78.48,78.32,0
76,78.43,78.30,0
76,78.38,78.28,0
76,78.33,78.25,0
77,78.30,78.24,0
76,78.26,78.22,0
76,78.21,78.20,0
76,78.17,78.18,0
76,78.13,78.15,0
74,78.04,78.11,0
76,78.00,78.09,0
75,77.94,78.06,0
75,77.88,78.03,0
74,77.81,77.99,0
75,77.75,77.96,0
75,77.69,77.93,0
76,77.66,77.91,0
74,77.59,77.87,0
75,77.54,77.84,0
75,77.49,77.81,0
74,77.42,77.78,0
76,77.39,77.76,0
75,77.34,77.73,0
74,77.27,77.69,0
75,77.23,77.67,0
77,77.22,77.66,0
74,77.16,77.62,0
74,77.10,77.59,0
74,77.03,77.55,0
74,76.97,77.52,0
74,76.91,77.48,0
74,76.85,77.45,0
75,76.82,77.42,0
74,76.76,77.39,0
74,76.71,77.35,0
74,76.65,77.32,0
77,76.66,77.32,0
74,76.61,77.28,0
74,76.55,77.25,0
74,76.50,77.22,0
73,76.43,77.18,0
74,76.38,77.14,0
74,76.34,77.11,0
74,76.29,77.08,0
74,76.24,77.05,0
73,76.18,77.01,0
74,76.14,76.98,0
72,76.05,76.93,0
73,75.99,76.89,0
73,75.93,76.85,0
72,75.85,76.80,0
74,75.82,76.78,0
74,75.78,76.75,0
73,75.72,76.71,0
72,75.65,76.66,0
72,75.58,76.62,0
73,75.53,76.58,0
72,75.45,76.53,0
72,75.39,76.49,0
72,75.32,76.44,0
72,75.25,76.40,0
72,75.19,76.36,0
72,75.12,76.31,0
72,75.06,76.27,0
72,75.00,76.23,0
72,74.94,76.18,0
72,74.88,76.14,0
72,74.82,76.10,0
72,74.77,76.06,0
72,74.71,76.02,0
70,74.62,75.96,0
71,74.54,75.91,0
71,74.47,75.86,0
71,74.40,75.81,0
72,74.36,75.77,0
72,74.31,75.74,0
72,74.26,75.70,0
72,74.22,75.66,0
70,74.13,75.61,0
70,74.05,75.55,0
70,73.97,75.49,0
70,73.89,75.44,0
71,73.83,75.39,0
72,73.80,75.36,0
71,73.74,75.32,0
72,73.70,75.28,0
71,73.65,75.24,0
70,73.58,75.19,0
70,73.51,75.14,0
70,73.44,75.09,0
70,73.37,75.03,0
70,73.30,74.98,0
71,73.25,74.94,0
69,73.17,74.88,0
70,73.11,74.84,0
70,73.04,74.79,0
70,72.98,74.74,0
70,72.92,74.69,0
70,72.86,74.65,0
70,72.81,74.60,0
71,72.77,74.56,0
69,72.70,74.51,0
69,72.62,74.45,0
70,72.57,74.41,0
70,72.52,74.36,0
70,72.47,74.32,0
70,72.42,74.28,0
69,72.35,74.22,0
71,72.32,74.19,0
69,72.26,74.14,0
69,72.19,74.09,0
70,72.15,74.05,0
69,72.08,74.00,0
69,72.02,73.95,0
69,71.96,73.90,0
69,71.90,73.85,0
70,71.87,73.81,0
68,71.79,73.75,0
68,71.71,73.69,0
68,71.64,73.64,0
69,71.58,73.59,0
70,71.55,73.56,0
70,71.52,73.52,0
70,71.49,73.48,0
69,71.44,73.44,0
69,71.39,73.40,0
68,71.33,73.34,0
69,71.28,73.30,0
69,71.23,73.25,0
70,71.21,73.22,0
68,71.14,73.17,0
70,71.12,73.14,0
69,71.08,73.10,0
68,71.02,73.05,0
68,70.96,73.00,0
68,70.90,72.95,0
68,70.84,72.90,0
68,70.78,72.85,0
68,70.73,72.80,0
68,70.67,72.75,0
68,70.62,72.70,0
68,70.57,72.66,0
66,70.48,72.59,0
67,70.41,72.53,0
67,70.34,72.48,0
67,70.27,72.42,0
67,70.21,72.37,0
68,70.16,72.33,0
68,70.12,72.28,0
66,70.04,72.22,0
68,70.00,72.18,0
70,70.00,72.16,0
67,69.94,72.10,0
66,69.86,72.04,0
66,69.78,71.98,0
67,69.72,71.93,0
66,69.65,71.87,0
66,69.58,71.81,0
66,69.51,71.76,0
70,69.52,71.74,0
66,69.44,71.68,0
69,69.44,71.65,0
66,69.37,71.60,0
66,69.30,71.54,0
66,69.23,71.49,0
65,69.15,71.42,0
66,69.09,71.37,0
65,69.00,71.30,0
66,68.94,71.25,0
65,68.87,71.19,0
66,68.81,71.14,0
65,68.73,71.08,0
65,68.66,71.01,0
67,68.62,70.97,0
65,68.55,70.91,0
64,68.46,70.85,0
65,68.39,70.79,0
65,68.32,70.73,0
66,68.28,70.68,0
65,68.21,70.63,0
65,68.15,70.57,0
65,68.08,70.51,0
64,68.00,70.45,0
64,67.92,70.38,0
64,67.84,70.32,0
64,67.77,70.26,0
64,67.69,70.19,0
64,67.62,70.13,0
64,67.55,70.07,0
64,67.47,70.01,0
64,67.41,69.95,0
64,67.34,69.89,0
64,67.27,69.83,0
64,67.21,69.77,0
64,67.14,69.72,0
64,67.08,69.66,0
64,67.02,69.60,0
64,66.96,69.55,0
64,66.90,69.49,0
64,66.84,69.44,0
64,66.78,69.38,0
64,66.73,69.33,0
64,66.67,69.27,0
64,66.62,69.22,0
64,66.57,69.17,0
63,66.50,69.11,0
64,66.45,69.06,0
63,66.38,69.00,0
63,66.31,68.94,0
63,66.24,68.88,0
64,66.20,68.83,0
64,66.15,68.78,0
63,66.09,68.72,0
63,66.03,68.66,0
64,65.99,68.62,0
63,65.93,68.56,0
63,65.87,68.51,0
62,65.79,68.44,0
62,65.72,68.38,0
62,65.64,68.31,0
62,65.57,68.25,0
63,65.52,68.20,0
62,65.45,68.14,0
62,65.38,68.07,0
62,65.31,68.01,0
62,65.25,67.95,0
62,65.18,67.89,0
62,65.12,67.83,0
62,65.05,67.78,0
62,64.99,67.72,0
62,64.93,67.66,0
61,64.85,67.59,0
61,64.78,67.53,0
62,64.72,67.47,0
60,64.63,67.40,0
61,64.56,67.33,0
62,64.50,67.28,0
60,64.41,67.21,0
60,64.33,67.14,0
61,64.26,67.07,0
60,64.17,67.00,0
62,64.13,66.95,0
60,64.05,66.88,0
61,63.99,66.83,0
60,63.91,66.76,0
61,63.85,66.70,0
60,63.77,66.63,0
60,63.70,66.57,0
61,63.64,66.51,0
60,63.57,66.45,0
61,63.52,66.39,0
60,63.45,66.33,0
60,63.38,66.26,0
59,63.29,66.19,0
60,63.23,66.13,0
60,63.16,66.07,0
62,63.14,66.03,0
62,63.12,65.99,0
60,63.05,65.93,0
60,62.99,65.87,0
60,62.93,65.81,0
60,62.87,65.75,0
60,62.82,65.69,0
59,62.74,65.63,0
60,62.68,65.57,0
60,62.63,65.51,0
60,62.58,65.46,0
59,62.51,65.40,0
60,62.46,65.34,0
58,62.37,65.27,0
58,62.28,65.20,0
58,62.19,65.12,0
59,62.13,65.06,0
59,62.07,65.00,0
62,62.07,64.97,0
58,61.99,64.90,0
59,61.93,64.84,0
58,61.85,64.77,0
59,61.79,64.72,0
58,61.71,64.65,0
60,61.68,64.60,0
60,61.65,64.56,0
59,61.59,64.50,0
58,61.52,64.44,0
60,61.49,64.39,0
59,61.44,64.34,0
59,61.39,64.28,0
60,61.36,64.24,0
60,61.34,64.20,0
60,61.31,64.16,0
56,61.20,64.08,0
60,61.18,64.03,0
59,61.14,63.98,0
59,61.09,63.93,0
59,61.05,63.89,0
60,61.03,63.85,0
59,60.99,63.80,0
59,60.95,63.75,0
58,60.89,63.69,0
58,60.83,63.64,0
59,60.80,63.59,0
58,60.74,63.53,0
58,60.69,63.48,0
58,60.63,63.42,0
58,60.58,63.37,0
58,60.53,63.32,0
58,60.48,63.26,0
58,60.43,63.21,0
59,60.40,63.17,0
58,60.35,63.12,0
58,60.30,63.06,0
58,60.26,63.01,0
58,60.21,62.96,0
58,60.17,62.91,0
58,60.13,62.87,0
58,60.08,62.82,0
58,60.04,62.77,0
57,59.98,62.71,0
58,59.94,62.66,0
57,59.88,62.61,0
56,59.80,62.54,0
60,59.81,62.52,0
56,59.73,62.45,0
57,59.68,62.40,0
57,59.62,62.34,0
59,59.61,62.31,0
56,59.54,62.25,0
57,59.49,62.19,0
58,59.46,62.15,0
58,59.43,62.11,0
57,59.38,62.06,0
57,59.33,62.01,0
57,59.29,61.96,0
58,59.26,61.92,0
57,59.22,61.87,0
57,59.17,61.82,0
59,59.17,61.79,0
58,59.14,61.75,0
58,59.12,61.72,0
58,59.10,61.68,0
57,59.06,61.63,0
58,59.04,61.60,0
58,59.02,61.56,0
59,59.02,61.53,0
57,58.98,61.49,0
58,58.96,61.45,0
58,58.94,61.42,0
58,58.92,61.39,0
57,58.88,61.34,0
58,58.86,61.31,0
57,58.82,61.27,0
58,58.81,61.23,0
57,58.77,61.19,0
58,58.76,61.16,0
57,58.72,61.12,0
56,58.67,61.07,0
57,58.63,61.03,0
57,58.60,60.98,0
56,58.55,60.94,0
57,58.52,60.90,0
57,58.49,60.86,0
57,58.46,60.82,0
57,58.43,60.78,0
56,58.38,60.73,0
58,58.37,60.70,0
57,58.35,60.67,0
58,58.34,60.64,0
58,58.33,60.61,0
58,58.32,60.59,0
57,58.30,60.55,0
58,58.29,60.53,0
58,58.29,60.50,0
57,58.26,60.47,0
58,58.26,60.44,0
58,58.25,60.42,0
58,58.25,60.39,0
57,58.22,60.36,0
57,58.20,60.33,0
58,58.19,60.30,0
58,58.19,60.28,0
57,58.16,60.25,0
57,58.14,60.21,0
58,58.14,60.19,0
58,58.14,60.17,0
57,58.11,60.14,0
56,58.07,60.10,0
57,58.05,60.07,0
57,58.03,60.04,0
57,58.01,60.01,0
58,58.01,59.99,0
56,57.97,59.95,0
57,57.95,59.92,0
57,57.93,59.89,0
56,57.89,59.85,0
56,57.85,59.81,0
57,57.84,59.78,0
57,57.82,59.75,0
55,57.76,59.71,0
58,57.77,59.69,0
57,57.75,59.66,0
57,57.74,59.64,0
56,57.70,59.60,0
57,57.69,59.57,0
57,57.67,59.55,0
56,57.64,59.51,0
55,57.59,59.47,0
56,57.56,59.43,0
57,57.55,59.41,0
57,57.53,59.38,0
59,57.56,59.38,0
57,57.55,59.36,0
56,57.52,59.32,0
58,57.53,59.31,0
57,57.52,59.29,0
56,57.49,59.25,0
57,57.48,59.23,0
57,57.47,59.21,0
58,57.48,59.20,0
56,57.45,59.16,0
56,57.42,59.13,0
56,57.39,59.10,0
56,57.37,59.07,0
56,57.34,59.04,0
56,57.31,59.01,0
56,57.29,58.98,0
56,57.26,58.95,0
56,57.23,58.92,0
56,57.21,58.89,0
57,57.21,58.87,0
56,57.18,58.84,0
56,57.16,58.81,0
54,57.10,58.77,0
56,57.07,58.74,0
56,57.05,58.71,0
55,57.01,58.67,0
54,56.95,58.63,0
56,56.93,58.60,0
55,56.89,58.57,0
54,56.83,58.52,0
54,56.78,58.47,0
55,56.74,58.44,0
55,56.71,58.41,0
54,56.65,58.36,0
54,56.60,58.32,0
55,56.57,58.28,0
55,56.54,58.25,0
54,56.49,58.21,0
56,56.48,58.19,0
55,56.45,58.16,0
54,56.40,58.11,0
54,56.35,58.07,0
54,56.30,58.03,0
54,56.26,57.99,0
54,56.21,57.95,0
54,56.17,57.91,0
56,56.16,57.89,0
55,56.14,57.86,0
54,56.10,57.83,0
54,56.06,57.79,0
54,56.02,57.75,0
54,55.97,57.71,0
54,55.94,57.67,0
54,55.90,57.64,0
54,55.86,57.60,0
54,55.82,57.57,0
54,55.79,57.53,0
54,55.75,57.49,0
54,55.71,57.46,0
54,55.68,57.43,0
54,55.65,57.39,0
54,55.61,57.36,0
54,55.58,57.32,0
55,55.57,57.30,0
54,55.54,57.27,0
54,55.51,57.23,0
54,55.48,57.20,0
54,55.45,57.17,0
54,55.42,57.14,0
54,55.39,57.11,0
54,55.36,57.08,0
53,55.32,57.04,0
54,55.29,57.00,0
54,55.26,56.97,0
53,55.22,56.94,0
54,55.19,56.91,0
55,55.19,56.89,0
54,55.17,56.86,0
54,55.14,56.83,0
55,55.14,56.81,0
56,55.16,56.80,0
53,55.11,56.76,0
54,55.09,56.74,0
53,55.05,56.70,0
53,55.01,56.66,0
52,54.95,56.62,0
53,54.91,56.58,0
53,54.87,56.54,0
53,54.83,56.51,0
52,54.78,56.46,0
54,54.76,56.44,0
52,54.71,56.39,0
54,54.69,56.37,0
52,54.64,56.33,0
53,54.61,56.29,0
56,54.63,56.29,0
54,54.62,56.27,0
52,54.57,56.23,0
52,54.52,56.18,0
53,54.49,56.15,0
53,54.46,56.12,0
52,54.41,56.08,0
53,54.38,56.05,0
56,54.41,56.05,0
51,54.34,56.00,0
52,54.30,55.96,0
53,54.27,55.93,0
53,54.25,55.90,0
51,54.18,55.85,0
52,54.14,55.81,0
52,54.09,55.77,0
49,53.99,55.70,0
51,53.93,55.66,0
50,53.85,55.60,0
50,53.78,55.54,0
54,53.78,55.53,0
52,53.75,55.49,0
51,53.69,55.45,0
50,53.62,55.39,0
52,53.58,55.36,0
51,53.53,55.32,0
52,53.50,55.28,0
50,53.43,55.23,0
51,53.38,55.19,0
51,53.34,55.15,0
50,53.27,55.10,0
50,53.20,55.04,0
52,53.18,55.01,0
50,53.12,54.96,0
50,53.05,54.91,0
51,53.01,54.88,0
51,52.97,54.84,0
50,52.91,54.79,0
52,52.89,54.76,0
51,52.86,54.72,0
51,52.82,54.69,0
50,52.76,54.64,0
50,52.71,54.59,0
50,52.65,54.55,0
50,52.60,54.50,0
50,52.55,54.46,0
50,52.50,54.41,0
50,52.45,54.37,0
50,52.40,54.32,0
50,52.35,54.28,0
50,52.30,54.24,0
51,52.28,54.20,0
50,52.23,54.16,0
50,52.19,54.12,0
50,52.14,54.08,0
50,52.10,54.04,0
49,52.04,53.99,0
52,52.04,53.97,0
50,52.00,53.93,0
50,51.96,53.89,0
50,51.92,53.85,0
50,51.88,53.81,0
49,51.82,53.76,0
49,51.77,53.72,0
49,51.71,53.67,0
49,51.66,53.62,0
49,51.60,53.58,0
48,51.53,53.52,0
48,51.46,53.47,0
49,51.41,53.42,0
48,51.34,53.37,0
49,51.30,53.32,0
48,51.23,53.27,0
49,51.19,53.23,0
49,51.14,53.19,0
48,51.08,53.13,0
50,51.06,53.10,0
52,51.08,53.09,0
49,51.04,53.05,0
49,50.99,53.01,0
50,50.97,52.98,0
49,50.93,52.94,0
49,50.90,52.90,0
49,50.86,52.86,0
49,50.82,52.82,0
49,50.78,52.78,0
50,50.77,52.76,0
49,50.73,52.72,0
49,50.70,52.68,0
49,50.67,52.64,0
48,50.61,52.60,0
49,50.58,52.56,0
49,50.55,52.53,0
48,50.50,52.48,0
49,50.47,52.45,0
48,50.42,52.40,0
48,50.37,52.36,0
48,50.32,52.31,0
48,50.28,52.27,0
48,50.23,52.23,0
49,50.21,52.20,0
48,50.16,52.15,0
48,50.12,52.11,0
48,50.08,52.07,0
48,50.03,52.03,0
48,49.99,51.99,0
48,49.95,51.95,0
52,49.99,51.95,0
48,49.95,51.91,0
48,49.92,51.87,0
48,49.88,51.83,0
46,49.80,51.78,0
47,49.74,51.73,0
48,49.71,51.69,0
48,49.67,51.65,0
47,49.62,51.61,0
47,49.57,51.56,0
48,49.54,51.53,0
47,49.49,51.48,0
46,49.42,51.43,0
47,49.37,51.38,0
46,49.30,51.33,0
48,49.28,51.29,0
52,49.33,51.30,0
47,49.28,51.26,0
48,49.26,51.23,0
47,49.21,51.18,0
47,49.17,51.14,0
48,49.14,51.11,0
46,49.08,51.06,0
46,49.02,51.01,0
44,48.92,50.94,0
47,48.88,50.90,0
50,48.90,50.89,0
46,48.85,50.84,0
46,48.79,50.79,0
48,48.77,50.76,0
46,48.72,50.72,0
46,48.66,50.67,0
44,48.57,50.60,0
46,48.52,50.56,0
46,48.47,50.51,0
46,48.42,50.47,0
47,48.39,50.43,0
46,48.34,50.39,0
46,48.30,50.34,0
46,48.25,50.30,0
46,48.20,50.26,0
45,48.14,50.20,0
45,48.08,50.15,0
46,48.04,50.11,0
45,47.98,50.06,0
45,47.92,50.01,0
46,47.88,49.97,0
46,47.84,49.93,0
46,47.80,49.89,0
45,47.75,49.84,0
46,47.71,49.80,0
46,47.68,49.76,0
46,47.64,49.73,0
45,47.59,49.68,0
46,47.56,49.64,0
46,47.53,49.61,0
46,47.50,49.57,0
47,47.49,49.55,0
47,47.48,49.52,0
46,47.45,49.48,0
46,47.42,49.45,0
48,47.43,49.44,0
48,47.44,49.42,0
47,47.43,49.40,0
47,47.43,49.37,0
47,47.42,49.35,0
47,47.41,49.33,0
46,47.38,49.29,0
46,47.35,49.26,0
47,47.35,49.24,0
47,47.34,49.21,0
46,47.31,49.18,0
47,47.31,49.16,0
47,47.30,49.14,0
46,47.27,49.11,0
46,47.25,49.08,0
46,47.22,49.05,0
47,47.22,49.02,0
46,47.19,48.99,0
46,47.17,48.96,0
46,47.15,48.94,0
47,47.14,48.92,0
47,47.14,48.90,0
46,47.12,48.87,0
47,47.12,48.85,0
47,47.11,48.83,0
46,47.09,48.80,0
46,47.07,48.77,0
46,47.05,48.75,0
46,47.03,48.72,0
47,47.03,48.70,0
46,47.01,48.67,0
47,47.01,48.66,0
47,47.01,48.64,0
46,46.99,48.61,0
47,46.99,48.60,0
46,46.97,48.57,0
46,46.95,48.55,0
47,46.95,48.53,0
46,46.93,48.51,0
47,46.93,48.49,0
47,46.93,48.48,0
46,46.91,48.45,0
46,46.89,48.43,0
46,46.88,48.40,0
47,46.88,48.39,0
46,46.86,48.36,0
50,46.92,48.38,0
46,46.91,48.36,0
47,46.91,48.34,0
46,46.89,48.32,0
46,46.87,48.30,0
46,46.85,48.27,0
47,46.86,48.26,0
48,46.88,48.26,0
47,46.88,48.25,0
46,46.87,48.22,0
46,46.85,48.20,0
46,46.83,48.18,0
46,46.81,48.16,0
46,46.80,48.14,0
46,46.78,48.11,0
46,46.77,48.09,0
50,46.83,48.11,0
46,46.81,48.09,0
47,46.82,48.08,0
46,46.80,48.06,0
46,46.79,48.04,0
47,46.79,48.03,0
46,46.77,48.01,0
47,46.78,48.00,0
50,46.84,48.02,0
46,46.83,48.00,0
47,46.83,47.99,0
48,46.85,47.99,0
46,46.84,47.97,0
46,46.82,47.95,0
47,46.82,47.94,0
46,46.81,47.92,0
46,46.79,47.90,0
46,46.77,47.88,0
45,46.74,47.85,0
46,46.72,47.83,0
46,46.71,47.82,0
46,46.70,47.80,0
46,46.68,47.78,0
46,46.67,47.76,0
43,46.59,47.71,0
46,46.58,47.70,0
46,46.57,47.68,0
46,46.56,47.66,0
46,46.55,47.65,0
46,46.54,47.63,0
46,46.53,47.61,0
46,46.52,47.60,0
46,46.51,47.58,0
46,46.50,47.57,0
47,46.51,47.56,0
46,46.50,47.55,0
47,46.51,47.54,0
46,46.50,47.52,0
46,46.49,47.51,0
46,46.48,47.49,0
46,46.47,47.48,0
47,46.48,47.47,0
48,46.51,47.48,0
48,46.54,47.48,0
46,46.53,47.47,0
47,46.54,47.47,0
47,46.55,47.46,0
46,46.53,47.45,0
46,46.52,47.43,0
47,46.53,47.43,0
47,46.54,47.42,0
46,46.53,47.41,0
46,46.52,47.39,0
47,46.53,47.39,0
47,46.54,47.39,0
47,46.55,47.38,0
46,46.54,47.37,0
47,46.55,47.37,0
47,46.56,47.36,0
47,46.57,47.36,0
46,46.55,47.34,0
47,46.56,47.34,0
46,46.55,47.33,0
47,46.56,47.32,0
46,46.55,47.31,0
47,46.56,47.31,0
46,46.55,47.29,0
46,46.54,47.28,0
46,46.53,47.27,0
47,46.54,47.27,0
46,46.52,47.25,0
47,46.53,47.25,0
46,46.52,47.24,0
47,46.53,47.24,0
46,46.52,47.22,0
46,46.51,47.21,0
46,46.50,47.20,0
46,46.49,47.19,0
47,46.50,47.19,0
48,46.53,47.19,0
47,46.54,47.19,0
47,46.55,47.19,0
48,46.58,47.20,0
47,46.59,47.20,0
46,46.58,47.18,0
47,46.58,47.18,0
48,46.61,47.19,0
49,46.66,47.21,0
46,46.65,47.20,0
46,46.63,47.18,0
47,46.64,47.18,0
46,46.63,47.17,0
46,46.62,47.16,0
46,46.60,47.15,0
47,46.61,47.15,0
47,46.62,47.14,0
46,46.61,47.13,0
46,46.60,47.12,0
48,46.62,47.13,0
46,46.61,47.12,0
46,46.60,47.11,0
46,46.59,47.10,0
48,46.61,47.11,0
48,46.64,47.11,0
46,46.63,47.10,0
46,46.62,47.09,0
48,46.64,47.10,0
47,46.65,47.10,0
46,46.64,47.09,0
47,46.65,47.09,0
47,46.65,47.09,0
47,46.66,47.09,0
46,46.65,47.08,0
47,46.65,47.08,0
47,46.66,47.07,0
47,46.67,47.07,0
46,46.65,47.06,0
47,46.66,47.06,0
47,46.67,47.06,0
47,46.67,47.06,0
46,46.66,47.05,0
47,46.67,47.05,0
47,46.67,47.05,0
52,46.78,47.10,0
46,46.77,47.09,0
47,46.77,47.09,0
47,46.77,47.09,0
48,46.80,47.10,0
47,46.80,47.09,0
46,46.79,47.08,0
47,46.79,47.08,0
47,46.80,47.08,0
49,46.84,47.10,0
47,46.84,47.10,0
49,46.89,47.12,0
49,46.93,47.14,0
48,46.95,47.15,0
49,46.99,47.17,0
48,47.01,47.17,0
48,47.03,47.18,0
48,47.05,47.19,0
47,47.05,47.19,0
48,47.07,47.20,0
49,47.11,47.21,0
47,47.10,47.21,0
47,47.10,47.21,0
48,47.12,47.22,0
48,47.14,47.23,0
48,47.16,47.23,0
47,47.15,47.23,0
48,47.17,47.24,0
48,47.19,47.25,0
48,47.20,47.25,0
48,47.22,47.26,0
48,47.23,47.27,0
49,47.27,47.29,0
48,47.28,47.29,0
47,47.28,47.29,0
48,47.29,47.30,0
48,47.31,47.30,0
48,47.32,47.31,0
48,47.33,47.32,0
49,47.37,47.34,0
47,47.36,47.33,0
47,47.35,47.33,0
47,47.35,47.33,0
47,47.34,47.32,0
48,47.35,47.33,0
48,47.36,47.34,0
47,47.36,47.33,0
48,47.37,47.34,0
48,47.38,47.35,0
48,47.40,47.35,0
47,47.39,47.35,0
48,47.40,47.35,0
48,47.41,47.36,0
48,47.42,47.37,0
47,47.42,47.36,0
47,47.41,47.36,0
47,47.40,47.36,0
47,47.39,47.35,0
46,47.36,47.34,0
47,47.36,47.34,0
47,47.35,47.33,0
46,47.32,47.32,0
47,47.32,47.32,0
48,47.33,47.32,0
48,47.34,47.33,0
48,47.36,47.34,0
48,47.37,47.34,0
48,47.38,47.35,0
48,47.39,47.36,0
48,47.41,47.36,0
50,47.46,47.39,0
49,47.49,47.41,0
48,47.50,47.41,0
48,47.51,47.42,0
48,47.52,47.42,0
49,47.55,47.44,0
48,47.56,47.44,0
48,47.57,47.45,0
47,47.55,47.45,0
48,47.56,47.45,0
48,47.57,47.46,0
48,47.58,47.46,0
47,47.57,47.46,0
48,47.58,47.46,0
48,47.59,47.47,0
48,47.59,47.47,0
48,47.60,47.48,0
49,47.63,47.49,0
50,47.68,47.52,0
49,47.70,47.53,0
50,47.75,47.56,0
48,47.76,47.56,0
50,47.80,47.59,0
48,47.80,47.59,0
49,47.83,47.61,0
48,47.83,47.61,0
48,47.83,47.61,0
50,47.88,47.64,0
47,47.86,47.63,0
48,47.86,47.63,0
48,47.87,47.64,0
48,47.87,47.64,0
48,47.87,47.65,0
48,47.87,47.65,0
48,47.88,47.65,0
48,47.88,47.66,0
47,47.86,47.65,0
48,47.86,47.65,0
49,47.89,47.67,0
48,47.89,47.67,0
47,47.87,47.66,0
48,47.87,47.67,0
49,47.90,47.68,0
48,47.90,47.68,0
48,47.90,47.69,0
51,47.96,47.72,0
48,47.96,47.72,0
48,47.96,47.72,0
48,47.96,47.73,0
49,47.99,47.74,0
48,47.99,47.74,0
48,47.99,47.75,0
48,47.99,47.75,0
52,48.07,47.79,0
50,48.11,47.81,0
48,48.10,47.81,0
47,48.08,47.81,0
48,48.08,47.81,0
49,48.10,47.82,0
48,48.10,47.82,0
47,48.07,47.81,0
48,48.07,47.82,0
48,48.07,47.82,0
47,48.05,47.81,0
46,48.01,47.79,0
48,48.01,47.79,0
48,48.01,47.80,0
48,48.01,47.80,0
46,47.97,47.78,0
48,47.97,47.78,0
48,47.97,47.78,0
48,47.97,47.79,0
47,47.95,47.78,0
48,47.95,47.78,0
48,47.95,47.78,0
48,47.95,47.78,0
47,47.93,47.78,0
48,47.94,47.78,0
48,47.94,47.78,0
48,47.94,47.78,0
46,47.90,47.77,0
48,47.90,47.77,0
48,47.90,47.77,0
48,47.91,47.77,0
47,47.89,47.76,0
48,47.89,47.77,0
48,47.89,47.77,0
46,47.85,47.75,0
46,47.82,47.73,0
49,47.84,47.75,0
49,47.86,47.76,0
48,47.87,47.76,0
47,47.85,47.75,0
48,47.85,47.76,0
48,47.86,47.76,0
47,47.84,47.75,0
47,47.82,47.74,0
48,47.82,47.75,0
51,47.89,47.78,0
48,47.89,47.78,0
49,47.91,47.79,0
48,47.91,47.80,0
50,47.96,47.82,0
48,47.96,47.82,0
50,48.00,47.84,0
48,48.00,47.84,0
48,48.00,47.84,0
48,48.00,47.85,0
47,47.98,47.84,0
49,48.00,47.85,0
50,48.04,47.87,0
48,48.04,47.87,0
50,48.08,47.89,0
50,48.12,47.91,0
49,48.13,47.93,0
50,48.17,47.95,0
50,48.21,47.97,0
51,48.26,48.00,0
52,48.34,48.04,0
50,48.37,48.06,0
50,48.40,48.08,0
51,48.46,48.11,0
50,48.49,48.12,0
51,48.54,48.15,0
50,48.57,48.17,0
52,48.63,48.21,0
53,48.72,48.26,0
52,48.79,48.29,0
52,48.85,48.33,0
53,48.93,48.38,0
52,49.00,48.41,0
51,49.04,48.44,0
52,49.10,48.48,0
52,49.15,48.51,0
52,49.21,48.55,0
52,49.27,48.58,0
52,49.32,48.62,0
52,49.37,48.65,0
52,49.43,48.68,0
52,49.48,48.72,0
52,49.53,48.75,0
52,49.58,48.78,0
52,49.63,48.81,0
51,49.65,48.84,0
52,49.70,48.87,0
54,49.79,48.92,0
52,49.83,48.95,0
52,49.87,48.98,0
51,49.90,49.00,0
53,49.96,49.04,0
52,50.00,49.07,0
52,50.04,49.10,0
52,50.08,49.13,0
52,50.12,49.16,0
53,50.18,49.19,0
53,50.23,49.23,0
52,50.27,49.26,0
53,50.32,49.30,0
55,50.42,49.35,0
54,50.49,49.40,0
54,50.56,49.45,0
54,50.63,49.49,0
54,50.69,49.54,0
54,50.76,49.58,0
54,50.82,49.63,0
54,50.89,49.67,0
54,50.95,49.71,0
54,51.01,49.76,0
58,51.15,49.84,0
54,51.21,49.88,0
54,51.26,49.92,0
54,51.32,49.96,0
54,51.37,50.00,0
54,51.42,50.04,0
54,51.48,50.08,0
53,51.51,50.11,0
52,51.52,50.13,0
54,51.57,50.17,0
56,51.66,50.23,0
54,51.70,50.27,0
54,51.75,50.30,0
54,51.79,50.34,0
54,51.84,50.38,0
53,51.86,50.40,0
52,51.86,50.42,0
56,51.95,50.47,0
55,52.01,50.52,0
56,52.09,50.57,0
55,52.15,50.62,0
55,52.20,50.66,0
56,52.28,50.72,0
56,52.35,50.77,0
55,52.41,50.81,0
56,52.48,50.86,0
57,52.57,50.92,0
56,52.64,50.98,0
58,52.74,51.05,0
59,52.87,51.12,0
57,52.95,51.18,0
57,53.03,51.24,0
57,53.11,51.30,0
57,53.19,51.36,0
57,53.27,51.41,0
56,53.32,51.46,0
57,53.39,51.51,0
58,53.49,51.58,0
58,53.58,51.64,0
57,53.64,51.70,0
58,53.73,51.76,0
60,53.86,51.84,0
58,53.94,51.90,0
58,54.02,51.96,0
58,54.10,52.03,0
57,54.16,52.07,0
58,54.24,52.13,0
58,54.31,52.19,0
60,54.42,52.27,0
60,54.54,52.35,0
60,54.65,52.42,0
60,54.75,52.50,0
60,54.86,52.58,0
62,55.00,52.67,0
63,55.16,52.77,0
64,55.34,52.89,0
64,55.51,53.00,0
65,55.70,53.12,0
64,55.87,53.23,0
63,56.01,53.32,0
64,56.17,53.43,0
64,56.33,53.54,0
65,56.50,53.65,0
64,56.65,53.75,0
64,56.80,53.86,0
66,56.98,53.98,0
66,57.16,54.10,0
68,57.38,54.24,0
68,57.59,54.37,0
68,57.80,54.51,0
67,57.98,54.64,0
67,58.16,54.76,0
68,58.36,54.89,0
67,58.53,55.01,0
68,58.72,55.14,0
68,58.91,55.27,0
70,59.13,55.42,0
70,59.35,55.56,0
70,59.56,55.71,0
70,59.77,55.85,0
70,59.97,55.99,0
71,60.19,56.14,0
71,60.41,56.29,0
72,60.64,56.45,0
72,60.87,56.60,0
72,61.09,56.76,0
72,61.31,56.91,0
72,61.52,57.06,0
72,61.73,57.21,0
73,61.96,57.37,0
74,62.20,57.54,0
74,62.43,57.70,0
74,62.67,57.86,0
74,62.89,58.02,0
74,63.11,58.18,0
74,63.33,58.34,0
75,63.57,58.51,0
76,63.81,58.68,0
76,64.06,58.86,0
74,64.26,59.01,0
75,64.47,59.17,0
77,64.72,59.35,0
79,65.01,59.54,0
76,65.23,59.71,0
76,65.44,59.87,0
76,65.65,60.03,0
76,65.86,60.19,0
79,66.12,60.38,0
78,66.36,60.56,0
78,66.59,60.73,0
78,66.82,60.90,0
78,67.05,61.07,0
78,67.27,61.24,0
81,67.54,61.44,0
78,67.75,61.61,0
82,68.03,61.81,0
79,68.25,61.98,0
79,68.47,62.15,0
79,68.68,62.32,0
78,68.87,62.48,0
79,69.07,62.64,0
79,69.27,62.81,0
79,69.46,62.97,0
79,69.65,63.13,0
80,69.86,63.30,0
81,70.08,63.47,0
82,70.32,63.66,0
82,70.55,63.84,0
82,70.78,64.02,0
85,71.07,64.23,0
85,71.35,64.44,0
82,71.56,64.62,0
84,71.81,64.81,0
85,72.07,65.01,0
84,72.31,65.20,0
84,72.54,65.39,0
84,72.77,65.58,0
85,73.02,65.77,0
84,73.24,65.95,0
84,73.45,66.13,0
84,73.66,66.31,0
85,73.89,66.50,0
85,74.11,66.68,0
84,74.31,66.86,0
85,74.52,67.04,0
86,74.75,67.23,0
86,74.98,67.42,0
86,75.20,67.60,0
86,75.41,67.79,0
86,75.63,67.97,0
86,75.83,68.15,0
86,76.04,68.33,0
86,76.24,68.50,0
86,76.43,68.68,0
86,76.62,68.85,0
86,76.81,69.02,0
86,76.99,69.19,0
86,77.17,69.36,0
84,77.31,69.51,0
84,77.44,69.65,0
84,77.58,69.80,0
85,77.72,69.95,0
85,77.87,70.10,0
84,77.99,70.24,0
86,78.15,70.40,0
85,78.29,70.54,0
85,78.42,70.69,0
84,78.54,70.82,0
85,78.66,70.96,0
86,78.81,71.11,0
84,78.92,71.24,0
85,79.04,71.38,0
85,79.16,71.51,0
85,79.27,71.65,0
86,79.41,71.79,0
84,79.50,71.91,0
85,79.61,72.05,0
85,79.72,72.17,0
84,79.80,72.29,0
84,79.89,72.41,0
85,79.99,72.54,0
85,80.09,72.66,0
85,80.19,72.78,0
86,80.30,72.92,0
85,80.40,73.04,0
87,80.53,73.18,0
86,80.64,73.31,0
84,80.71,73.41,0
84,80.77,73.52,0
84,80.84,73.62,0
84,80.90,73.73,0
84,80.96,73.83,0
84,81.02,73.93,0
84,81.08,74.03,0
86,81.18,74.15,0
84,81.24,74.25,0
84,81.29,74.35,0
85,81.37,74.45,0
85,81.44,74.56,0
84,81.49,74.65,0
83,81.52,74.74,0
84,81.57,74.83,0
84,81.62,74.92,0
84,81.67,75.01,0
83,81.69,75.09,0
83,81.72,75.17,0
84,81.76,75.26,0
84,81.81,75.35,0
84,81.85,75.43,0
84,81.90,75.52,0
83,81.92,75.59,0
82,81.92,75.66,0
82,81.92,75.72,0
84,81.96,75.80,0
82,81.96,75.87,0
82,81.96,75.93,0
82,81.97,75.99,0
83,81.99,76.06,0
82,81.99,76.12,0
82,81.99,76.18,0
82,81.99,76.23,0
83,82.01,76.30,0
82,82.01,76.36,0
82,82.01,76.42,0
82,82.01,76.47,0
84,82.05,76.55,0
82,82.05,76.60,0
82,82.04,76.66,0
82,82.04,76.71,0
82,82.04,76.76,0
84,82.08,76.83,0
82,82.08,76.89,0
82,82.08,76.94,0
81,82.06,76.98,0
82,82.06,77.03,0
82,82.06,77.08,0
82,82.05,77.13,0
81,82.03,77.17,0
81,82.01,77.20,0
80,81.97,77.23,0
82,81.97,77.28,0
81,81.95,77.32,0
80,81.91,77.34,0
80,81.88,77.37,0
80,81.84,77.40,0
80,81.80,77.42,0
79,81.75,77.44,0
81,81.73,77.47,0
79,81.68,77.49,0
80,81.64,77.51,0
80,81.61,77.54,0
79,81.56,77.55,0
79,81.51,77.57,0
80,81.48,77.59,0
80,81.45,77.62,0
81,81.44,77.65,0
79,81.39,77.66,0
82,81.40,77.71,0
79,81.35,77.72,0
78,81.29,77.72,0
79,81.24,77.74,0
80,81.22,77.76,0
79,81.17,77.77,0
79,81.13,77.78,0
79,81.09,77.80,0
79,81.04,77.81,0
79,81.00,77.82,0
78,80.94,77.82,0
78,80.88,77.82,0
79,80.85,77.83,0
78,80.79,77.84,0
78,80.73,77.84,0
79,80.70,77.85,0
78,80.64,77.85,0
79,80.61,77.86,0
78,80.56,77.86,0
79,80.53,77.88,0
78,80.48,77.88,0
79,80.45,77.89,0
78,80.40,77.89,0
78,80.35,77.89,0
78,80.30,77.89,0
77,80.24,77.88,0
78,80.19,77.88,0
78,80.15,77.88,0
80,80.15,77.91,0
78,80.10,77.91,0
78,80.06,77.91,0
78,80.02,77.91,0
77,79.96,77.90,0
78,79.92,77.90,0
78,79.88,77.90,0
78,79.84,77.90,0
77,79.79,77.89,0
78,79.75,77.89,0
78,79.72,77.90,0
78,79.68,77.90,0
78,79.65,77.90,0
78,79.62,77.90,0
78,79.58,77.90,0
78,79.55,77.90,0
77,79.50,77.89,0
77,79.45,77.88,0
76,79.38,77.86,0
77,79.33,77.86,0
77,79.29,77.85,0
76,79.22,77.83,0
76,79.16,77.81,0
76,79.09,77.79,0
77,79.05,77.78,0
76,78.99,77.77,0
76,78.93,77.75,0
76,78.87,77.73,0
76,78.82,77.71,0
75,78.74,77.69,0
76,78.68,77.67,0
76,78.63,77.65,0
75,78.56,77.63,0
74,78.47,77.59,0
76,78.42,77.57,0
74,78.33,77.54,0
75,78.26,77.51,0
74,78.18,77.48,0
76,78.13,77.46,0
74,78.05,77.43,0
75,77.99,77.40,0
76,77.95,77.39,0
74,77.87,77.36,0
75,77.81,77.33,0
76,77.78,77.32,0
74,77.70,77.29,0
74,77.63,77.25,0
74,77.56,77.22,0
74,77.48,77.19,0
75,77.43,77.17,0
74,77.37,77.14,0
75,77.32,77.11,0
75,77.27,77.09,0
74,77.21,77.06,0
74,77.14,77.03,0
73,77.06,76.99,0
74,77.00,76.96,0
74,76.94,76.93,0
74,76.88,76.90,0
73,76.80,76.86,0
73,76.73,76.82,0
73,76.65,76.79,0
73,76.58,76.75,0
73,76.51,76.71,0
75,76.48,76.69,0
73,76.41,76.66,0
74,76.36,76.63,0
73,76.29,76.59,0
71,76.19,76.54,0
73,76.12,76.50,0
72,76.04,76.46,0
73,75.98,76.42,0
74,75.94,76.40,0
73,75.88,76.36,0
72,75.80,76.32,0
72,75.73,76.28,0
70,75.61,76.22,0
72,75.54,76.17,0
72,75.47,76.13,0
70,75.36,76.07,0
73,75.31,76.04,0
71,75.23,75.99,0
71,75.14,75.94,0
70,75.04,75.88,0
72,74.98,75.84,0
71,74.90,75.79,0
70,74.80,75.73,0
70,74.71,75.68,0
71,74.63,75.63,0
70,74.54,75.57,0
70,74.45,75.52,0
70,74.36,75.46,0
71,74.29,75.42,0
70,74.21,75.36,0
70,74.12,75.31,0
70,74.04,75.26,0
71,73.98,75.21,0
70,73.90,75.16,0
70,73.82,75.11,0
70,73.74,75.06,0
72,73.71,75.03,0
70,73.64,74.98,0
70,73.56,74.93,0
70,73.49,74.88,0
71,73.44,74.84,0
70,73.37,74.79,0
70,73.31,74.74,0
70,73.24,74.70,0
70,73.17,74.65,0
70,73.11,74.60,0
70,73.05,74.56,0
70,72.99,74.51,0
70,72.93,74.47,0
70,72.87,74.42,0
70,72.81,74.38,0
70,72.76,74.33,0
70,72.70,74.29,0
70,72.65,74.25,0
70,72.59,74.21,0
70,72.54,74.16,0
70,72.49,74.12,0
70,72.44,74.08,0
70,72.39,74.04,0
70,72.34,74.00,0
70,72.30,73.96,0
69,72.23,73.91,0
70,72.19,73.87,0
69,72.12,73.82,0
69,72.06,73.77,0
68,71.98,73.72,0
69,71.92,73.67,0
68,71.84,73.61,0
68,71.76,73.56,0
71,71.75,73.53,0
68,71.67,73.48,0
68,71.60,73.42,0
67,71.51,73.36,0
68,71.44,73.30,0
68,71.37,73.25,0
68,71.30,73.20,0
67,71.22,73.14,0
68,71.15,73.08,0
68,71.09,73.03,0
68,71.03,72.98,0
67,70.95,72.92,0
68,70.89,72.87,0
68,70.83,72.83,0
67,70.75,72.77,0
66,70.66,72.70,0
68,70.61,72.65,0
66,70.51,72.59,0
67,70.44,72.53,0
67,70.37,72.47,0
67,70.31,72.42,0
66,70.22,72.36,0
66,70.14,72.29,0
65,70.03,72.22,0
67,69.97,72.17,0
66,69.89,72.11,0
66,69.82,72.04,0
68,69.78,72.00,0
66,69.70,71.94,0
66,69.63,71.88,0
66,69.56,71.83,0
67,69.51,71.78,0
66,69.44,71.72,0
66,69.37,71.66,0
66,69.30,71.61,0
65,69.21,71.54,0
65,69.13,71.47,0
66,69.07,71.42,0
66,69.01,71.37,0
65,68.93,71.30,0
65,68.85,71.24,0
64,68.75,71.17,0
65,68.67,71.10,0
65,68.60,71.04,0
65,68.53,70.98,0
64,68.44,70.91,0
64,68.35,70.84,0
65,68.28,70.79,0
64,68.20,70.72,0
64,68.11,70.65,0
63,68.01,70.57,0
65,67.95,70.52,0
64,67.87,70.45,0
64,67.79,70.39,0
64,67.72,70.32,0
64,67.64,70.26,0
64,67.57,70.20,0
64,67.50,70.14,0
63,67.41,70.07,0
64,67.34,70.00,0
64,67.27,69.94,0
64,67.21,69.89,0
64,67.15,69.83,0
64,67.08,69.77,0
62,66.98,69.69,0
63,66.90,69.62,0
64,66.84,69.57,0
63,66.77,69.50,0
63,66.69,69.44,0
64,66.64,69.38,0
63,66.56,69.32,0
62,66.47,69.25,0
64,66.42,69.19,0
64,66.38,69.14,0
64,66.33,69.09,0
63,66.26,69.03,0
64,66.22,68.98,0
64,66.17,68.93,0
64,66.13,68.88,0
64,66.09,68.83,0
63,66.02,68.77,0
64,65.98,68.72,0
64,65.94,68.68,0
65,65.92,68.64,0
64,65.89,68.59,0
64,65.85,68.55,0
64,65.81,68.50,0
64,65.78,68.46,0
65,65.76,68.42,0
64,65.72,68.38,0
64,65.69,68.34,0
66,65.70,68.31,0
62,65.62,68.25,0
63,65.57,68.20,0
64,65.54,68.15,0
64,65.51,68.11,0
62,65.44,68.05,0
64,65.41,68.01,0
63,65.36,67.96,0
64,65.33,67.92,0
63,65.29,67.87,0
64,65.26,67.83,0
63,65.22,67.78,0
64,65.19,67.75,0
63,65.15,67.70,0
62,65.08,67.64,0
62,65.02,67.59,0
64,65.00,67.55,0
62,64.94,67.49,0
63,64.90,67.45,0
62,64.85,67.40,0
63,64.81,67.35,0
62,64.75,67.30,0
62,64.70,67.24,0
62,64.64,67.19,0
63,64.61,67.15,0
62,64.56,67.10,0
62,64.51,67.05,0
62,64.46,67.00,0
62,64.41,66.95,0
62,64.36,66.90,0
62,64.31,66.85,0
62,64.27,66.80,0
62,64.22,66.75,0
61,64.16,66.70,0
62,64.11,66.65,0
61,64.05,66.59,0
61,63.99,66.54,0
61,63.93,66.48,0
61,63.87,66.43,0
62,63.83,66.38,0
62,63.80,66.34,0
61,63.74,66.28,0
62,63.71,66.24,0
60,63.63,66.18,0
61,63.58,66.13,0
61,63.53,66.08,0
60,63.46,66.02,0
61,63.41,65.97,0
61,63.36,65.92,0
60,63.29,65.86,0
61,63.25,65.81,0
61,63.20,65.76,0
61,63.16,65.71,0
62,63.14,65.67,0
60,63.07,65.62,0
62,63.05,65.58,0
61,63.01,65.54,0
61,62.97,65.49,0
60,62.91,65.44,0
61,62.87,65.39,0
60,62.81,65.34,0
61,62.78,65.29,0
62,62.76,65.26,0
61,62.73,65.22,0
61,62.69,65.18,0
62,62.68,65.14,0
60,62.63,65.09,0
61,62.59,65.05,0
62,62.58,65.02,0
61,62.55,64.98,0
60,62.50,64.93,0
60,62.45,64.88,0
62,62.44,64.85,0
60,62.39,64.81,0
62,62.38,64.78,0
60,62.34,64.73,0
60,62.29,64.68,0
60,62.24,64.64,0
60,62.20,64.59,0
60,62.15,64.54,0
62,62.15,64.52,0
60,62.11,64.47,0
60,62.07,64.43,0
60,62.02,64.38,0
60,61.98,64.34,0
60,61.94,64.30,0
60,61.91,64.25,0
60,61.87,64.21,0
60,61.83,64.17,0
60,61.79,64.13,0
56,61.68,64.05,0
59,61.62,64.00,0
60,61.59,63.96,0
61,61.58,63.93,0
59,61.53,63.88,0
58,61.46,63.82,0
60,61.43,63.78,0
60,61.40,63.74,0
59,61.35,63.69,0
58,61.28,63.64,0
60,61.26,63.60,0
59,61.21,63.55,0
58,61.15,63.50,0
60,61.13,63.46,0
59,61.08,63.42,0
60,61.06,63.39,0
58,61.00,63.33,0
58,60.94,63.28,0
60,60.92,63.25,0
59,60.88,63.20,0
58,60.83,63.15,0
59,60.79,63.11,0
59,60.75,63.07,0
59,60.72,63.03,0
58,60.66,62.98,0
60,60.65,62.95,0
59,60.62,62.91,0
58,60.57,62.86,0
58,60.51,62.81,0
59,60.48,62.77,0
59,60.45,62.73,0
58,60.41,62.69,0
58,60.36,62.64,0
60,60.35,62.61,0
58,60.30,62.57,0
58,60.26,62.52,0
58,60.21,62.48,0
58,60.17,62.43,0
58,60.12,62.39,0
58,60.08,62.34,0
58,60.04,62.30,0
58,60.00,62.26,0
58,59.96,62.22,0
58,59.92,62.17,0
58,59.88,62.13,0
57,59.82,62.08,0
58,59.79,62.04,0
58,59.75,62.00,0
58,59.72,61.96,0
57,59.66,61.91,0
58,59.63,61.87,0
58,59.60,61.83,0
58,59.56,61.79,0
58,59.53,61.76,0
58,59.50,61.72,0
57,59.45,61.67,0
56,59.38,61.61,0
57,59.34,61.57,0
57,59.29,61.52,0
58,59.26,61.49,0
58,59.24,61.45,0
57,59.19,61.41,0
58,59.17,61.37,0
57,59.13,61.33,0
57,59.08,61.29,0
58,59.06,61.25,0
58,59.04,61.22,0
58,59.02,61.19,0
58,59.00,61.16,0
57,58.96,61.12,0
57,58.92,61.07,0
58,58.90,61.04,0
58,58.88,61.01,0
57,58.85,60.97,0
57,58.81,60.93,0
58,58.79,60.90,0
57,58.76,60.86,0
57,58.72,60.83,0
57,58.69,60.79,0
58,58.67,60.76,0
57,58.64,60.72,0
57,58.61,60.69,0
57,58.58,60.65,0
56,58.52,60.60,0
57,58.49,60.57,0
57,58.46,60.53,0
57,58.43,60.49,0
56,58.39,60.45,0
56,58.34,60.41,0
56,58.29,60.36,0
57,58.27,60.33,0
57,58.24,60.29,0
56,58.20,60.25,0
56,58.15,60.21,0
56,58.11,60.17,0
56,58.07,60.13,0
56,58.02,60.08,0
56,57.98,60.04,0
57,57.96,60.01,0
58,57.97,59.99,0
56,57.93,59.95,0
58,57.93,59.93,0
56,57.89,59.89,0
56,57.85,59.85,0
56,57.81,59.82,0
56,57.78,59.78,0
57,57.76,59.75,0
56,57.73,59.71,0
56,57.69,59.68,0
58,57.70,59.66,0
56,57.66,59.62,0
56,57.63,59.59,0
54,57.56,59.53,0
56,57.53,59.49,0
56,57.50,59.46,0
56,57.47,59.43,0
56,57.44,59.39,0
56,57.41,59.36,0
56,57.38,59.32,0
56,57.35,59.29,0
56,57.33,59.26,0
56,57.30,59.22,0
57,57.29,59.20,0
56,57.27,59.17,0
56,57.24,59.14,0
56,57.22,59.11,0
56,57.19,59.08,0
56,57.17,59.05,0
56,57.15,59.02,0
56,57.12,58.99,0
56,57.10,58.96,0
56,57.08,58.93,0
56,57.06,58.90,0
56,57.04,58.87,0
56,57.02,58.84,0
59,57.05,58.84,0
56,57.03,58.81,0
56,57.01,58.78,0
55,56.97,58.75,0
54,56.91,58.70,0
56,56.90,58.67,0
54,56.84,58.62,0
55,56.80,58.59,0
55,56.76,58.55,0
55,56.73,58.52,0
55,56.69,58.48,0
55,56.66,58.45,0
55,56.63,58.41,0
55,56.59,58.38,0
55,56.56,58.34,0
54,56.51,58.30,0
55,56.48,58.27,0
55,56.45,58.24,0
55,56.42,58.20,0
55,56.39,58.17,0
56,56.39,58.15,0
55,56.36,58.12,0
54,56.31,58.08,0
56,56.31,58.06,0
56,56.30,58.04,0
54,56.25,58.00,0
55,56.23,57.97,0
56,56.22,57.95,0
54,56.18,57.91,0
55,56.16,57.88,0
54,56.11,57.84,0
54,56.07,57.80,0
55,56.05,57.77,0
54,56.01,57.73,0
55,55.99,57.71,0
54,55.95,57.67,0
54,55.91,57.63,0
54,55.87,57.60,0
54,55.83,57.56,0
54,55.80,57.53,0
54,55.76,57.49,0
54,55.73,57.46,0
54,55.69,57.42,0
53,55.64,57.38,0
54,55.60,57.34,0
54,55.57,57.31,0
54,55.54,57.28,0
54,55.51,57.24,0
53,55.46,57.20,0
54,55.43,57.17,0
53,55.38,57.13,0
53,55.33,57.09,0
53,55.29,57.05,0
53,55.24,57.00,0
54,55.22,56.97,0
53,55.17,56.93,0
54,55.15,56.91,0
54,55.13,56.88,0
54,55.10,56.85,0
54,55.08,56.82,0
54,55.06,56.79,0
54,55.04,56.76,0
54,55.02,56.74,0
54,55.00,56.71,0
54,54.98,56.68,0
54,54.96,56.65,0
52,54.90,56.61,0
53,54.86,56.57,0
54,54.84,56.55,0
54,54.83,56.52,0
54,54.81,56.50,0
53,54.77,56.46,0
52,54.72,56.42,0
52,54.66,56.37,0
52,54.61,56.33,0
53,54.58,56.29,0
52,54.53,56.25,0
54,54.52,56.23,0
53,54.49,56.20,0
54,54.48,56.17,0
54,54.47,56.15,0
54,54.46,56.13,0
53,54.43,56.10,0
54,54.42,56.08,0
52,54.37,56.04,0
53,54.34,56.01,0
53,54.32,55.98,0
53,54.29,55.95,0
53,54.27,55.92,0
53,54.24,55.89,0
52,54.20,55.85,0
55,54.21,55.84,0
53,54.19,55.81,0
52,54.14,55.78,0
53,54.12,55.75,0
53,54.10,55.72,0
54,54.10,55.70,0
52,54.05,55.67,0
52,54.01,55.63,0
53,53.99,55.60,0
52,53.95,55.57,0
52,53.91,55.53,0
52,53.88,55.50,0
54,53.88,55.48,0
52,53.84,55.45,0
52,53.80,55.41,0
54,53.81,55.40,0
53,53.79,55.37,0
52,53.76,55.34,0
52,53.72,55.31,0
51,53.67,55.26,0
53,53.65,55.24,0
52,53.62,55.21,0
52,53.59,55.18,0
53,53.58,55.15,0
52,53.54,55.12,0
52,53.51,55.09,0
52,53.48,55.06,0
51,53.43,55.02,0
52,53.40,54.99,0
51,53.36,54.95,0
52,53.33,54.92,0
52,53.30,54.89,0
52,53.28,54.86,0
51,53.23,54.82,0
52,53.21,54.80,0
51,53.16,54.76,0
53,53.16,54.74,0
52,53.14,54.71,0
50,53.07,54.67,0
52,53.05,54.64,0
52,53.03,54.61,0
51,52.99,54.58,0
52,52.97,54.55,0
50,52.91,54.51,0
52,52.89,54.48,0
52,52.87,54.46,0
52,52.86,54.43,0
50,52.80,54.39,0
52,52.78,54.36,0
51,52.75,54.33,0
50,52.69,54.29,0
52,52.68,54.26,0
52,52.67,54.24,0
50,52.61,54.20,0
50,52.56,54.16,0
51,52.53,54.12,0
51,52.50,54.09,0
50,52.45,54.05,0
51,52.42,54.02,0
51,52.39,53.99,0
51,52.36,53.96,0
50,52.32,53.92,0
50,52.27,53.88,0
51,52.24,53.85,0
50,52.20,53.82,0
50,52.16,53.78,0
49,52.09,53.73,0
50,52.05,53.69,0
50,52.01,53.66,0
50,51.97,53.62,0
50,51.93,53.58,0
50,51.89,53.55,0
51,51.87,53.52,0
49,51.82,53.48,0
50,51.78,53.44,0
50,51.74,53.41,0
50,51.71,53.37,0
49,51.66,53.33,0
49,51.60,53.29,0
50,51.57,53.25,0
50,51.54,53.22,0
50,51.51,53.19,0
49,51.46,53.15,0
50,51.43,53.11,0
50,51.40,53.08,0
50,51.37,53.05,0
50,51.34,53.02,0
50,51.32,52.99,0
49,51.27,52.95,0
49,51.23,52.91,0
50,51.20,52.88,0
49,51.16,52.84,0
49,51.11,52.81,0
50,51.09,52.78,0
49,51.05,52.74,0
49,51.01,52.70,0
50,50.99,52.68,0
50,50.97,52.65,0
48,50.91,52.60,0
48,50.85,52.56,0
49,50.81,52.52,0
49,50.78,52.49,0
48,50.72,52.44,0
50,50.71,52.42,0
49,50.67,52.38,0
49,50.64,52.35,0
48,50.59,52.31,0
49,50.56,52.27,0
48,50.50,52.23,0
48,50.45,52.19,0
48,50.41,52.15,0
48,50.36,52.10,0
48,50.31,52.06,0
48,50.26,52.02,0
48,50.22,51.98,0
47,50.15,51.93,0
49,50.13,51.90,0
48,50.09,51.86,0
47,50.03,51.82,0
47,49.97,51.77,0
48,49.93,51.73,0
48,49.89,51.69,0
48,49.85,51.66,0
46,49.77,51.60,0
48,49.74,51.56,0
48,49.70,51.53,0
48,49.67,51.49,0
45,49.58,51.43,0
48,49.54,51.39,0
48,49.51,51.36,0
47,49.46,51.31,0
48,49.43,51.28,0
47,49.39,51.24,0
48,49.36,51.21,0
48,49.33,51.17,0
47,49.28,51.13,0
49,49.28,51.11,0
48,49.25,51.08,0
48,49.23,51.05,0
47,49.18,51.01,0
49,49.18,50.99,0
48,49.16,50.96,0
47,49.11,50.92,0
48,49.09,50.89,0
48,49.07,50.86,0
48,49.05,50.83,0
48,49.03,50.80,0
46,48.97,50.76,0
48,48.95,50.73,0
48,48.93,50.70,0
47,48.89,50.66,0
47,48.85,50.63,0
48,48.83,50.60,0
47,48.80,50.57,0
47,48.76,50.53,0
47,48.73,50.49,0
49,48.73,50.48,0
48,48.72,50.45,0
48,48.70,50.43,0
47,48.67,50.40,0
48,48.66,50.37,0
48,48.64,50.35,0
48,48.63,50.32,0
48,48.62,50.30,0
48,48.60,50.28,0
48,48.59,50.26,0
48,48.58,50.23,0
47,48.55,50.20,0
49,48.56,50.19,0
50,48.59,50.19,0
48,48.58,50.17,0
49,48.58,50.15,0
48,48.57,50.13,0
50,48.60,50.13,0
48,48.59,50.11,0
48,48.58,50.09,0
49,48.59,50.08,0
48,48.57,50.06,0
48,48.56,50.04,0
49,48.57,50.03,0
49,48.58,50.02,0
49,48.59,50.01,0
49,48.60,50.00,0
49,48.60,49.99,0
49,48.61,49.98,0
50,48.64,49.98,0
48,48.63,49.96,0
48,48.61,49.94,0
49,48.62,49.93,0
49,48.63,49.92,0
48,48.62,49.90,0
48,48.60,49.88,0
50,48.63,49.88,0
50,48.66,49.88,0
48,48.65,49.86,0
50,48.67,49.86,0
50,48.70,49.87,0
49,48.71,49.86,0
48,48.69,49.84,0
49,48.70,49.83,0
49,48.70,49.82,0
49,48.71,49.81,0
48,48.70,49.80,0
47,48.66,49.77,0
49,48.67,49.76,0
49,48.68,49.75,0
48,48.66,49.73,0
50,48.69,49.74,0
48,48.68,49.72,0
50,48.70,49.72,0
48,48.69,49.71,0
50,48.71,49.71,0
50,48.74,49.71,0
48,48.72,49.69,0
49,48.73,49.69,0
47,48.70,49.66,0
49,48.70,49.65,0
48,48.69,49.64,0
48,48.67,49.62,0
50,48.70,49.62,0
48,48.69,49.61,0
51,48.73,49.62,0
48,48.72,49.61,0
50,48.74,49.61,0
50,48.77,49.61,0
48,48.75,49.60,0
47,48.72,49.57,0
49,48.72,49.57,0
48,48.71,49.55,0
48,48.70,49.54,0
48,48.68,49.52,0
48,48.67,49.50,0
48,48.65,49.49,0
48,48.64,49.47,0
47,48.61,49.45,0
47,48.58,49.43,0
48,48.56,49.41,0
48,48.55,49.40,0
47,48.52,49.37,0
47,48.49,49.35,0
48,48.48,49.34,0
48,48.47,49.32,0
47,48.44,49.30,0
48,48.43,49.29,0
48,48.43,49.27,0
48,48.42,49.26,0
48,48.41,49.25,0
47,48.38,49.23,0
49,48.39,49.22,0
48,48.39,49.21,0
48,48.38,49.20,0
48,48.37,49.19,0
50,48.40,49.20,0
51,48.45,49.21,0
48,48.45,49.20,0
48,48.44,49.19,0
48,48.43,49.18,0
48,48.42,49.17,0
48,48.41,49.15,0
48,48.40,49.14,0
49,48.41,49.14,0
48,48.41,49.13,0
48,48.40,49.12,0
46,48.35,49.09,0
48,48.34,49.08,0
48,48.34,49.07,0
48,48.33,49.05,0
48,48.32,49.04,0
48,48.32,49.03,0
48,48.31,49.02,0
48,48.30,49.01,0
47,48.28,48.99,0
48,48.27,48.98,0
48,48.27,48.97,0
48,48.26,48.96,0
48,48.26,48.95,0
49,48.27,48.95,0
48,48.27,48.94,0
48,48.26,48.94,0
48,48.26,48.93,0
48,48.25,48.92,0
48,48.25,48.91,0
48,48.24,48.90,0
47,48.22,48.88,0
48,48.21,48.87,0
48,48.21,48.86,0
48,48.20,48.85,0
47,48.18,48.83,0
49,48.20,48.84,0
48,48.19,48.83,0
50,48.23,48.84,0
47,48.20,48.82,0
48,48.20,48.81,0
49,48.21,48.82,0
48,48.21,48.81,0
50,48.25,48.82,0
48,48.24,48.81,0
48,48.24,48.80,0
48,48.23,48.79,0
48,48.23,48.79,0
48,48.22,48.78,0
47,48.20,48.76,0
48,48.19,48.75,0
48,48.19,48.75,0
48,48.19,48.74,0
48,48.18,48.73,0
48,48.18,48.72,0
48,48.18,48.72,0
49,48.19,48.72,0
49,48.21,48.72,0
47,48.18,48.70,0
47,48.16,48.69,0
48,48.16,48.68,0
47,48.13,48.66,0
47,48.11,48.65,0
47,48.09,48.63,0
47,48.07,48.61,0
48,48.07,48.61,0
48,48.06,48.60,0
48,48.06,48.60,0
47,48.04,48.58,0
47,48.02,48.56,0
47,48.00,48.55,0
47,47.98,48.53,0
47,47.96,48.52,0
47,47.94,48.50,0
47,47.92,48.49,0
47,47.90,48.47,0
47,47.89,48.46,0
47,47.87,48.44,0
47,47.85,48.43,0
46,47.81,48.41,0
49,47.84,48.41,0
47,47.82,48.40,0
47,47.80,48.38,0
46,47.77,48.36,0
47,47.75,48.35,0
47,47.74,48.33,0
47,47.72,48.32,0
46,47.69,48.30,0
48,47.70,48.29,0
50,47.74,48.31,0
47,47.73,48.30,0
46,47.69,48.27,0
47,47.68,48.26,0
47,47.66,48.25,0
47,47.65,48.24,0
46,47.62,48.21,0
49,47.65,48.22,0
47,47.63,48.21,0
48,47.64,48.21,0
47,47.63,48.19,0
48,47.64,48.19,0
49,47.66,48.20,0
48,47.67,48.20,0
47,47.66,48.19,0
49,47.68,48.20,0
47,47.67,48.18,0
48,47.68,48.18,0
48,47.68,48.18,0
49,47.71,48.19,0
48,47.71,48.19,0
50,47.76,48.20,0
48,47.76,48.20,0
48,47.77,48.20,0
48,47.77,48.20,0
48,47.78,48.20,0
49,47.80,48.20,0
49,47.83,48.21,0
48,47.83,48.21,0
50,47.87,48.23,0
47,47.86,48.22,0
49,47.88,48.22,0
48,47.88,48.22,0
48,47.88,48.22,0
47,47.87,48.21,0
49,47.89,48.21,0
49,47.91,48.22,0
49,47.93,48.23,0
49,47.95,48.24,0
49,47.98,48.25,0
48,47.98,48.24,0
47,47.96,48.23,0
49,47.98,48.24,0
49,48.00,48.25,0
52,48.08,48.28,0
49,48.10,48.29,0
47,48.07,48.28,0
49,48.09,48.29,0
52,48.17,48.32,0
50,48.21,48.34,0
49,48.22,48.35,0
49,48.24,48.35,0
49,48.25,48.36,0
49,48.27,48.37,0
49,48.28,48.37,0
48,48.28,48.37,0
49,48.29,48.37,0
49,48.31,48.38,0
49,48.32,48.39,0
50,48.35,48.40,0
49,48.37,48.41,0
48,48.36,48.40,0
48,48.35,48.40,0
49,48.37,48.41,0
50,48.40,48.42,0
49,48.41,48.43,0
50,48.44,48.44,0
50,48.47,48.46,0
49,48.48,48.46,0
49,48.49,48.47,0
50,48.52,48.49,0
50,48.55,48.50,0
49,48.56,48.51,0
50,48.59,48.52,0
49,48.60,48.53,0
49,48.61,48.53,0
49,48.62,48.53,0
49,48.62,48.54,0
48,48.61,48.53,0
49,48.62,48.54,0
49,48.63,48.54,0
48,48.61,48.54,0
48,48.60,48.53,0
48,48.59,48.53,0
48,48.58,48.52,0
48,48.57,48.52,0
48,48.55,48.51,0
50,48.58,48.53,0
48,48.57,48.52,0
48,48.56,48.52,0
48,48.55,48.51,0
52,48.62,48.55,0
48,48.61,48.54,0
48,48.59,48.53,0
48,48.58,48.53,0
49,48.59,48.53,0
48,48.58,48.53,0
48,48.57,48.52,0
50,48.60,48.54,0
49,48.60,48.54,0
48,48.59,48.54,0
48,48.58,48.53,0
48,48.57,48.53,0
48,48.56,48.52,0
50,48.59,48.54,0
48,48.57,48.53,0
47,48.54,48.52,0
49,48.55,48.52,0
50,48.58,48.54,0
48,48.57,48.53,0
49,48.58,48.53,0
48,48.57,48.53,0
50,48.59,48.54,0
48,48.58,48.54,0
47,48.55,48.52,0
48,48.54,48.52,0
50,48.57,48.53,0
49,48.58,48.54,0
49,48.59,48.54,0
49,48.59,48.55,0
48,48.58,48.54,0
50,48.61,48.56,0
48,48.60,48.55,0
50,48.63,48.56,0
50,48.65,48.58,0
50,48.68,48.59,0
50,48.71,48.61,0
50,48.73,48.62,0
49,48.74,48.63,0
50,48.76,48.64,0
50,48.79,48.65,0
47,48.75,48.64,0
50,48.78,48.65,0
50,48.80,48.66,0
50,48.83,48.68,0
50,48.85,48.69,0
49,48.85,48.69,0
49,48.86,48.70,0
49,48.86,48.70,0
48,48.84,48.69,0
49,48.84,48.70,0
49,48.85,48.70,0
50,48.87,48.71,0
50,48.89,48.72,0
49,48.90,48.73,0
49,48.90,48.73,0
49,48.90,48.73,0
50,48.92,48.74,0
49,48.92,48.75,0
49,48.92,48.75,0
49,48.93,48.75,0
49,48.93,48.75,0
50,48.95,48.77,0
48,48.93,48.76,0
48,48.91,48.75,0
49,48.91,48.75,0
49,48.92,48.76,0
50,48.94,48.77,0
50,48.96,48.78,0
51,49.00,48.80,0
50,49.02,48.82,0
50,49.04,48.83,0
50,49.06,48.84,0
49,49.06,48.84,0
50,49.08,48.85,0
50,49.09,48.86,0
50,49.11,48.88,0
50,49.13,48.89,0
50,49.15,48.90,0
50,49.16,48.91,0
50,49.18,48.92,0
49,49.18,48.92,0
50,49.19,48.93,0
48,49.17,48.92,0
50,49.19,48.93,0
50,49.20,48.94,0
50,49.22,48.95,0
50,49.23,48.96,0
50,49.25,48.97,0
50,49.26,48.99,0
50,49.28,49.00,0
48,49.25,48.99,0
50,49.27,49.00,0
50,49.28,49.01,0
50,49.30,49.02,0
50,49.31,49.03,0
50,49.33,49.04,0
51,49.36,49.05,0
50,49.37,49.06,0
50,49.38,49.07,0
50,49.40,49.08,0
50,49.41,49.09,0
50,49.42,49.10,0
50,49.43,49.11,0
50,49.44,49.12,0
50,49.45,49.13,0
50,49.47,49.14,0
49,49.46,49.14,0
50,49.47,49.14,0
49,49.46,49.14,0
50,49.47,49.15,0
50,49.48,49.16,0
47,49.43,49.14,0
49,49.42,49.14,0
49,49.41,49.14,0
50,49.42,49.14,0
48,49.40,49.13,0
49,49.39,49.13,0
48,49.36,49.12,0
49,49.35,49.12,0
49,49.35,49.12,0
50,49.36,49.13,0
48,49.33,49.11,0
48,49.31,49.10,0
50,49.32,49.11,0
49,49.31,49.11,0
49,49.31,49.11,0
49,49.30,49.11,0
49,49.29,49.11,0
51,49.33,49.13,0
49,49.32,49.13,0
50,49.34,49.13,0
49,49.33,49.13,0
51,49.36,49.15,0
50,49.37,49.16,0
50,49.39,49.17,0
49,49.38,49.17,0
50,49.39,49.18,0
50,49.40,49.18,0
50,49.42,49.19,0
51,49.45,49.21,0
52,49.50,49.24,0
50,49.51,49.25,0
50,49.52,49.25,0
50,49.53,49.26,0
52,49.58,49.29,0
50,49.59,49.30,0
49,49.57,49.29,0
50,49.58,49.30,0
51,49.61,49.32,0
51,49.64,49.33,0
50,49.65,49.34,0
50,49.65,49.35,0
52,49.70,49.37,0
51,49.73,49.39,0
50,49.73,49.40,0
51,49.76,49.41,0
51,49.78,49.43,0
50,49.79,49.43,0
50,49.79,49.44,0
52,49.83,49.46,0
52,49.88,49.49,0
52,49.92,49.51,0
51,49.94,49.53,0
48,49.90,49.51,0
53,49.97,49.55,0
52,50.01,49.57,0
51,50.03,49.59,0
52,50.07,49.61,0
53,50.12,49.65,0
52,50.16,49.67,0
52,50.20,49.69,0
52,50.23,49.72,0
53,50.29,49.75,0
52,50.32,49.77,0
52,50.36,49.79,0
52,50.39,49.82,0
52,50.42,49.84,0
52,50.45,49.86,0
52,50.48,49.88,0
52,50.52,49.90,0
51,50.52,49.91,0
51,50.53,49.92,0
51,50.54,49.93,0
52,50.57,49.95,0
51,50.58,49.97,0
51,50.59,49.98,0
52,50.62,50.00,0
53,50.67,50.03,0
54,50.73,50.07,0
52,50.76,50.08,0
54,50.82,50.12,0
53,50.87,50.15,0
54,50.93,50.19,0
54,50.99,50.23,0
54,51.05,50.27,0
53,51.09,50.29,0
54,51.15,50.33,0
55,51.22,50.38,0
54,51.28,50.41,0
53,51.31,50.44,0
54,51.37,50.48,0
53,51.40,50.50,0
54,51.45,50.54,0
53,51.48,50.56,0
53,51.51,50.59,0
53,51.54,50.61,0
54,51.59,50.64,0
54,51.64,50.68,0
55,51.71,50.72,0
54,51.75,50.75,0
54,51.80,50.79,0
54,51.84,50.82,0
55,51.91,50.86,0
54,51.95,50.89,0
54,51.99,50.92,0
54,52.03,50.95,0
53,52.05,50.97,0
53,52.07,50.99,0
54,52.11,51.02,0
54,52.14,51.05,0
53,52.16,51.07,0
54,52.20,51.10,0
54,52.23,51.13,0
55,52.29,51.17,0
55,52.34,51.21,0
55,52.40,51.25,0
55,52.45,51.28,0
55,52.50,51.32,0
55,52.55,51.36,0
55,52.60,51.39,0
55,52.65,51.43,0
55,52.69,51.47,0
56,52.76,51.51,0
56,52.82,51.56,0
56,52.89,51.60,0
54,52.91,51.62,0
56,52.97,51.67,0
55,53.01,51.70,0
56,53.07,51.74,0
55,53.11,51.78,0
56,53.17,51.82,0
56,53.23,51.86,0
56,53.28,51.90,0
56,53.34,51.94,0
56,53.39,51.98,0
56,53.44,52.02,0
56,53.49,52.06,0
58,53.58,52.12,0
58,53.67,52.18,0
56,53.72,52.22,0
56,53.76,52.26,0
58,53.85,52.32,0
58,53.93,52.37,0
58,54.01,52.43,0
60,54.13,52.50,0
60,54.25,52.58,0
60,54.36,52.65,0
60,54.48,52.73,0
60,54.59,52.80,0
60,54.70,52.87,0
59,54.78,52.93,0
61,54.91,53.01,0
64,55.09,53.12,0
60,55.19,53.19,0
61,55.30,53.27,0
60,55.40,53.34,0
60,55.49,53.40,0
61,55.60,53.48,0
60,55.69,53.55,0
60,55.77,53.61,0
62,55.90,53.69,0
61,56.00,53.77,0
62,56.12,53.85,0
59,56.18,53.90,0
62,56.29,53.98,0
62,56.41,54.06,0
62,56.52,54.14,0
62,56.63,54.22,0
64,56.78,54.32,0
63,56.90,54.40,0
63,57.02,54.49,0
63,57.14,54.58,0
64,57.28,54.67,0
64,57.41,54.76,0
64,57.55,54.86,0
64,57.68,54.95,0
64,57.80,55.04,0
64,57.93,55.13,0
65,58.07,55.23,0
66,58.23,55.33,0
65,58.36,55.43,0
65,58.49,55.53,0
65,58.62,55.62,0
66,58.77,55.72,0
65,58.90,55.82,0
66,59.04,55.92,0
67,59.20,56.03,0
65,59.31,56.12,0
65,59.43,56.21,0
66,59.56,56.31,0
65,59.67,56.39,0
66,59.79,56.49,0
66,59.92,56.58,0
66,60.04,56.68,0
65,60.14,56.76,0
67,60.28,56.86,0
66,60.39,56.96,0
66,60.50,57.05,0
66,60.61,57.14,0
66,60.72,57.22,0
66,60.83,57.31,0
68,60.97,57.42,0
68,61.11,57.52,0
68,61.25,57.63,0
68,61.38,57.73,0
68,61.52,57.84,0
69,61.67,57.95,0
69,61.81,58.06,0
70,61.98,58.18,0
70,62.14,58.30,0
69,62.27,58.40,0
70,62.43,58.52,0
72,62.62,58.65,0
72,62.81,58.79,0
73,63.01,58.93,0
74,63.23,59.08,0
74,63.45,59.23,0
76,63.70,59.40,0
77,63.96,59.57,0
76,64.20,59.74,0
76,64.44,59.90,0
78,64.71,60.08,0
77,64.96,60.25,0
76,65.18,60.41,0
76,65.39,60.56,0
76,65.61,60.72,0
76,65.81,60.87,0
78,66.06,61.04,0
77,66.28,61.20,0
78,66.51,61.37,0
78,66.74,61.54,0
76,66.93,61.68,0
78,67.15,61.84,0
78,67.36,62.00,0
77,67.56,62.15,0
78,67.77,62.31,0
80,68.01,62.49,0
79,68.23,62.66,0
79,68.45,62.82,0
80,68.68,62.99,0
79,68.88,63.15,0
79,69.09,63.31,0
80,69.30,63.48,0
82,69.56,63.66,0
80,69.77,63.82,0
80,69.97,63.99,0
80,70.17,64.15,0
80,70.37,64.31,0
80,70.56,64.46,0
80,70.75,64.62,0
80,70.94,64.77,0
80,71.12,64.92,0
80,71.29,65.07,0
81,71.49,65.23,0
81,71.68,65.39,0
80,71.84,65.54,0
82,72.05,65.70,0
82,72.25,65.86,0
84,72.48,66.05,0
82,72.67,66.21,0
82,72.86,66.36,0
83,73.06,66.53,0
85,73.30,66.71,0
84,73.51,66.89,0
84,73.72,67.06,0
84,73.93,67.23,0
84,74.13,67.40,0
86,74.37,67.58,0
84,74.56,67.75,0
84,74.75,67.91,0
85,74.96,68.08,0
85,75.16,68.25,0
86,75.37,68.43,0
86,75.59,68.60,0
85,75.77,68.77,0
88,76.02,68.96,0
86,76.22,69.13,0
86,76.41,69.30,0
87,76.63,69.47,0
88,76.85,69.66,0
86,77.04,69.82,0
86,77.21,69.98,0
88,77.43,70.17,0
85,77.58,70.31,0
88,77.79,70.49,0
88,77.99,70.67,0
89,78.21,70.85,0
89,78.43,71.03,0
90,78.66,71.22,0
90,78.89,71.41,0
90,79.11,71.59,0
92,79.37,71.80,0
90,79.58,71.98,0
90,79.79,72.16,0
91,80.01,72.35,0
91,80.23,72.53,0
90,80.43,72.71,0
91,80.64,72.89,0
90,80.83,73.06,0
90,81.01,73.23,0
90,81.19,73.40,0
90,81.37,73.57,0
91,81.56,73.74,0
90,81.73,73.90,0
92,81.93,74.08,0
92,82.14,74.26,0
91,82.31,74.43,0
90,82.47,74.59,0
90,82.62,74.74,0
92,82.80,74.91,0
92,82.99,75.08,0
92,83.17,75.25,0
90,83.31,75.40,0
92,83.48,75.57,0
92,83.65,75.73,0
92,83.82,75.89,0
93,84.00,76.06,0
94,84.20,76.24,0
94,84.40,76.42,0
94,84.59,76.60,0
94,84.78,76.77,0
93,84.94,76.93,0
94,85.12,77.10,0
96,85.34,77.29,0
96,85.55,77.48,0
96,85.76,77.67,0
95,85.95,77.84,0
96,86.15,78.02,0
96,86.34,78.20,0
96,86.54,78.38,0
96,86.73,78.55,0
96,86.91,78.73,0
95,87.07,78.89,0
95,87.23,79.05,0
95,87.39,79.21,0
96,87.56,79.38,0
95,87.71,79.54,0
96,87.88,79.70,0
96,88.04,79.86,0
96,88.20,80.03,0
95,88.33,80.18,0
96,88.49,80.33,0
96,88.64,80.49,0
96,88.78,80.65,0
96,88.93,80.80,0
96,89.07,80.95,0
96,89.21,81.10,0
96,89.34,81.25,0
96,89.48,81.40,0
96,89.61,81.54,0
97,89.76,81.70,0
95,89.86,81.83,0
96,89.98,81.97,0
96,90.10,82.11,0
97,90.24,82.26,0
97,90.38,82.41,0
97,90.51,82.56,0
98,90.66,82.71,0
98,90.81,82.86,0
98,90.95,83.01,0
98,91.09,83.16,0
98,91.23,83.31,0
98,91.36,83.46,0
98,91.50,83.60,0
98,91.63,83.75,0
98,91.75,83.89,0
98,91.88,84.03,0
98,92.00,84.17,0
98,92.12,84.31,0
100,92.28,84.47,0
98,92.39,84.60,0
98,92.51,84.74,0
98,92.62,84.87,0
98,92.72,85.00,0
98,92.83,85.13,0
99,92.95,85.27,0
99,93.07,85.41,0
98,93.17,85.53,0
98,93.27,85.66,0
98,93.36,85.78,0
98,93.46,85.90,0
98,93.55,86.02,0
98,93.64,86.14,0
98,93.72,86.26,0
98,93.81,86.38,0
98,93.89,86.50,0
96,93.93,86.59,0
97,94.00,86.69,0
98,94.08,86.81,0
98,94.15,86.92,0
96,94.19,87.01,0
98,94.27,87.12,0
98,94.34,87.23,0
96,94.38,87.32,0
96,94.41,87.40,0
98,94.48,87.51,0
96,94.51,87.59,0
96,94.54,87.68,0
96,94.57,87.76,0
98,94.64,87.86,0
96,94.66,87.95,0
95,94.67,88.02,0
96,94.70,88.10,0
95,94.70,88.17,0
96,94.73,88.24,0
96,94.76,88.32,0
98,94.82,88.42,0
96,94.84,88.49,0
96,94.87,88.57,0
96,94.89,88.64,0
94,94.87,88.70,0
95,94.87,88.76,0
94,94.86,88.81,0
96,94.88,88.88,0
95,94.88,88.95,0
95,94.88,89.01,0
95,94.89,89.07,0
97,94.93,89.14,0
96,94.95,89.21,0
95,94.95,89.27,0
97,94.99,89.35,0
94,94.97,89.40,0
96,94.99,89.46,0
95,94.99,89.52,0
96,95.01,89.58,0
94,94.99,89.63,0
94,94.97,89.67,0
95,94.97,89.72,0
94,94.95,89.77,0
95,94.96,89.82,0
94,94.94,89.86,0
95,94.94,89.91,0
95,94.94,89.96,0
95,94.94,90.01,0
95,94.94,90.06,0
95,94.94,90.11,0
95,94.94,90.16,0
96,94.96,90.22,0
96,94.99,90.28,0
97,95.03,90.34,0
96,95.05,90.40,0
96,95.06,90.46,0
95,95.06,90.50,0
97,95.10,90.57,0
96,95.12,90.62,0
96,95.14,90.67,0
95,95.13,90.72,0
96,95.15,90.77,0
96,95.17,90.82,0
96,95.19,90.88,0
96,95.20,90.93,0
95,95.20,90.97,0
95,95.19,91.01,0
95,95.19,91.05,0
94,95.17,91.08,0
95,95.16,91.12,0
97,95.20,91.17,0
95,95.20,91.21,0
94,95.17,91.24,0
95,95.17,91.28,0
94,95.14,91.31,0
94,95.12,91.33,0
94,95.10,91.36,0
93,95.06,91.38,0
94,95.04,91.40,0
93,95.00,91.42,0
94,94.98,91.44,0
93,94.94,91.46,0
94,94.92,91.48,0
92,94.86,91.49,0
92,94.80,91.50,0
94,94.79,91.52,0
93,94.75,91.53,0
92,94.70,91.54,0
94,94.68,91.56,0
93,94.65,91.58,0
92,94.59,91.58,0
92,94.54,91.59,0
94,94.53,91.61,0
92,94.48,91.61,0
92,94.43,91.62,0
92,94.38,91.62,0
90,94.30,91.61,0
91,94.23,91.60,0
91,94.16,91.59,0
91,94.10,91.59,0
92,94.06,91.59,0
92,94.02,91.60,0
91,93.96,91.59,0
90,93.88,91.57,0
90,93.80,91.56,0
90,93.73,91.54,0
90,93.65,91.53,0
90,93.58,91.51,0
90,93.51,91.50,0
90,93.44,91.48,0
90,93.37,91.47,0
91,93.32,91.46,0
90,93.25,91.45,0
91,93.21,91.44,0
90,93.14,91.43,0
90,93.08,91.42,0
90,93.02,91.40,0
90,92.96,91.39,0
90,92.90,91.37,0
90,92.84,91.36,0
90,92.79,91.35,0
90,92.73,91.33,0
92,92.72,91.34,0
90,92.66,91.33,0
90,92.61,91.31,0
92,92.60,91.32,0
90,92.54,91.31,0
90,92.49,91.29,0
90,92.44,91.28,0
90,92.39,91.27,0
90,92.35,91.25,0
91,92.32,91.25,0
90,92.27,91.24,0
90,92.23,91.23,0
89,92.16,91.20,0
88,92.08,91.17,0
89,92.02,91.15,0
89,91.96,91.13,0
89,91.90,91.11,0
88,91.82,91.08,0
88,91.74,91.05,0
88,91.67,91.02,0
88,91.60,90.99,0
88,91.52,90.96,0
88,91.45,90.93,0
89,91.40,90.91,0
88,91.34,90.88,0
88,91.27,90.85,0
88,91.20,90.82,0
88,91.14,90.79,0
88,91.08,90.76,0
85,90.96,90.71,0
86,90.86,90.66,0
88,90.80,90.63,0
87,90.72,90.60,0
86,90.63,90.55,0
85,90.52,90.50,0
88,90.47,90.47,0
87,90.40,90.44,0
86,90.31,90.39,0
86,90.22,90.35,0
86,90.14,90.30,0
85,90.04,90.25,0
86,89.95,90.21,0
86,89.88,90.17,0
86,89.80,90.12,0
85,89.70,90.07,0
86,89.63,90.03,0
86,89.56,89.99,0
86,89.48,89.95,0
86,89.41,89.91,0
84,89.31,89.85,0
86,89.24,89.82,0
85,89.16,89.77,0
85,89.07,89.72,0
84,88.97,89.66,0
84,88.87,89.61,0
85,88.79,89.56,0
84,88.70,89.50,0
84,88.60,89.45,0
84,88.51,89.39,0
85,88.44,89.35,0
84,88.35,89.30,0
84,88.27,89.24,0
84,88.18,89.19,0
84,88.10,89.14,0
84,88.02,89.09,0
84,87.93,89.04,0
84,87.86,88.99,0
84,87.78,88.94,0
83,87.68,88.88,0
83,87.59,88.82,0
84,87.52,88.77,0
84,87.45,88.72,0
83,87.36,88.67,0
84,87.29,88.62,0
82,87.19,88.55,0
82,87.08,88.49,0
82,86.98,88.42,0
82,86.88,88.36,0
83,86.80,88.30,0
83,86.73,88.25,0
84,86.67,88.21,0
84,86.62,88.17,0
84,86.57,88.13,0
83,86.50,88.07,0
82,86.41,88.01,0
83,86.34,87.96,0
82,86.25,87.90,0
84,86.21,87.86,0
81,86.10,87.80,0
82,86.02,87.74,0
82,85.94,87.68,0
84,85.90,87.64,0
81,85.80,87.58,0
82,85.73,87.52,0
82,85.65,87.47,0
82,85.58,87.41,0
82,85.51,87.36,0
82,85.44,87.30,0
82,85.37,87.25,0
82,85.30,87.20,0
82,85.23,87.15,0
82,85.17,87.10,0
82,85.11,87.04,0
81,85.02,86.98,0
81,84.94,86.92,0
82,84.89,86.87,0
80,84.79,86.81,0
80,84.69,86.74,0
81,84.62,86.68,0
80,84.53,86.61,0
80,84.44,86.55,0
81,84.37,86.49,0
80,84.28,86.43,0
81,84.21,86.37,0
80,84.13,86.31,0
79,84.03,86.24,0
81,83.97,86.18,0
81,83.91,86.13,0
80,83.83,86.07,0
81,83.77,86.02,0
80,83.70,85.96,0
80,83.62,85.90,0
79,83.53,85.83,0
79,83.44,85.76,0
80,83.37,85.71,0
80,83.30,85.65,0
79,83.22,85.58,0
79,83.13,85.52,0
80,83.07,85.46,0
78,82.97,85.39,0
79,82.89,85.32,0
80,82.83,85.27,0
79,82.76,85.21,0
78,82.66,85.13,0
78,82.57,85.06,0
80,82.52,85.01,0
81,82.49,84.97,0
79,82.42,84.91,0
78,82.33,84.84,0
79,82.26,84.78,0
80,82.22,84.74,0
79,82.15,84.68,0
78,82.07,84.61,0
79,82.01,84.56,0
79,81.95,84.50,0
79,81.89,84.45,0
79,81.83,84.39,0
79,81.77,84.34,0
79,81.72,84.28,0
78,81.64,84.22,0
78,81.57,84.16,0
79,81.52,84.11,0
79,81.47,84.06,0
78,81.40,84.00,0
77,81.31,83.93,0
79,81.27,83.88,0
78,81.20,83.82,0
78,81.14,83.76,0
78,81.07,83.70,0
78,81.01,83.65,0
78,80.95,83.59,0
78,80.89,83.53,0
78,80.83,83.48,0
79,80.80,83.43,0
78,80.74,83.38,0
78,80.69,83.32,0
77,80.61,83.26,0
78,80.56,83.21,0
78,80.51,83.16,0
78,80.46,83.11,0
77,80.39,83.04,0
77,80.32,82.98,0
78,80.28,82.93,0
77,80.21,82.87,0
77,80.15,82.82,0
77,80.08,82.76,0
77,80.02,82.70,0
76,79.94,82.63,0
76,79.86,82.57,0
77,79.81,82.51,0
77,79.75,82.46,0
76,79.67,82.39,0
76,79.60,82.33,0
77,79.55,82.27,0
76,79.48,82.21,0
76,79.41,82.15,0
75,79.32,82.08,0
76,79.25,82.02,0
76,79.19,81.96,0
75,79.10,81.89,0
74,79.00,81.81,0
74,78.90,81.73,0
76,78.84,81.67,0
75,78.77,81.61,0
74,78.67,81.53,0
75,78.60,81.46,0
75,78.53,81.40,0
74,78.44,81.33,0
74,78.35,81.25,0
75,78.28,81.19,0
75,78.22,81.13,0
74,78.13,81.06,0
73,78.03,80.98,0
75,77.97,80.92,0
77,77.95,80.88,0
74,77.87,80.81,0
74,77.79,80.74,0
75,77.74,80.68,0
75,77.68,80.63,0
74,77.61,80.56,0
74,77.54,80.49,0
76,77.50,80.45,0
75,77.45,80.40,0
74,77.39,80.33,0
76,77.36,80.29,0
76,77.33,80.25,0
74,77.26,80.18,0
76,77.24,80.14,0
74,77.17,80.08,0
75,77.13,80.03,0
74,77.07,79.97,0
74,77.01,79.91,0
74,76.95,79.85,0
74,76.89,79.79,0
74,76.83,79.73,0
74,76.77,79.68,0
74,76.72,79.62,0
74,76.66,79.56,0
74,76.61,79.51,0
74,76.56,79.45,0
73,76.49,79.39,0
74,76.44,79.33,0
75,76.41,79.29,0
73,76.34,79.23,0
73,76.27,79.17,0
74,76.23,79.11,0
74,76.18,79.06,0
74,76.14,79.01,0
74,76.10,78.96,0
74,76.06,78.91,0
76,76.05,78.88,0
73,75.99,78.82,0
73,75.93,78.77,0
74,75.89,78.72,0
73,75.84,78.66,0
74,75.80,78.61,0
74,75.76,78.57,0
74,75.73,78.52,0
74,75.69,78.48,0
74,75.66,78.43,0
74,75.63,78.39,0
77,75.65,78.37,0
76,75.66,78.35,0
74,75.63,78.31,0
74,75.60,78.26,0
74,75.56,78.22,0
74,75.53,78.18,0
74,75.50,78.14,0
74,75.47,78.10,0
74,75.44,78.06,0
75,75.43,78.02,0
74,75.40,77.98,0
74,75.38,77.94,0
75,75.37,77.92,0
75,75.36,77.89,0
74,75.33,77.85,0
74,75.31,77.81,0
72,75.24,77.75,0
74,75.22,77.71,0
74,75.19,77.68,0
73,75.15,77.63,0
73,75.11,77.58,0
74,75.08,77.55,0
74,75.06,77.51,0
74,75.04,77.48,0
74,75.02,77.44,0
74,75.00,77.41,0
74,74.98,77.37,0
74,74.96,77.34,0
74,74.94,77.31,0
74,74.92,77.27,0
74,74.90,77.24,0
74,74.89,77.21,0
73,74.85,77.17,0
74,74.83,77.13,0
74,74.81,77.10,0
73,74.78,77.06,0
74,74.76,77.03,0
74,74.75,77.00,0
73,74.71,76.96,0
74,74.70,76.93,0
73,74.66,76.89,0
74,74.65,76.86,0
74,74.64,76.83,0
74,74.62,76.81,0
74,74.61,76.78,0
74,74.60,76.75,0
72,74.55,76.70,0
72,74.50,76.66,0
74,74.49,76.63,0
72,74.44,76.58,0
74,74.43,76.56,0
74,74.42,76.53,0
74,74.41,76.51,0
74,74.40,76.48,0
73,74.38,76.45,0
74,74.37,76.42,0
74,74.36,76.40,0
74,74.35,76.37,0
73,74.33,76.34,0
74,74.32,76.32,0
73,74.29,76.28,0
74,74.29,76.26,0
73,74.26,76.23,0
73,74.24,76.20,0
74,74.23,76.17,0
74,74.23,76.15,0
72,74.18,76.11,0
72,74.14,76.07,0
73,74.12,76.04,0
73,74.09,76.01,0
74,74.09,75.99,0
72,74.05,75.95,0
73,74.03,75.92,0
75,74.05,75.91,0
73,74.03,75.88,0
72,73.99,75.84,0
72,73.95,75.80,0
73,73.93,75.78,0
72,73.89,75.74,0
73,73.87,75.71,0
73,73.85,75.68,0
73,73.84,75.66,0
73,73.82,75.63,0
73,73.80,75.60,0
73,73.79,75.58,0
73,73.77,75.55,0
72,73.74,75.52,0
72,73.70,75.48,0
72,73.67,75.45,0
73,73.65,75.42,0
72,73.62,75.39,0
75,73.65,75.38,0
72,73.62,75.35,0
72,73.58,75.32,0
72,73.55,75.28,0
72,73.52,75.25,0
71,73.47,75.21,0
72,73.44,75.18,0
71,73.39,75.13,0
71,73.34,75.09,0
71,73.30,75.05,0
71,73.25,75.01,0
72,73.23,74.98,0
72,73.20,74.95,0
70,73.14,74.90,0
71,73.10,74.86,0
71,73.05,74.82,0
69,72.97,74.77,0
72,72.95,74.74,0
71,72.91,74.70,0
70,72.86,74.65,0
70,72.80,74.61,0
71,72.76,74.57,0
70,72.71,74.53,0
70,72.65,74.48,0
74,72.68,74.48,0
70,72.63,74.43,0
70,72.57,74.39,0
70,72.52,74.34,0
70,72.47,74.30,0
70,72.42,74.26,0
70,72.37,74.21,0
70,72.33,74.17,0
69,72.26,74.12,0
70,72.22,74.08,0
70,72.17,74.04,0
70,72.13,74.00,0
70,72.08,73.96,0
69,72.02,73.91,0
70,71.98,73.87,0
70,71.94,73.83,0
68,71.86,73.77,0
70,71.83,73.73,0
71,71.81,73.71,0
70,71.77,73.67,0
70,71.74,73.63,0
70,71.70,73.60,0
70,71.67,73.56,0
70,71.64,73.52,0
70,71.60,73.49,0
70,71.57,73.45,0
70,71.54,73.42,0
70,71.51,73.39,0
70,71.48,73.35,0
70,71.45,73.32,0
69,71.40,73.28,0
70,71.37,73.24,0
70,71.35,73.21,0
70,71.32,73.18,0
71,71.31,73.16,0
69,71.27,73.11,0
70,71.24,73.08,0
70,71.22,73.05,0
70,71.19,73.02,0
70,71.17,72.99,0
70,71.14,72.96,0
70,71.12,72.93,0
71,71.12,72.91,0
70,71.10,72.88,0
69,71.05,72.85,0
69,71.01,72.81,0
70,70.99,72.78,0
70,70.97,72.75,0
70,70.95,72.72,0
69,70.91,72.69,0
72,70.94,72.68,0
69,70.90,72.64,0
70,70.88,72.62,0
69,70.84,72.58,0
69,70.81,72.54,0
68,70.75,72.50,0
68,70.69,72.45,0
69,70.66,72.42,0
69,70.63,72.38,0
68,70.57,72.34,0
68,70.52,72.30,0
68,70.47,72.25,0
69,70.44,72.22,0
69,70.41,72.19,0
68,70.37,72.15,0
68,70.32,72.11,0
68,70.27,72.07,0
68,70.23,72.02,0
68,70.18,71.98,0
68,70.14,71.94,0
68,70.10,71.91,0
68,70.05,71.87,0
68,70.01,71.83,0
68,69.97,71.79,0
67,69.91,71.74,0
68,69.87,71.70,0
67,69.82,71.66,0
68,69.78,71.62,0
67,69.73,71.57,0
68,69.69,71.54,0
66,69.62,71.48,0
68,69.58,71.45,0
67,69.53,71.40,0
68,69.50,71.37,0
68,69.47,71.34,0
68,69.44,71.30,0
67,69.39,71.26,0
68,69.37,71.23,0
68,69.34,71.19,0
67,69.29,71.15,0
68,69.27,71.12,0
66,69.20,71.07,0
68,69.18,71.04,0
68,69.15,71.01,0
67,69.11,70.97,0
68,69.09,70.94,0
66,69.03,70.89,0
68,69.01,70.86,0
68,68.99,70.83,0
68,68.97,70.80,0
66,68.91,70.76,0
67,68.87,70.72,0
69,68.87,70.70,0
67,68.83,70.66,0
68,68.82,70.64,0
66,68.76,70.59,0
66,68.71,70.55,0
66,68.65,70.50,0
66,68.60,70.45,0
67,68.57,70.42,0
66,68.52,70.38,0
66,68.46,70.33,0
66,68.42,70.29,0
67,68.39,70.26,0
66,68.34,70.21,0
68,68.33,70.19,0
66,68.29,70.15,0
67,68.26,70.12,0
65,68.20,70.07,0
66,68.15,70.03,0
66,68.11,69.99,0
66,68.07,69.95,0
65,68.00,69.90,0
63,67.90,69.83,0
66,67.87,69.79,0
66,67.83,69.75,0
66,67.79,69.71,0
