Teste de posicionamento 4(EMG tendao-inervacao (Vermelho A, Verde C) + Ref no cotovelo) - 19/10/2024 - teste8 - 5 contrações
long frequencia = 1000;                 //frequência de aquisição do sinal, neste caso, 1000 sinais por segundo
float fator1 = 0.02, fator2 = 0.01;
float incerteza = 0.13;
float pico_basal = 130; // Mínimo para ser considerado um pico de contração
int filtro_horizontal=200000; //intervalo de 200ms valores não pode ter mais de 1 contração

Biceps_D,mediaMovel_1,mediaMovel_2,Contracao
31,0.62,0.31,0
31,1.23,0.62,0
32,1.84,0.93,0
31,2.43,1.23,0
31,3.00,1.53,0
31,3.56,1.82,0
31,4.11,2.12,0
31,4.64,2.40,0
33,5.21,2.71,0
31,5.73,2.99,0
31,6.23,3.27,0
31,6.73,3.55,0
33,7.25,3.85,0
31,7.73,4.12,0
33,8.23,4.41,0
31,8.69,4.67,0
31,9.14,4.93,0
31,9.57,5.20,0
31,10.00,5.45,0
31,10.42,5.71,0
30,10.81,5.95,0
30,11.20,6.19,0
31,11.59,6.44,0
29,11.94,6.67,0
32,12.34,6.92,0
31,12.72,7.16,0
31,13.08,7.40,0
31,13.44,7.63,0
29,13.75,7.85,0
31,14.10,8.08,0
30,14.41,8.30,0
32,14.77,8.54,0
33,15.13,8.78,0
30,15.43,8.99,0
30,15.72,9.20,0
31,16.02,9.42,0
30,16.30,9.63,0
31,16.60,9.84,0
30,16.87,10.04,0
31,17.15,10.25,0
31,17.43,10.46,0
31,17.70,10.66,0
30,17.94,10.86,0
30,18.18,11.05,0
30,18.42,11.24,0
30,18.65,11.43,0
32,18.92,11.63,0
31,19.16,11.83,0
30,19.38,12.01,0
30,19.59,12.19,0
31,19.82,12.38,0
30,20.02,12.55,0
31,20.24,12.74,0
30,20.44,12.91,0
30,20.63,13.08,0
30,20.82,13.25,0
30,21.00,13.42,0
30,21.18,13.58,0
30,21.36,13.75,0
30,21.53,13.91,0
30,21.70,14.07,0
32,21.90,14.25,0
30,22.07,14.41,0
31,22.24,14.57,0
30,22.40,14.73,0
34,22.63,14.92,0
30,22.78,15.07,0
30,22.92,15.22,0
32,23.10,15.39,0
30,23.24,15.53,0
30,23.38,15.68,0
30,23.51,15.82,0
30,23.64,15.96,0
34,23.85,16.14,0
30,23.97,16.28,0
30,24.09,16.42,0
30,24.21,16.56,0
30,24.32,16.69,0
31,24.46,16.83,0
32,24.61,16.98,0
32,24.76,17.13,0
27,24.80,17.23,0
29,24.89,17.35,0
30,24.99,17.48,0
30,25.09,17.60,0
30,25.19,17.73,0
30,25.28,17.85,0
30,25.38,17.97,0
33,25.53,18.12,0
28,25.58,18.22,0
30,25.67,18.34,0
32,25.79,18.47,0
30,25.88,18.59,0
30,25.96,18.70,0
30,26.04,18.82,0
31,26.14,18.94,0
31,26.24,19.06,0
30,26.31,19.17,0
30,26.39,19.28,0
30,26.46,19.38,0
29,26.51,19.48,0
30,26.58,19.59,0
30,26.65,19.69,0
29,26.70,19.78,0
30,26.76,19.88,0
30,26.83,19.99,0
30,26.89,20.09,0
29,26.93,20.18,0
30,26.99,20.27,0
29,27.03,20.36,0
30,27.09,20.46,0
29,27.13,20.54,0
30,27.19,20.64,0
29,27.22,20.72,0
30,27.28,20.81,0
31,27.35,20.92,0
30,27.41,21.01,0
30,27.46,21.10,0
30,27.51,21.19,0
30,27.56,21.27,0
30,27.61,21.36,0
30,27.66,21.45,0
30,27.70,21.53,0
29,27.73,21.61,0
30,27.77,21.69,0
30,27.82,21.77,0
30,27.86,21.86,0
30,27.91,21.94,0
30,27.95,22.02,0
30,27.99,22.10,0
30,28.03,22.18,0
30,28.07,22.26,0
30,28.11,22.33,0
30,28.14,22.41,0
30,28.18,22.49,0
29,28.20,22.55,0
30,28.23,22.63,0
29,28.25,22.69,0
30,28.28,22.76,0
30,28.32,22.83,0
30,28.35,22.91,0
30,28.39,22.98,0
30,28.42,23.05,0
30,28.45,23.12,0
30,28.48,23.19,0
30,28.51,23.25,0
30,28.54,23.32,0
30,28.57,23.39,0
31,28.62,23.46,0
30,28.65,23.53,0
30,28.67,23.59,0
30,28.70,23.66,0
30,28.73,23.72,0
30,28.75,23.78,0
30,28.78,23.85,0
30,28.80,23.91,0
30,28.82,23.97,0
32,28.89,24.05,0
30,28.91,24.11,0
30,28.93,24.17,0
30,28.95,24.23,0
29,28.95,24.27,0
30,28.98,24.33,0
30,29.00,24.39,0
30,29.02,24.44,0
30,29.04,24.50,0
29,29.03,24.54,0
30,29.05,24.60,0
30,29.07,24.65,0
30,29.09,24.71,0
30,29.11,24.76,0
30,29.13,24.81,0
30,29.14,24.86,0
30,29.16,24.92,0
29,29.16,24.96,0
30,29.18,25.01,0
30,29.19,25.06,0
30,29.21,25.11,0
30,29.22,25.15,0
32,29.28,25.22,0
32,29.33,25.29,0
30,29.35,25.34,0
30,29.36,25.38,0
31,29.39,25.44,0
29,29.39,25.48,0
30,29.40,25.52,0
30,29.41,25.57,0
33,29.48,25.64,0
36,29.61,25.74,0
30,29.62,25.79,0
30,29.63,25.83,0
32,29.67,25.89,0
31,29.70,25.94,0
30,29.71,25.98,0
30,29.71,26.02,0
29,29.70,26.05,0
27,29.64,26.06,0
30,29.65,26.10,0
30,29.66,26.14,0
29,29.65,26.17,0
29,29.63,26.20,0
30,29.64,26.24,0
30,29.65,26.27,0
29,29.63,26.30,0
30,29.64,26.34,0
30,29.65,26.37,0
30,29.66,26.41,0
31,29.68,26.46,0
29,29.67,26.48,0
30,29.68,26.52,0
30,29.68,26.55,0
31,29.71,26.60,0
30,29.71,26.63,0
30,29.72,26.66,0
30,29.73,26.70,0
31,29.75,26.74,0
30,29.76,26.77,0
30,29.76,26.80,0
30,29.77,26.84,0
30,29.77,26.87,0
29,29.76,26.89,0
30,29.76,26.92,0
29,29.74,26.94,0
30,29.75,26.97,0
30,29.75,27.00,0
30,29.76,27.03,0
30,29.76,27.06,0
29,29.75,27.08,0
30,29.75,27.11,0
30,29.76,27.14,0
30,29.76,27.17,0
30,29.77,27.20,0
30,29.77,27.22,0
30,29.78,27.25,0
30,29.78,27.28,0
30,29.79,27.31,0
30,29.79,27.33,0
30,29.80,27.36,0
30,29.80,27.39,0
29,29.78,27.40,0
30,29.79,27.43,0
30,29.79,27.45,0
30,29.80,27.48,0
31,29.82,27.52,0
32,29.86,27.56,0
30,29.87,27.58,0
30,29.87,27.61,0
31,29.89,27.64,0
30,29.89,27.67,0
30,29.90,27.69,0
31,29.92,27.72,0
31,29.94,27.76,0
32,29.98,27.80,0
30,29.98,27.82,0
31,30.00,27.85,0
31,30.02,27.88,0
34,30.10,27.94,0
32,30.14,27.99,0
32,30.18,28.03,0
31,30.19,28.05,0
32,30.23,28.09,0
32,30.26,28.13,0
31,30.28,28.16,0
33,30.33,28.21,0
32,30.37,28.25,0
32,30.40,28.29,0
33,30.45,28.33,0
32,30.48,28.37,0
32,30.51,28.41,0
32,30.54,28.44,0
32,30.57,28.48,0
34,30.64,28.53,0
33,30.69,28.58,0
32,30.71,28.61,0
33,30.76,28.66,0
32,30.78,28.69,0
33,30.83,28.73,0
32,30.85,28.76,0
33,30.90,28.81,0
34,30.96,28.86,0
33,31.00,28.90,0
34,31.06,28.95,0
33,31.10,28.99,0
33,31.13,29.03,0
33,31.17,29.07,0
31,31.17,29.09,0
33,31.21,29.13,0
36,31.30,29.20,0
33,31.34,29.24,0
34,31.39,29.28,0
33,31.42,29.32,0
33,31.45,29.36,0
33,31.48,29.39,0
34,31.53,29.44,0
32,31.54,29.47,0
33,31.57,29.50,0
33,31.60,29.54,0
32,31.61,29.56,0
34,31.66,29.61,0
33,31.68,29.64,0
33,31.71,29.67,0
34,31.76,29.72,0
32,31.76,29.74,0
36,31.85,29.80,0
33,31.87,29.83,0
33,31.89,29.87,0
34,31.93,29.91,0
31,31.91,29.92,0
34,31.96,29.96,0
34,32.00,30.00,0
34,32.04,30.04,0
31,32.02,30.05,0
34,32.06,30.09,0
34,32.09,30.13,0
35,32.15,30.18,0
35,32.21,30.22,0
34,32.25,30.26,0
34,32.28,30.30,0
35,32.34,30.35,0
33,32.35,30.37,0
34,32.38,30.41,0
34,32.41,30.45,0
36,32.49,30.50,0
35,32.54,30.55,0
36,32.61,30.60,0
34,32.63,30.63,0
36,32.70,30.69,0
35,32.75,30.73,0
34,32.77,30.76,0
34,32.80,30.80,0
34,32.82,30.83,0
35,32.86,30.87,0
34,32.89,30.90,0
36,32.95,30.95,0
36,33.01,31.00,0
35,33.05,31.04,0
36,33.11,31.09,0
36,33.17,31.14,0
36,33.22,31.19,0
36,33.28,31.24,0
36,33.33,31.29,0
38,33.43,31.35,0
37,33.50,31.41,0
38,33.59,31.48,0
38,33.68,31.54,0
37,33.74,31.59,0
38,33.83,31.66,0
38,33.91,31.72,0
40,34.03,31.81,0
38,34.11,31.87,0
37,34.17,31.92,0
38,34.25,31.98,0
38,34.32,32.04,0
38,34.40,32.10,0
38,34.47,32.16,0
38,34.54,32.22,0
38,34.61,32.27,0
38,34.68,32.33,0
37,34.72,32.38,0
38,34.79,32.43,0
38,34.85,32.49,0
38,34.91,32.55,0
38,34.98,32.60,0
39,35.06,32.66,0
38,35.12,32.72,0
38,35.17,32.77,0
38,35.23,32.82,0
38,35.29,32.87,0
39,35.36,32.94,0
38,35.41,32.99,0
38,35.46,33.04,0
40,35.55,33.11,0
38,35.60,33.15,0
38,35.65,33.20,0
38,35.70,33.25,0
37,35.72,33.29,0
38,35.77,33.34,0
38,35.81,33.38,0
38,35.86,33.43,0
37,35.88,33.46,0
38,35.92,33.51,0
38,35.97,33.55,0
38,36.01,33.60,0
40,36.09,33.66,0
40,36.16,33.73,0
40,36.24,33.79,0
39,36.30,33.84,0
41,36.39,33.91,0
40,36.46,33.97,0
40,36.53,34.03,0
41,36.62,34.10,0
41,36.71,34.17,0
40,36.78,34.23,0
38,36.80,34.27,0
39,36.84,34.32,0
40,36.91,34.37,0
40,36.97,34.43,0
40,37.03,34.48,0
40,37.09,34.54,0
41,37.17,34.60,0
40,37.22,34.66,0
40,37.28,34.71,0
40,37.33,34.76,0
41,37.41,34.83,0
40,37.46,34.88,0
41,37.53,34.94,0
42,37.62,35.01,0
41,37.69,35.07,0
40,37.73,35.12,0
40,37.78,35.17,0
41,37.84,35.23,0
42,37.93,35.29,0
41,37.99,35.35,0
42,38.07,35.42,0
42,38.15,35.48,0
42,38.22,35.55,0
42,38.30,35.61,0
42,38.37,35.68,0
46,38.53,35.78,0
42,38.60,35.84,0
42,38.66,35.90,0
42,38.73,35.97,0
42,38.80,36.03,0
42,38.86,36.09,0
42,38.92,36.14,0
42,38.98,36.20,0
42,39.04,36.26,0
42,39.10,36.32,0
42,39.16,36.38,0
44,39.26,36.45,0
42,39.31,36.51,0
42,39.37,36.56,0
42,39.42,36.62,0
43,39.49,36.68,0
40,39.50,36.71,0
42,39.55,36.77,0
42,39.60,36.82,0
42,39.65,36.87,0
42,39.70,36.92,0
42,39.74,36.97,0
44,39.83,37.04,0
43,39.89,37.10,0
42,39.93,37.15,0
42,39.97,37.20,0
42,40.01,37.25,0
42,40.05,37.30,0
42,40.09,37.34,0
42,40.13,37.39,0
42,40.17,37.44,0
42,40.20,37.48,0
43,40.26,37.54,0
43,40.32,37.59,0
43,40.37,37.64,0
42,40.40,37.69,0
42,40.43,37.73,0
42,40.47,37.77,0
41,40.48,37.81,0
41,40.49,37.84,0
42,40.52,37.88,0
42,40.55,37.92,0
44,40.62,37.98,0
42,40.64,38.02,0
43,40.69,38.07,0
43,40.74,38.12,0
44,40.80,38.18,0
42,40.83,38.22,0
42,40.85,38.26,0
41,40.85,38.28,0
42,40.87,38.32,0
42,40.90,38.36,0
42,40.92,38.39,0
41,40.92,38.42,0
42,40.94,38.46,0
42,40.96,38.49,0
42,40.98,38.53,0
41,40.98,38.55,0
42,41.01,38.59,0
43,41.05,38.63,0
42,41.06,38.66,0
44,41.12,38.72,0
44,41.18,38.77,0
42,41.20,38.80,0
42,41.21,38.83,0
44,41.27,38.89,0
44,41.32,38.94,0
44,41.38,38.99,0
42,41.39,39.02,0
44,41.44,39.07,0
43,41.47,39.11,0
42,41.48,39.14,0
44,41.53,39.18,0
43,41.56,39.22,0
43,41.59,39.26,0
44,41.64,39.31,0
44,41.69,39.35,0
44,41.73,39.40,0
44,41.78,39.45,0
42,41.78,39.47,0
44,41.83,39.52,0
44,41.87,39.56,0
44,41.91,39.61,0
44,41.96,39.65,0
44,42.00,39.69,0
44,42.04,39.74,0
44,42.08,39.78,0
44,42.11,39.82,0
46,42.19,39.88,0
43,42.21,39.91,0
46,42.28,39.98,0
44,42.32,40.02,0
44,42.35,40.06,0
45,42.40,40.11,0
46,42.48,40.16,0
44,42.51,40.20,0
46,42.58,40.26,0
45,42.63,40.31,0
46,42.69,40.36,0
46,42.76,40.42,0
46,42.82,40.48,0
44,42.85,40.51,0
46,42.91,40.57,0
45,42.95,40.61,0
45,42.99,40.66,0
45,43.03,40.70,0
46,43.09,40.75,0
46,43.15,40.80,0
46,43.21,40.86,0
46,43.26,40.91,0
48,43.36,40.98,0
46,43.41,41.03,0
46,43.46,41.08,0
46,43.51,41.13,0
46,43.56,41.18,0
50,43.69,41.26,0
45,43.72,41.30,0
46,43.76,41.35,0
46,43.81,41.40,0
46,43.85,41.44,0
47,43.92,41.50,0
46,43.96,41.54,0
46,44.00,41.59,0
46,44.04,41.63,0
47,44.10,41.68,0
47,44.16,41.74,0
47,44.21,41.79,0
47,44.27,41.84,0
47,44.32,41.89,0
48,44.40,41.96,0
49,44.49,42.03,0
47,44.54,42.08,0
49,44.63,42.14,0
52,44.78,42.24,0
50,44.88,42.32,0
49,44.96,42.39,0
50,45.06,42.46,0
52,45.20,42.56,0
50,45.30,42.63,0
50,45.39,42.71,0
50,45.48,42.78,0
52,45.61,42.87,0
50,45.70,42.94,0
50,45.79,43.01,0
53,45.93,43.11,0
53,46.07,43.21,0
53,46.21,43.31,0
51,46.31,43.39,0
54,46.46,43.49,0
56,46.65,43.62,0
56,46.84,43.74,0
56,47.02,43.87,0
56,47.20,43.99,0
57,47.40,44.12,0
58,47.61,44.26,0
58,47.82,44.39,0
58,48.02,44.53,0
60,48.26,44.68,0
60,48.50,44.84,0
60,48.73,44.99,0
60,48.95,45.14,0
61,49.19,45.30,0
60,49.41,45.44,0
60,49.62,45.59,0
60,49.83,45.73,0
62,50.07,45.90,0
61,50.29,46.05,0
60,50.48,46.19,0
60,50.67,46.33,0
64,50.94,46.50,0
64,51.20,46.68,0
64,51.46,46.85,0
66,51.75,47.04,0
68,52.07,47.25,0
68,52.39,47.46,0
66,52.66,47.64,0
66,52.93,47.83,0
68,53.23,48.03,0
68,53.53,48.23,0
68,53.82,48.43,0
68,54.10,48.62,0
69,54.40,48.83,0
67,54.65,49.01,0
68,54.92,49.20,0
71,55.24,49.42,0
71,55.55,49.63,0
70,55.84,49.84,0
70,56.13,50.04,0
74,56.48,50.28,0
72,56.79,50.49,0
72,57.10,50.71,0
72,57.40,50.92,0
72,57.69,51.13,0
73,58.00,51.35,0
74,58.32,51.58,0
75,58.65,51.81,0
73,58.94,52.02,0
73,59.22,52.23,0
74,59.51,52.45,0
74,59.80,52.67,0
73,60.07,52.87,0
72,60.31,53.06,0
74,60.58,53.27,0
74,60.85,53.48,0
76,61.15,53.70,0
76,61.45,53.93,0
76,61.74,54.15,0
78,62.06,54.39,0
78,62.38,54.62,0
77,62.67,54.85,0
78,62.98,55.08,0
78,63.28,55.31,0
78,63.58,55.53,0
78,63.86,55.76,0
80,64.19,56.00,0
78,64.46,56.22,0
78,64.73,56.44,0
78,65.00,56.65,0
82,65.34,56.91,0
79,65.61,57.13,0
78,65.86,57.34,0
80,66.14,57.56,0
78,66.38,57.77,0
79,66.63,57.98,0
79,66.88,58.19,0
80,67.14,58.41,0
80,67.40,58.62,0
79,67.63,58.83,0
80,67.88,59.04,0
81,68.14,59.26,0
84,68.46,59.51,0
81,68.71,59.72,0
80,68.94,59.92,0
81,69.18,60.14,0
82,69.43,60.35,0
82,69.68,60.57,0
82,69.93,60.78,0
84,70.21,61.02,0
84,70.49,61.25,0
84,70.76,61.47,0
82,70.98,61.68,0
84,71.24,61.90,0
85,71.52,62.13,0
84,71.77,62.35,0
84,72.01,62.57,0
86,72.29,62.80,0
83,72.51,63.01,0
86,72.78,63.24,0
86,73.04,63.46,0
85,73.28,63.68,0
85,73.51,63.89,0
86,73.76,64.11,0
84,73.97,64.31,0
85,74.19,64.52,0
86,74.43,64.73,0
86,74.66,64.95,0
86,74.88,65.16,0
88,75.15,65.38,0
86,75.36,65.59,0
88,75.62,65.81,0
87,75.84,66.03,0
87,76.07,66.24,0
88,76.31,66.45,0
86,76.50,66.65,0
87,76.71,66.85,0
87,76.92,67.05,0
88,77.14,67.26,0
88,77.35,67.47,0
88,77.57,67.68,0
89,77.80,67.89,0
88,78.00,68.09,0
88,78.20,68.29,0
90,78.44,68.51,0
89,78.65,68.71,0
90,78.87,68.93,0
92,79.14,69.16,0
91,79.37,69.37,0
92,79.63,69.60,0
92,79.87,69.82,0
92,80.12,70.05,0
94,80.39,70.29,0
94,80.67,70.52,0
94,80.93,70.76,0
92,81.15,70.97,0
93,81.39,71.19,0
93,81.62,71.41,0
92,81.83,71.61,0
93,82.05,71.83,0
93,82.27,72.04,0
93,82.49,72.25,0
92,82.68,72.45,0
94,82.90,72.66,0
93,83.11,72.87,0
94,83.32,73.08,0
96,83.58,73.31,0
94,83.79,73.51,0
93,83.97,73.71,0
92,84.13,73.89,0
96,84.37,74.11,0
92,84.52,74.29,0
92,84.67,74.47,0
92,84.82,74.64,0
92,84.96,74.82,0
92,85.10,74.99,0
92,85.24,75.16,0
92,85.37,75.33,0
92,85.51,75.49,0
92,85.64,75.66,0
92,85.76,75.82,0
92,85.89,75.98,0
92,86.01,76.14,0
92,86.13,76.30,0
91,86.23,76.45,0
91,86.32,76.60,0
91,86.42,76.74,0
92,86.53,76.89,0
93,86.66,77.05,0
91,86.75,77.19,0
91,86.83,77.33,0
90,86.89,77.46,0
91,86.98,77.59,0
90,87.04,77.72,0
90,87.10,77.84,0
90,87.15,77.96,0
90,87.21,78.08,0
89,87.25,78.19,0
89,87.28,78.30,0
90,87.34,78.42,0
90,87.39,78.53,0
90,87.44,78.65,0
89,87.47,78.75,0
90,87.52,78.86,0
90,87.57,78.97,0
89,87.60,79.07,0
89,87.63,79.17,0
88,87.64,79.26,0
88,87.64,79.35,0
90,87.69,79.46,0
90,87.74,79.56,0
88,87.74,79.65,0
89,87.77,79.74,0
90,87.81,79.84,0
88,87.82,79.92,0
88,87.82,80.00,0
88,87.82,80.08,0
90,87.87,80.18,0
88,87.87,80.26,0
88,87.87,80.34,0
88,87.87,80.42,0
88,87.88,80.49,0
88,87.88,80.57,0
88,87.88,80.64,0
88,87.88,80.71,0
88,87.89,80.79,0
88,87.89,80.86,0
88,87.89,80.93,0
88,87.89,81.00,0
89,87.92,81.08,0
89,87.94,81.16,0
88,87.94,81.23,0
90,87.98,81.32,0
87,87.96,81.37,0
88,87.96,81.44,0
88,87.96,81.51,0
86,87.92,81.55,0
88,87.92,81.61,0
86,87.89,81.66,0
88,87.89,81.72,0
88,87.89,81.78,0
87,87.87,81.84,0
88,87.87,81.90,0
88,87.88,81.96,0
87,87.86,82.01,0
87,87.84,82.06,0
88,87.85,82.12,0
88,87.85,82.18,0
88,87.85,82.24,0
88,87.85,82.29,0
88,87.86,82.35,0
88,87.86,82.41,0
88,87.86,82.46,0
88,87.87,82.52,0
87,87.85,82.56,0
88,87.85,82.62,0
87,87.83,82.66,0
87,87.82,82.71,0
86,87.78,82.74,0
88,87.79,82.79,0
87,87.77,82.83,0
86,87.74,82.86,0
88,87.74,82.92,0
86,87.71,82.95,0
86,87.67,82.98,0
86,87.64,83.01,0
86,87.61,83.04,0
86,87.57,83.07,0
86,87.54,83.10,0
86,87.51,83.13,0
85,87.46,83.14,0
86,87.43,83.17,0
86,87.40,83.20,0
86,87.37,83.23,0
85,87.33,83.25,0
86,87.30,83.27,0
86,87.27,83.30,0
86,87.25,83.33,0
86,87.22,83.36,0
85,87.18,83.37,0
85,87.14,83.39,0
85,87.09,83.40,0
86,87.07,83.43,0
84,87.01,83.44,0
85,86.97,83.45,0
87,86.97,83.49,0
84,86.91,83.49,0
84,86.85,83.50,0
84,86.80,83.50,0
84,86.74,83.51,0
84,86.69,83.51,0
83,86.61,83.51,0
84,86.56,83.51,0
84,86.51,83.52,0
84,86.46,83.52,0
83,86.39,83.52,0
82,86.30,83.50,0
84,86.25,83.51,0
83,86.19,83.50,0
84,86.15,83.51,0
84,86.10,83.51,0
84,86.06,83.52,0
83,86.00,83.51,0
84,85.96,83.52,0
82,85.88,83.50,0
82,85.80,83.49,0
82,85.73,83.47,0
82,85.65,83.46,0
83,85.60,83.45,0
82,85.53,83.44,0
82,85.46,83.42,0
82,85.39,83.41,0
82,85.32,83.39,0
82,85.25,83.38,0
82,85.19,83.37,0
82,85.12,83.35,0
82,85.06,83.34,0
81,84.98,83.32,0
82,84.92,83.30,0
80,84.82,83.27,0
82,84.77,83.26,0
82,84.71,83.24,0
81,84.64,83.22,0
80,84.54,83.19,0
82,84.49,83.18,0
81,84.42,83.16,0
80,84.33,83.12,0
80,84.25,83.09,0
79,84.14,83.05,0
80,84.06,83.02,0
80,83.98,82.99,0
80,83.90,82.96,0
83,83.88,82.96,0
80,83.80,82.93,0
80,83.73,82.90,0
80,83.65,82.87,0
79,83.56,82.84,0
80,83.49,82.81,0
80,83.42,82.78,0
79,83.33,82.74,0
84,83.34,82.75,0
80,83.28,82.73,0
79,83.19,82.69,0
81,83.15,82.67,0
79,83.07,82.64,0
80,83.00,82.61,0
82,82.98,82.60,0
79,82.90,82.57,0
77,82.79,82.51,0
78,82.69,82.47,0
82,82.68,82.46,0
78,82.58,82.42,0
79,82.51,82.38,0
80,82.46,82.36,0
79,82.39,82.33,0
78,82.30,82.28,0
79,82.24,82.25,0
78,82.15,82.21,0
79,82.09,82.17,0
78,82.01,82.13,0
79,81.95,82.10,0
78,81.87,82.06,0
80,81.83,82.04,0
78,81.76,82.00,0
78,81.68,81.96,0
78,81.61,81.92,0
77,81.51,81.87,0
78,81.44,81.83,0
78,81.38,81.79,0
79,81.33,81.77,0
78,81.26,81.73,0
78,81.20,81.69,0
77,81.11,81.64,0
77,81.03,81.60,0
77,80.95,81.55,0
77,80.87,81.51,0
77,80.79,81.46,0
77,80.72,81.42,0
76,80.62,81.36,0
76,80.53,81.31,0
76,80.44,81.26,0
77,80.37,81.21,0
77,80.30,81.17,0
76,80.22,81.12,0
76,80.13,81.07,0
77,80.07,81.03,0
78,80.03,81.00,0
76,79.95,80.95,0
76,79.87,80.90,0
76,79.79,80.85,0
76,79.72,80.80,0
75,79.62,80.74,0
74,79.51,80.67,0
76,79.44,80.63,0
75,79.35,80.57,0
74,79.24,80.51,0
74,79.14,80.44,0
75,79.06,80.39,0
75,78.97,80.33,0
74,78.88,80.27,0
74,78.78,80.21,0
74,78.68,80.14,0
74,78.59,80.08,0
74,78.50,80.02,0
76,78.45,79.98,0
76,78.40,79.94,0
74,78.31,79.88,0
74,78.22,79.82,0
74,78.14,79.77,0
74,78.06,79.71,0
75,78.00,79.66,0
74,77.92,79.60,0
74,77.84,79.55,0
74,77.76,79.49,0
74,77.69,79.44,0
72,77.57,79.36,0
74,77.50,79.31,0
73,77.41,79.25,0
74,77.34,79.19,0
72,77.23,79.12,0
73,77.15,79.06,0
74,77.09,79.01,0
72,76.99,78.94,0
72,76.89,78.87,0
72,76.79,78.80,0
74,76.73,78.75,0
75,76.70,78.72,0
72,76.60,78.65,0
73,76.53,78.59,0
72,76.44,78.53,0
72,76.35,78.46,0
72,76.27,78.40,0
72,76.18,78.33,0
72,76.10,78.27,0
72,76.01,78.21,0
72,75.93,78.15,0
72,75.86,78.08,0
72,75.78,78.02,0
72,75.70,77.96,0
76,75.71,77.94,0
72,75.63,77.88,0
72,75.56,77.82,0
71,75.47,77.76,0
72,75.40,77.70,0
71,75.31,77.63,0
71,75.23,77.57,0
71,75.14,77.50,0
74,75.12,77.46,0
71,75.04,77.40,0
71,74.96,77.34,0
72,74.90,77.28,0
71,74.82,77.22,0
71,74.74,77.16,0
70,74.65,77.09,0
71,74.58,77.03,0
74,74.56,77.00,0
71,74.49,76.94,0
71,74.42,76.88,0
71,74.35,76.82,0
70,74.27,76.75,0
70,74.18,76.68,0
70,74.10,76.61,0
70,74.02,76.55,0
67,73.88,76.45,0
70,73.80,76.39,0
71,73.74,76.33,0
71,73.69,76.28,0
70,73.61,76.22,0
70,73.54,76.16,0
69,73.45,76.08,0
72,73.42,76.04,0
66,73.27,75.94,0
70,73.21,75.88,0
69,73.12,75.82,0
70,73.06,75.76,0
70,73.00,75.70,0
70,72.94,75.64,0
70,72.88,75.59,0
69,72.80,75.52,0
70,72.75,75.46,0
70,72.69,75.41,0
69,72.62,75.35,0
70,72.57,75.29,0
70,72.51,75.24,0
68,72.42,75.17,0
69,72.36,75.11,0
69,72.29,75.04,0
68,72.20,74.97,0
68,72.12,74.90,0
69,72.06,74.85,0
70,72.02,74.80,0
68,71.94,74.73,0
68,71.86,74.66,0
68,71.78,74.60,0
68,71.70,74.53,0
68,71.63,74.46,0
68,71.56,74.40,0
69,71.51,74.35,0
70,71.48,74.30,0
68,71.41,74.24,0
69,71.36,74.19,0
69,71.31,74.13,0
70,71.28,74.09,0
68,71.22,74.03,0
70,71.19,73.99,0
67,71.11,73.92,0
69,71.07,73.87,0
68,71.01,73.81,0
68,70.95,73.76,0
67,70.87,73.69,0
66,70.77,73.61,0
68,70.72,73.56,0
68,70.66,73.50,0
67,70.59,73.43,0
68,70.54,73.38,0
68,70.49,73.33,0
68,70.44,73.27,0
68,70.39,73.22,0
68,70.34,73.17,0
68,70.29,73.12,0
68,70.25,73.07,0
68,70.20,73.01,0
68,70.16,72.96,0
68,70.11,72.92,0
68,70.07,72.87,0
67,70.01,72.81,0
67,69.95,72.75,0
68,69.91,72.70,0
67,69.85,72.64,0
68,69.82,72.60,0
68,69.78,72.55,0
68,69.74,72.51,0
69,69.73,72.47,0
68,69.69,72.43,0
71,69.72,72.41,0
68,69.69,72.37,0
68,69.65,72.32,0
70,69.66,72.30,0
68,69.63,72.26,0
68,69.59,72.22,0
68,69.56,72.17,0
67,69.51,72.12,0
68,69.48,72.08,0
68,69.45,72.04,0
68,69.42,72.00,0
68,69.39,71.96,0
68,69.37,71.92,0
68,69.34,71.88,0
67,69.29,71.83,0
69,69.29,71.80,0
68,69.26,71.77,0
67,69.21,71.72,0
67,69.17,71.67,0
69,69.17,71.64,0
66,69.10,71.59,0
66,69.04,71.53,0
66,68.98,71.48,0
66,68.92,71.42,0
66,68.86,71.37,0
66,68.81,71.31,0
66,68.75,71.26,0
68,68.73,71.23,0
68,68.72,71.20,0
66,68.67,71.14,0
66,68.61,71.09,0
65,68.54,71.03,0
66,68.49,70.98,0
66,68.44,70.93,0
66,68.39,70.88,0
65,68.32,70.82,0
71,68.38,70.83,0
66,68.33,70.78,0
64,68.24,70.71,0
65,68.18,70.65,0
66,68.13,70.61,0
66,68.09,70.56,0
66,68.05,70.51,0
65,67.99,70.46,0
64,67.91,70.39,0
64,67.83,70.33,0
66,67.79,70.29,0
67,67.78,70.25,0
65,67.72,70.20,0
64,67.65,70.14,0
64,67.57,70.08,0
65,67.52,70.03,0
64,67.45,69.97,0
66,67.42,69.93,0
65,67.38,69.88,0
65,67.33,69.83,0
64,67.26,69.77,0
64,67.20,69.71,0
64,67.13,69.66,0
64,67.07,69.60,0
64,67.01,69.54,0
64,66.95,69.49,0
64,66.89,69.43,0
64,66.83,69.38,0
64,66.77,69.33,0
64,66.72,69.27,0
64,66.66,69.22,0
64,66.61,69.17,0
64,66.56,69.12,0
64,66.51,69.06,0
64,66.46,69.01,0
64,66.41,68.96,0
64,66.36,68.91,0
64,66.31,68.86,0
64,66.27,68.82,0
64,66.22,68.77,0
64,66.18,68.72,0
64,66.13,68.67,0
64,66.09,68.63,0
63,66.03,68.57,0
66,66.03,68.54,0
63,65.97,68.49,0
64,65.93,68.44,0
62,65.85,68.38,0
63,65.79,68.33,0
64,65.76,68.28,0
64,65.72,68.24,0
64,65.69,68.20,0
66,65.69,68.18,0
64,65.66,68.13,0
63,65.61,68.08,0
63,65.55,68.03,0
65,65.54,68.00,0
62,65.47,67.94,0
63,65.42,67.89,0
63,65.37,67.84,0
63,65.33,67.79,0
64,65.30,67.76,0
62,65.23,67.70,0
62,65.17,67.64,0
64,65.15,67.61,0
62,65.08,67.55,0
63,65.04,67.50,0
62,64.98,67.45,0
63,64.94,67.40,0
62,64.88,67.35,0
63,64.85,67.31,0
64,64.83,67.27,0
61,64.75,67.21,0
62,64.70,67.16,0
63,64.66,67.12,0
62,64.61,67.07,0
62,64.56,67.02,0
62,64.51,66.97,0
62,64.46,66.92,0
63,64.43,66.88,0
62,64.38,66.83,0
62,64.33,66.78,0
62,64.28,66.73,0
63,64.26,66.69,0
63,64.23,66.66,0
62,64.19,66.61,0
62,64.14,66.56,0
62,64.10,66.52,0
62,64.06,66.47,0
62,64.02,66.43,0
62,63.98,66.38,0
62,63.94,66.34,0
61,63.88,66.29,0
60,63.80,66.22,0
61,63.75,66.17,0
61,63.69,66.12,0
62,63.66,66.08,0
60,63.58,66.02,0
60,63.51,65.96,0
61,63.46,65.91,0
61,63.41,65.86,0
60,63.35,65.80,0
60,63.28,65.74,0
60,63.21,65.69,0
59,63.13,65.62,0
60,63.07,65.56,0
62,63.04,65.53,0
62,63.02,65.49,0
60,62.96,65.44,0
60,62.90,65.38,0
62,62.89,65.35,0
61,62.85,65.31,0
60,62.79,65.25,0
60,62.74,65.20,0
60,62.68,65.15,0
64,62.71,65.14,0
60,62.65,65.08,0
60,62.60,65.03,0
62,62.59,65.00,0
60,62.54,64.95,0
60,62.49,64.90,0
60,62.44,64.86,0
60,62.39,64.81,0
60,62.34,64.76,0
62,62.33,64.73,0
60,62.29,64.68,0
60,62.24,64.64,0
59,62.18,64.58,0
61,62.15,64.54,0
60,62.11,64.50,0
60,62.07,64.45,0
59,62.01,64.40,0
60,61.97,64.36,0
60,61.93,64.31,0
60,61.89,64.27,0
59,61.83,64.22,0
59,61.77,64.16,0
58,61.70,64.10,0
60,61.66,64.06,0
60,61.63,64.02,0
60,61.60,63.98,0
60,61.57,63.94,0
59,61.51,63.89,0
58,61.44,63.83,0
60,61.42,63.79,0
58,61.35,63.74,0
59,61.30,63.69,0
59,61.25,63.64,0
59,61.21,63.60,0
60,61.18,63.56,0
59,61.14,63.51,0
58,61.08,63.46,0
57,61.00,63.39,0
58,60.94,63.34,0
59,60.90,63.30,0
61,60.90,63.27,0
59,60.86,63.23,0
58,60.80,63.18,0
58,60.75,63.13,0
60,60.73,63.10,0
58,60.68,63.04,0
58,60.63,62.99,0
58,60.57,62.94,0
60,60.56,62.92,0
58,60.51,62.87,0
58,60.46,62.82,0
58,60.41,62.77,0
57,60.34,62.71,0
58,60.30,62.66,0
58,60.25,62.62,0
58,60.20,62.57,0
57,60.14,62.52,0
57,60.08,62.46,0
58,60.04,62.42,0
58,60.00,62.37,0
57,59.94,62.32,0
58,59.90,62.27,0
58,59.86,62.23,0
58,59.82,62.19,0
57,59.77,62.14,0
57,59.71,62.09,0
58,59.68,62.05,0
58,59.64,62.01,0
57,59.59,61.96,0
57,59.54,61.91,0
58,59.51,61.87,0
58,59.48,61.83,0
58,59.45,61.79,0
57,59.40,61.74,0
56,59.33,61.68,0
57,59.28,61.64,0
57,59.24,61.59,0
56,59.17,61.54,0
56,59.11,61.48,0
58,59.09,61.45,0
57,59.05,61.40,0
57,59.01,61.36,0
56,58.94,61.30,0
56,58.89,61.25,0
57,58.85,61.21,0
56,58.79,61.16,0
56,58.74,61.10,0
56,58.68,61.05,0
56,58.63,61.00,0
57,58.59,60.96,0
56,58.54,60.91,0
56,58.49,60.86,0
56,58.44,60.81,0
56,58.39,60.77,0
56,58.35,60.72,0
56,58.30,60.67,0
56,58.25,60.63,0
56,58.21,60.58,0
56,58.16,60.53,0
56,58.12,60.49,0
56,58.08,60.44,0
56,58.04,60.40,0
58,58.04,60.37,0
56,57.99,60.33,0
57,57.97,60.30,0
56,57.94,60.25,0
56,57.90,60.21,0
56,57.86,60.17,0
56,57.82,60.13,0
55,57.77,60.08,0
57,57.75,60.05,0
56,57.71,60.01,0
55,57.66,59.96,0
56,57.63,59.92,0
56,57.59,59.88,0
58,57.60,59.86,0
55,57.55,59.81,0
56,57.52,59.77,0
54,57.45,59.71,0
55,57.40,59.67,0
55,57.35,59.62,0
55,57.31,59.57,0
56,57.28,59.54,0
55,57.23,59.49,0
55,57.19,59.45,0
56,57.17,59.41,0
56,57.14,59.38,0
55,57.10,59.34,0
58,57.12,59.32,0
55,57.07,59.28,0
55,57.03,59.24,0
52,56.93,59.16,0
54,56.87,59.11,0
55,56.84,59.07,0
54,56.78,59.02,0
54,56.72,58.97,0
54,56.67,58.92,0
54,56.62,58.87,0
54,56.56,58.82,0
54,56.51,58.77,0
55,56.48,58.74,0
56,56.47,58.71,0
55,56.44,58.67,0
54,56.39,58.63,0
57,56.41,58.61,0
55,56.38,58.57,0
55,56.35,58.54,0
54,56.30,58.49,0
56,56.30,58.47,0
56,56.29,58.44,0
55,56.27,58.41,0
54,56.22,58.36,0
55,56.20,58.33,0
56,56.19,58.31,0
54,56.15,58.26,0
54,56.11,58.22,0
55,56.08,58.19,0
57,56.10,58.18,0
56,56.10,58.16,0
54,56.06,58.11,0
56,56.06,58.09,0
55,56.04,58.06,0
54,55.99,58.02,0
54,55.95,57.98,0
55,55.94,57.95,0
55,55.92,57.92,0
54,55.88,57.88,0
54,55.84,57.84,0
55,55.82,57.81,0
54,55.79,57.78,0
54,55.75,57.74,0
56,55.76,57.72,0
55,55.74,57.69,0
55,55.73,57.67,0
54,55.69,57.63,0
55,55.68,57.60,0
55,55.67,57.58,0
55,55.65,57.55,0
54,55.62,57.52,0
56,55.63,57.50,0
54,55.59,57.47,0
54,55.56,57.43,0
54,55.53,57.40,0
55,55.52,57.37,0
54,55.49,57.34,0
57,55.52,57.34,0
54,55.49,57.30,0
54,55.46,57.27,0
56,55.47,57.26,0
54,55.44,57.23,0
54,55.41,57.19,0
55,55.40,57.17,0
54,55.38,57.14,0
54,55.35,57.11,0
54,55.32,57.08,0
54,55.30,57.05,0
56,55.31,57.04,0
54,55.28,57.01,0
54,55.26,56.98,0
56,55.27,56.97,0
54,55.25,56.94,0
56,55.26,56.93,0
55,55.26,56.91,0
55,55.25,56.89,0
54,55.23,56.86,0
54,55.20,56.83,0
54,55.18,56.80,0
55,55.17,56.78,0
54,55.15,56.76,0
54,55.13,56.73,0
54,55.11,56.70,0
55,55.10,56.68,0
54,55.08,56.66,0
56,55.10,56.65,0
54,55.08,56.62,0
54,55.06,56.60,0
56,55.07,56.59,0
54,55.05,56.57,0
54,55.03,56.54,0
54,55.01,56.52,0
54,54.99,56.49,0
53,54.95,56.46,0
54,54.93,56.43,0
54,54.91,56.41,0
56,54.94,56.40,0
54,54.92,56.38,0
54,54.90,56.35,0
54,54.88,56.33,0
53,54.84,56.30,0
54,54.83,56.27,0
54,54.81,56.25,0
54,54.79,56.23,0
53,54.76,56.20,0
53,54.72,56.17,0
54,54.71,56.14,0
54,54.69,56.12,0
53,54.66,56.09,0
54,54.65,56.07,0
54,54.63,56.05,0
54,54.62,56.03,0
53,54.59,56.00,0
54,54.58,55.98,0
54,54.57,55.96,0
54,54.55,55.94,0
56,54.58,55.94,0
55,54.59,55.93,0
54,54.58,55.91,0
54,54.57,55.89,0
56,54.60,55.89,0
56,54.62,55.89,0
54,54.61,55.88,0
54,54.60,55.86,0
55,54.61,55.85,0
54,54.60,55.83,0
54,54.58,55.81,0
54,54.57,55.79,0
55,54.58,55.79,0
56,54.61,55.79,0
54,54.60,55.77,0
54,54.58,55.75,0
56,54.61,55.75,0
54,54.60,55.74,0
54,54.59,55.72,0
55,54.60,55.71,0
54,54.59,55.69,0
54,54.57,55.68,0
54,54.56,55.66,0
56,54.59,55.66,0
56,54.62,55.67,0
54,54.61,55.65,0
56,54.63,55.65,0
54,54.62,55.64,0
55,54.63,55.63,0
55,54.64,55.63,0
54,54.62,55.61,0
54,54.61,55.59,0
55,54.62,55.59,0
54,54.61,55.57,0
54,54.59,55.56,0
54,54.58,55.54,0
54,54.57,55.52,0
54,54.56,55.51,0
54,54.55,55.49,0
54,54.54,55.48,0
54,54.53,55.46,0
54,54.52,55.45,0
55,54.53,55.45,0
56,54.56,55.45,0
55,54.56,55.45,0
54,54.55,55.43,0
54,54.54,55.42,0
56,54.57,55.42,0
55,54.58,55.42,0
54,54.57,55.41,0
56,54.60,55.41,0
55,54.60,55.41,0
56,54.63,55.41,0
54,54.62,55.40,0
54,54.61,55.38,0
55,54.62,55.38,0
54,54.60,55.37,0
56,54.63,55.37,0
56,54.66,55.38,0
55,54.67,55.38,0
55,54.67,55.37,0
56,54.70,55.38,0
55,54.70,55.37,0
56,54.73,55.38,0
55,54.74,55.38,0
56,54.76,55.38,0
55,54.77,55.38,0
55,54.77,55.38,0
55,54.78,55.37,0
55,54.78,55.37,0
56,54.80,55.37,0
55,54.81,55.37,0
56,54.83,55.38,0
56,54.86,55.38,0
55,54.86,55.38,0
55,54.86,55.38,0
56,54.88,55.38,0
56,54.91,55.39,0
55,54.91,55.38,0
55,54.91,55.38,0
58,54.97,55.41,0
56,54.99,55.41,0
55,54.99,55.41,0
55,54.99,55.40,0
55,54.99,55.40,0
56,55.01,55.41,0
55,55.01,55.40,0
54,54.99,55.39,0
57,55.03,55.40,0
56,55.05,55.41,0
56,55.07,55.42,0
56,55.09,55.42,0
56,55.11,55.43,0
56,55.13,55.43,0
56,55.14,55.44,0
56,55.16,55.44,0
56,55.18,55.45,0
56,55.19,55.46,0
56,55.21,55.46,0
56,55.23,55.47,0
57,55.26,55.48,0
60,55.36,55.53,0
56,55.37,55.53,0
56,55.38,55.54,0
57,55.41,55.55,0
57,55.45,55.57,0
58,55.50,55.59,0
60,55.59,55.63,0
59,55.65,55.67,0
58,55.70,55.69,0
58,55.75,55.71,0
59,55.81,55.75,0
58,55.86,55.77,0
61,55.96,55.82,0
58,56.00,55.84,0
58,56.04,55.87,0
58,56.08,55.89,0
55,56.06,55.88,0
58,56.10,55.90,0
60,56.17,55.94,0
59,56.23,55.97,0
58,56.27,55.99,0
58,56.30,56.01,0
58,56.34,56.03,0
58,56.37,56.05,0
58,56.40,56.07,0
60,56.47,56.11,0
60,56.54,56.15,0
59,56.59,56.18,0
58,56.62,56.20,0
60,56.69,56.23,0
60,56.75,56.27,0
59,56.80,56.30,0
58,56.82,56.32,0
59,56.87,56.34,0
60,56.93,56.38,0
59,56.97,56.40,0
58,56.99,56.42,0
58,57.01,56.44,0
59,57.05,56.46,0
58,57.07,56.48,0
60,57.13,56.51,0
58,57.15,56.53,0
60,57.20,56.56,0
58,57.22,56.58,0
60,57.28,56.61,0
60,57.33,56.64,0
58,57.34,56.66,0
60,57.40,56.69,0
62,57.49,56.74,0
60,57.54,56.78,0
60,57.59,56.81,0
60,57.64,56.84,0
63,57.74,56.90,0
60,57.79,56.93,0
60,57.83,56.96,0
60,57.88,57.00,0
60,57.92,57.03,0
60,57.96,57.05,0
60,58.00,57.08,0
61,58.06,57.12,0
61,58.12,57.16,0
60,58.16,57.19,0
62,58.23,57.24,0
60,58.27,57.27,0
61,58.32,57.30,0
60,58.36,57.33,0
60,58.39,57.36,0
60,58.42,57.38,0
61,58.47,57.42,0
60,58.50,57.45,0
61,58.55,57.48,0
62,58.62,57.53,0
60,58.65,57.55,0
60,58.68,57.58,0
60,58.70,57.60,0
61,58.75,57.63,0
60,58.78,57.66,0
59,58.78,57.67,0
60,58.80,57.69,0
60,58.83,57.72,0
61,58.87,57.75,0
60,58.89,57.77,0
60,58.92,57.79,0
61,58.96,57.83,0
60,58.98,57.85,0
59,58.98,57.86,0
60,59.00,57.88,0
61,59.04,57.91,0
62,59.10,57.95,0
62,59.16,57.99,0
62,59.21,58.03,0
62,59.27,58.07,0
62,59.32,58.11,0
62,59.38,58.15,0
60,59.39,58.17,0
62,59.44,58.21,0
62,59.49,58.25,0
61,59.52,58.27,0
62,59.57,58.31,0
62,59.62,58.35,0
64,59.71,58.40,0
64,59.80,58.46,0
64,59.88,58.52,0
65,59.98,58.58,0
64,60.06,58.64,0
64,60.14,58.69,0
66,60.26,58.76,0
65,60.35,58.82,0
64,60.43,58.88,0
64,60.50,58.93,0
64,60.57,58.98,0
64,60.64,59.03,0
64,60.70,59.08,0
66,60.81,59.15,0
64,60.87,59.20,0
64,60.94,59.24,0
66,61.04,59.31,0
66,61.14,59.38,0
68,61.27,59.46,0
66,61.37,59.53,0
66,61.46,59.59,0
68,61.59,59.68,0
68,61.72,59.76,0
68,61.85,59.84,0
68,61.97,59.93,0
68,62.09,60.01,0
68,62.21,60.09,0
68,62.32,60.17,0
68,62.44,60.24,0
68,62.55,60.32,0
68,62.66,60.40,0
65,62.70,60.44,0
68,62.81,60.52,0
70,62.95,60.61,0
70,63.09,60.71,0
70,63.23,60.80,0
70,63.37,60.89,0
70,63.50,60.98,0
70,63.63,61.07,0
70,63.76,61.16,0
71,63.90,61.26,0
70,64.02,61.35,0
69,64.12,61.43,0
70,64.24,61.51,0
73,64.42,61.63,0
72,64.57,61.73,0
72,64.72,61.83,0
72,64.86,61.93,0
73,65.03,62.05,0
73,65.18,62.16,0
72,65.32,62.25,0
71,65.43,62.34,0
72,65.57,62.44,0
72,65.69,62.53,0
72,65.82,62.63,0
73,65.96,62.73,0
72,66.09,62.82,0
73,66.22,62.93,0
73,66.36,63.03,0
73,66.49,63.13,0
76,66.68,63.26,0
73,66.81,63.35,0
74,66.95,63.46,0
77,67.15,63.59,0
75,67.31,63.71,0
74,67.44,63.81,0
76,67.62,63.93,0
76,67.78,64.05,0
76,67.95,64.17,0
76,68.11,64.29,0
76,68.27,64.41,0
77,68.44,64.53,0
77,68.61,64.66,0
77,68.78,64.78,0
77,68.94,64.91,0
77,69.11,65.03,0
76,69.24,65.14,0
76,69.38,65.24,0
76,69.51,65.35,0
77,69.66,65.47,0
77,69.81,65.58,0
78,69.97,65.71,0
77,70.11,65.82,0
79,70.29,65.95,0
80,70.48,66.09,0
79,70.65,66.22,0
79,70.82,66.35,0
81,71.02,66.50,0
80,71.20,66.63,0
80,71.38,66.77,0
79,71.53,66.89,0
80,71.70,67.02,0
80,71.87,67.15,0
82,72.07,67.30,0
82,72.27,67.44,0
82,72.46,67.59,0
82,72.65,67.73,0
82,72.84,67.88,0
82,73.02,68.02,0
82,73.20,68.16,0
82,73.38,68.30,0
82,73.55,68.43,0
82,73.72,68.57,0
82,73.89,68.70,0
84,74.09,68.86,0
82,74.25,68.99,0
84,74.44,69.14,0
86,74.67,69.31,0
86,74.90,69.47,0
84,75.08,69.62,0
84,75.26,69.76,0
84,75.44,69.90,0
86,75.65,70.07,0
88,75.89,70.24,0
86,76.10,70.40,0
86,76.29,70.56,0
86,76.49,70.71,0
88,76.72,70.89,0
87,76.92,71.05,0
90,77.19,71.24,0
92,77.48,71.44,0
92,77.77,71.65,0
92,78.06,71.85,0
92,78.34,72.05,0
94,78.65,72.27,0
90,78.88,72.45,0
92,79.14,72.65,0
93,79.42,72.85,0
93,79.69,73.05,0
94,79.97,73.26,0
96,80.29,73.49,0
94,80.57,73.69,0
96,80.88,73.92,0
94,81.14,74.12,0
94,81.40,74.32,0
94,81.65,74.51,0
96,81.94,74.73,0
94,82.18,74.92,0
98,82.49,75.15,0
95,82.74,75.35,0
94,82.97,75.54,0
95,83.21,75.73,0
95,83.44,75.92,0
94,83.66,76.10,0
94,83.86,76.28,0
94,84.07,76.46,0
94,84.26,76.64,0
94,84.46,76.81,0
94,84.65,76.98,0
96,84.88,77.17,0
96,85.10,77.36,0
95,85.30,77.54,0
96,85.51,77.72,0
95,85.70,77.89,0
92,85.83,78.04,0
95,86.01,78.20,0
97,86.23,78.39,0
97,86.45,78.58,0
100,86.72,78.79,0
103,87.04,79.03,0
104,87.38,79.28,0
104,87.71,79.53,0
107,88.10,79.81,0
108,88.50,80.09,0
108,88.89,80.37,0
105,89.21,80.61,0
106,89.55,80.87,0
108,89.91,81.14,0
105,90.22,81.38,0
108,90.57,81.64,0
109,90.94,81.92,0
109,91.30,82.19,0
110,91.68,82.47,0
108,92.00,82.72,0
109,92.34,82.98,0
109,92.68,83.24,0
109,93.00,83.50,0
109,93.32,83.76,0
109,93.64,84.01,0
109,93.94,84.26,0
110,94.26,84.52,0
110,94.58,84.77,0
111,94.91,85.03,0
111,95.23,85.29,0
111,95.54,85.55,0
111,95.85,85.81,0
111,96.16,86.06,0
110,96.43,86.30,0
110,96.70,86.53,0
110,96.97,86.77,0
110,97.23,87.00,0
109,97.47,87.22,0
109,97.70,87.44,0
110,97.94,87.66,0
109,98.16,87.88,0
109,98.38,88.09,0
111,98.63,88.32,0
110,98.86,88.53,0
109,99.06,88.74,0
111,99.30,88.96,0
110,99.52,89.17,0
109,99.71,89.37,0
111,99.93,89.59,0
111,100.15,89.80,0
109,100.33,89.99,0
109,100.50,90.18,0
108,100.65,90.36,0
109,100.82,90.55,0
108,100.96,90.72,0
109,101.12,90.90,0
108,101.26,91.08,0
108,101.40,91.24,0
108,101.53,91.41,0
108,101.66,91.58,0
108,101.79,91.74,0
107,101.89,91.90,0
108,102.01,92.06,0
110,102.17,92.24,0
108,102.29,92.39,0
108,102.40,92.55,0
108,102.51,92.70,0
108,102.62,92.86,0
109,102.75,93.02,0
109,102.88,93.18,0
110,103.02,93.35,0
108,103.12,93.49,0
108,103.22,93.64,0
110,103.35,93.80,0
110,103.48,93.96,0
111,103.64,94.13,0
110,103.76,94.29,0
112,103.93,94.47,0
110,104.05,94.62,0
110,104.17,94.78,0
110,104.28,94.93,0
110,104.40,95.08,0
110,104.51,95.23,0
111,104.64,95.39,0
109,104.73,95.52,0
112,104.87,95.69,0
110,104.98,95.83,0
110,105.08,95.97,0
109,105.15,96.10,0
110,105.25,96.24,0
108,105.31,96.36,0
108,105.36,96.48,0
108,105.41,96.59,0
108,105.46,96.71,0
108,105.52,96.82,0
111,105.63,96.96,0
108,105.67,97.07,0
108,105.72,97.18,0
108,105.76,97.29,0
108,105.81,97.40,0
108,105.85,97.50,0
108,105.90,97.61,0
108,105.94,97.71,0
107,105.96,97.80,0
106,105.96,97.89,0
106,105.96,97.97,0
106,105.96,98.05,0
106,105.96,98.13,0
106,105.96,98.21,0
106,105.96,98.28,0
106,105.97,98.36,0
111,106.07,98.49,0
106,106.06,98.56,0
108,106.10,98.66,0
106,106.10,98.73,0
108,106.14,98.82,0
106,106.14,98.89,0
105,106.11,98.96,0
105,106.09,99.02,0
105,106.07,99.08,0
105,106.05,99.14,0
105,106.03,99.19,0
104,105.99,99.24,0
103,105.93,99.28,0
104,105.89,99.33,0
108,105.93,99.41,0
104,105.89,99.46,0
107,105.91,99.53,0
104,105.88,99.58,0
105,105.86,99.63,0
106,105.86,99.70,0
108,105.90,99.78,0
105,105.89,99.83,0
106,105.89,99.89,0
105,105.87,99.95,0
106,105.87,100.01,0
105,105.86,100.06,0
105,105.84,100.11,0
105,105.82,100.15,0
105,105.81,100.20,0
105,105.79,100.25,0
105,105.77,100.30,0
105,105.76,100.35,0
105,105.74,100.39,0
105,105.73,100.44,0
104,105.69,100.47,0
104,105.66,100.51,0
105,105.65,100.55,0
104,105.61,100.59,0
104,105.58,100.62,0
104,105.55,100.66,0
104,105.52,100.69,0
103,105.47,100.71,0
105,105.46,100.76,0
103,105.41,100.78,0
103,105.36,100.80,0
103,105.31,100.82,0
103,105.27,100.84,0
107,105.30,100.91,0
104,105.28,100.94,0
103,105.23,100.96,0
103,105.19,100.98,0
103,105.14,101.00,0
103,105.10,101.02,0
103,105.06,101.04,0
102,105.00,101.05,0
101,104.92,101.05,0
102,104.86,101.06,0
101,104.78,101.06,0
101,104.71,101.06,0
101,104.63,101.05,0
101,104.56,101.05,0
101,104.49,101.05,0
101,104.42,101.05,0
99,104.31,101.03,0
102,104.26,101.04,0
100,104.18,101.03,0
99,104.07,101.01,0
100,103.99,101.00,0
100,103.91,100.99,0
100,103.83,100.98,0
100,103.76,100.97,0
99,103.66,100.95,0
100,103.59,100.94,0
99,103.50,100.92,0
99,103.41,100.90,0
98,103.30,100.87,0
98,103.19,100.85,0
98,103.09,100.82,0
100,103.03,100.81,0
99,102.95,100.79,0
98,102.85,100.76,0
98,102.75,100.74,0
98,102.66,100.71,0
99,102.58,100.69,0
98,102.49,100.66,0
98,102.40,100.64,0
98,102.31,100.61,0
100,102.27,100.61,0
97,102.16,100.57,0
97,102.06,100.53,0
97,101.96,100.50,0
96,101.84,100.45,0
97,101.74,100.42,0
96,101.63,100.37,0
96,101.51,100.33,0
96,101.40,100.29,0
96,101.30,100.24,0
96,101.19,100.20,0
97,101.11,100.17,0
96,101.00,100.13,0
96,100.90,100.09,0
96,100.81,100.05,0
95,100.69,100.00,0
95,100.58,99.95,0
95,100.46,99.90,0
95,100.36,99.85,0
95,100.25,99.80,0
97,100.18,99.77,0
96,100.10,99.73,0
96,100.02,99.70,0
95,99.92,99.65,0
95,99.82,99.60,0
95,99.72,99.56,0
94,99.61,99.50,0
95,99.52,99.46,0
95,99.43,99.41,0
94,99.32,99.36,0
94,99.21,99.30,0
94,99.11,99.25,0
94,99.00,99.20,0
94,98.90,99.15,0
94,98.81,99.09,0
94,98.71,99.04,0
94,98.62,98.99,0
94,98.52,98.94,0
94,98.43,98.89,0
94,98.34,98.84,0
94,98.26,98.80,0
94,98.17,98.75,0
94,98.09,98.70,0
94,98.01,98.65,0
93,97.91,98.60,0
92,97.79,98.53,0
92,97.67,98.47,0
92,97.56,98.40,0
93,97.47,98.35,0
94,97.40,98.30,0
92,97.29,98.24,0
92,97.19,98.18,0
92,97.08,98.12,0
92,96.98,98.06,0
92,96.88,98.00,0
92,96.78,97.94,0
92,96.69,97.88,0
94,96.63,97.84,0
93,96.56,97.79,0
92,96.47,97.73,0
93,96.40,97.68,0
92,96.31,97.63,0
92,96.23,97.57,0
92,96.14,97.51,0
91,96.04,97.45,0
92,95.96,97.39,0
90,95.84,97.32,0
92,95.76,97.27,0
90,95.65,97.20,0
90,95.53,97.12,0
90,95.42,97.05,0
90,95.31,96.98,0
90,95.21,96.91,0
90,95.10,96.84,0
90,95.00,96.77,0
90,94.90,96.71,0
90,94.80,96.64,0
91,94.73,96.58,0
90,94.63,96.52,0
89,94.52,96.44,0
91,94.45,96.39,0
89,94.34,96.31,0
89,94.23,96.24,0
87,94.09,96.15,0
89,93.99,96.08,0
89,93.89,96.01,0
92,93.85,95.97,0
90,93.77,95.91,0
92,93.74,95.87,0
92,93.70,95.83,0
89,93.61,95.76,0
89,93.52,95.69,0
88,93.41,95.62,0
88,93.30,95.54,0
89,93.21,95.47,0
88,93.11,95.40,0
89,93.03,95.34,0
88,92.93,95.26,0
88,92.83,95.19,0
88,92.73,95.12,0
89,92.66,95.06,0
88,92.56,94.99,0
88,92.47,94.92,0
89,92.40,94.86,0
88,92.31,94.79,0
88,92.23,94.72,0
88,92.14,94.65,0
87,92.04,94.58,0
88,91.96,94.51,0
88,91.88,94.45,0
88,91.80,94.38,0
88,91.73,94.32,0
88,91.65,94.25,0
88,91.58,94.19,0
86,91.47,94.11,0
86,91.36,94.03,0
87,91.27,93.96,0
87,91.19,93.89,0
87,91.10,93.82,0
86,91.00,93.74,0
86,90.90,93.66,0
86,90.80,93.59,0
86,90.71,93.51,0
86,90.61,93.44,0
86,90.52,93.36,0
86,90.43,93.29,0
86,90.34,93.22,0
86,90.25,93.14,0
86,90.17,93.07,0
86,90.09,93.00,0
86,90.00,92.93,0
86,89.92,92.86,0
86,89.85,92.79,0
86,89.77,92.73,0
86,89.69,92.66,0
86,89.62,92.59,0
85,89.53,92.52,0
85,89.44,92.44,0
84,89.33,92.36,0
85,89.24,92.28,0
85,89.16,92.21,0
84,89.05,92.13,0
84,88.95,92.05,0
86,88.89,91.99,0
84,88.79,91.91,0
84,88.70,91.83,0
84,88.61,91.75,0
85,88.53,91.68,0
85,88.46,91.61,0
84,88.37,91.54,0
84,88.29,91.46,0
84,88.20,91.39,0
83,88.10,91.30,0
83,87.99,91.22,0
84,87.91,91.15,0
84,87.84,91.08,0
84,87.76,91.01,0
86,87.72,90.96,0
84,87.65,90.89,0
84,87.58,90.82,0
82,87.46,90.73,0
82,87.36,90.64,0
84,87.29,90.58,0
83,87.20,90.50,0
82,87.10,90.42,0
82,87.00,90.33,0
82,86.90,90.25,0
82,86.80,90.17,0
83,86.72,90.09,0
82,86.63,90.01,0
82,86.54,89.93,0
82,86.45,89.85,0
82,86.36,89.78,0
81,86.25,89.69,0
82,86.16,89.61,0
82,86.08,89.53,0
82,86.00,89.46,0
81,85.90,89.37,0
82,85.82,89.30,0
82,85.74,89.23,0
84,85.71,89.18,0
82,85.64,89.10,0
82,85.56,89.03,0
82,85.49,88.96,0
83,85.44,88.90,0
82,85.37,88.83,0
82,85.31,88.77,0
82,85.24,88.70,0
81,85.15,88.62,0
82,85.09,88.55,0
82,85.03,88.49,0
82,84.97,88.42,0
81,84.89,88.35,0
84,84.87,88.31,0
80,84.77,88.22,0
80,84.68,88.14,0
83,84.65,88.09,0
81,84.57,88.02,0
80,84.48,87.94,0
80,84.39,87.86,0
81,84.32,87.79,0
80,84.24,87.71,0
80,84.15,87.64,0
80,84.07,87.56,0
80,83.99,87.48,0
80,83.91,87.41,0
80,83.83,87.33,0
78,83.71,87.24,0
81,83.66,87.18,0
80,83.59,87.11,0
78,83.47,87.02,0
79,83.38,86.94,0
80,83.32,86.87,0
80,83.25,86.80,0
79,83.17,86.72,0
80,83.10,86.65,0
80,83.04,86.59,0
80,82.98,86.52,0
78,82.88,86.44,0
79,82.80,86.36,0
79,82.73,86.29,0
80,82.67,86.22,0
78,82.58,86.14,0
79,82.51,86.07,0
79,82.44,86.00,0
78,82.35,85.92,0
78,82.26,85.84,0
78,82.18,85.76,0
78,82.09,85.68,0
78,82.01,85.61,0
78,81.93,85.53,0
78,81.85,85.46,0
79,81.79,85.39,0
78,81.72,85.32,0
78,81.64,85.24,0
78,81.57,85.17,0
79,81.52,85.11,0
78,81.45,85.04,0
78,81.38,84.97,0
78,81.31,84.90,0
78,81.25,84.83,0
78,81.18,84.76,0
78,81.12,84.69,0
78,81.06,84.63,0
77,80.97,84.55,0
80,80.96,84.51,0
78,80.90,84.44,0
77,80.82,84.37,0
78,80.76,84.30,0
78,80.71,84.24,0
78,80.65,84.18,0
77,80.58,84.11,0
76,80.49,84.02,0
78,80.44,83.96,0
76,80.35,83.88,0
77,80.28,83.82,0
78,80.24,83.76,0
76,80.15,83.68,0
76,80.07,83.60,0
76,79.99,83.53,0
76,79.91,83.45,0
77,79.85,83.39,0
76,79.77,83.31,0
76,79.70,83.24,0
78,79.66,83.19,0
76,79.59,83.12,0
76,79.52,83.04,0
76,79.45,82.97,0
76,79.38,82.90,0
77,79.33,82.85,0
76,79.26,82.78,0
75,79.18,82.70,0
77,79.14,82.64,0
77,79.09,82.59,0
76,79.03,82.52,0
76,78.97,82.45,0
75,78.89,82.38,0
77,78.85,82.33,0
75,78.78,82.25,0
75,78.70,82.18,0
77,78.67,82.13,0
76,78.61,82.07,0
74,78.52,81.99,0
74,78.43,81.91,0
75,78.36,81.84,0
75,78.29,81.77,0
74,78.21,81.69,0
74,78.12,81.62,0
74,78.04,81.54,0
74,77.96,81.46,0
74,77.88,81.39,0
74,77.80,81.31,0
74,77.73,81.24,0
74,77.65,81.17,0
74,77.58,81.10,0
74,77.51,81.03,0
76,77.48,80.98,0
75,77.43,80.92,0
74,77.36,80.85,0
74,77.29,80.78,0
75,77.25,80.72,0
74,77.18,80.65,0
74,77.12,80.59,0
74,77.06,80.52,0
73,76.98,80.45,0
75,76.94,80.39,0
74,76.88,80.33,0
74,76.82,80.26,0
75,76.78,80.21,0
74,76.73,80.15,0
74,76.67,80.09,0
74,76.62,80.03,0
74,76.57,79.97,0
71,76.46,79.88,0
74,76.41,79.82,0
74,76.36,79.76,0
73,76.29,79.69,0
72,76.21,79.62,0
72,76.12,79.54,0
74,76.08,79.48,0
74,76.04,79.43,0
74,76.00,79.38,0
72,75.92,79.30,0
74,75.88,79.25,0
72,75.80,79.18,0
72,75.73,79.10,0
72,75.65,79.03,0
72,75.58,78.96,0
72,75.51,78.89,0
72,75.44,78.82,0
72,75.37,78.76,0
72,75.30,78.69,0
72,75.23,78.62,0
72,75.17,78.56,0
72,75.11,78.49,0
72,75.04,78.43,0
72,74.98,78.36,0
72,74.92,78.30,0
72,74.86,78.23,0
72,74.81,78.17,0
73,74.77,78.12,0
72,74.72,78.06,0
72,74.66,78.00,0
72,74.61,77.94,0
71,74.54,77.87,0
71,74.47,77.80,0
72,74.42,77.74,0
71,74.35,77.68,0
71,74.28,77.61,0
72,74.24,77.55,0
72,74.19,77.50,0
72,74.15,77.44,0
74,74.14,77.41,0
72,74.10,77.35,0
72,74.06,77.30,0
72,74.02,77.25,0
70,73.94,77.17,0
72,73.90,77.12,0
71,73.84,77.06,0
72,73.80,77.01,0
70,73.73,76.94,0
71,73.67,76.88,0
71,73.62,76.82,0
71,73.57,76.76,0
71,73.52,76.71,0
70,73.45,76.64,0
70,73.38,76.57,0
70,73.31,76.51,0
72,73.28,76.46,0
70,73.22,76.40,0
70,73.15,76.33,0
70,73.09,76.27,0
71,73.05,76.22,0
70,72.99,76.16,0
70,72.93,76.09,0
71,72.89,76.04,0
69,72.81,75.97,0
71,72.77,75.92,0
70,72.72,75.86,0
70,72.67,75.80,0
70,72.61,75.75,0
70,72.56,75.69,0
70,72.51,75.63,0
70,72.46,75.58,0
69,72.39,75.51,0
69,72.32,75.45,0
70,72.27,75.39,0
68,72.19,75.32,0
70,72.15,75.26,0
68,72.06,75.19,0
68,71.98,75.12,0
70,71.94,75.07,0
69,71.88,75.01,0
68,71.81,74.94,0
68,71.73,74.87,0
68,71.65,74.80,0
70,71.62,74.75,0
68,71.55,74.68,0
68,71.48,74.62,0
70,71.45,74.57,0
69,71.40,74.51,0
68,71.33,74.45,0
68,71.26,74.39,0
70,71.24,74.34,0
69,71.19,74.29,0
68,71.13,74.23,0
68,71.07,74.16,0
68,71.01,74.10,0
69,70.97,74.05,0
68,70.91,73.99,0
68,70.85,73.93,0
68,70.79,73.87,0
68,70.74,73.81,0
68,70.68,73.75,0
68,70.63,73.70,0
69,70.60,73.65,0
67,70.52,73.58,0
68,70.47,73.53,0
68,70.42,73.47,0
68,70.38,73.42,0
72,70.41,73.40,0
68,70.36,73.35,0
68,70.31,73.30,0
66,70.23,73.22,0
67,70.16,73.16,0
68,70.12,73.11,0
68,70.08,73.06,0
67,70.01,73.00,0
67,69.95,72.94,0
66,69.88,72.87,0
68,69.84,72.82,0
66,69.76,72.75,0
66,69.69,72.68,0
70,69.69,72.66,0
66,69.62,72.59,0
67,69.57,72.53,0
65,69.47,72.46,0
69,69.46,72.42,0
68,69.44,72.38,0
67,69.39,72.33,0
66,69.32,72.26,0
67,69.27,72.21,0
66,69.21,72.15,0
66,69.14,72.09,0
68,69.12,72.05,0
67,69.08,72.00,0
66,69.02,71.94,0
66,68.96,71.88,0
66,68.90,71.82,0
66,68.84,71.76,0
66,68.78,71.70,0
66,68.73,71.64,0
67,68.69,71.60,0
66,68.64,71.54,0
66,68.59,71.49,0
64,68.49,71.41,0
67,68.46,71.37,0
66,68.41,71.31,0
66,68.37,71.26,0
64,68.28,71.19,0
65,68.21,71.13,0
65,68.15,71.06,0
64,68.07,70.99,0
65,68.00,70.93,0
65,67.94,70.88,0
65,67.89,70.82,0
66,67.85,70.77,0
64,67.77,70.70,0
65,67.72,70.64,0
66,67.68,70.60,0
64,67.61,70.53,0
64,67.54,70.47,0
65,67.48,70.41,0
64,67.42,70.35,0
64,67.35,70.28,0
64,67.28,70.22,0
65,67.23,70.17,0
64,67.17,70.11,0
64,67.11,70.05,0
64,67.04,69.99,0
65,67.00,69.94,0
64,66.94,69.88,0
64,66.88,69.82,0
64,66.83,69.76,0
64,66.77,69.70,0
64,66.71,69.64,0
62,66.62,69.57,0
64,66.57,69.51,0
64,66.52,69.46,0
64,66.47,69.40,0
64,66.42,69.35,0
64,66.37,69.30,0
64,66.32,69.24,0
64,66.27,69.19,0
64,66.23,69.14,0
64,66.18,69.09,0
64,66.14,69.04,0
64,66.10,68.99,0
64,66.06,68.94,0
64,66.02,68.89,0
64,65.97,68.84,0
64,65.94,68.79,0
64,65.90,68.74,0
64,65.86,68.69,0
64,65.82,68.65,0
64,65.79,68.60,0
64,65.75,68.55,0
64,65.71,68.51,0
64,65.68,68.46,0
66,65.69,68.44,0
65,65.67,68.40,0
64,65.64,68.36,0
65,65.63,68.33,0
66,65.63,68.30,0
64,65.60,68.26,0
64,65.57,68.22,0
64,65.54,68.18,0
64,65.51,68.13,0
64,65.48,68.09,0
64,65.45,68.05,0
63,65.40,68.00,0
64,65.37,67.96,0
64,65.34,67.92,0
64,65.32,67.88,0
64,65.29,67.84,0
63,65.24,67.80,0
64,65.22,67.76,0
68,65.27,67.76,0
64,65.25,67.72,0
64,65.22,67.68,0
63,65.18,67.64,0
64,65.16,67.60,0
63,65.11,67.56,0
65,65.11,67.53,0
64,65.09,67.49,0
67,65.13,67.49,0
65,65.12,67.46,0
64,65.10,67.43,0
64,65.08,67.40,0
63,65.04,67.35,0
63,65.00,67.31,0
63,64.96,67.27,0
64,64.94,67.23,0
64,64.92,67.20,0
64,64.90,67.17,0
64,64.88,67.14,0
64,64.87,67.11,0
62,64.81,67.05,0
63,64.77,67.01,0
64,64.76,66.98,0
64,64.74,66.95,0
64,64.73,66.92,0
63,64.69,66.88,0
64,64.68,66.86,0
64,64.66,66.83,0
62,64.61,66.78,0
65,64.62,66.76,0
64,64.61,66.73,0
64,64.59,66.71,0
64,64.58,66.68,0
65,64.59,66.66,0
64,64.58,66.64,0
65,64.59,66.62,0
66,64.62,66.61,0
67,64.66,66.62,0
66,64.69,66.61,0
64,64.68,66.59,0
64,64.66,66.56,0
65,64.67,66.54,0
67,64.72,66.55,0
66,64.74,66.54,0
64,64.73,66.52,0
65,64.73,66.50,0
64,64.72,66.48,0
64,64.70,66.45,0
64,64.69,66.43,0
65,64.70,66.41,0
65,64.70,66.40,0
64,64.69,66.38,0
65,64.69,66.36,0
65,64.70,66.35,0
65,64.71,66.33,0
64,64.69,66.31,0
64,64.68,66.29,0
64,64.66,66.27,0
64,64.65,66.24,0
64,64.64,66.22,0
66,64.67,66.22,0
65,64.67,66.21,0
64,64.66,66.18,0
64,64.65,66.16,0
64,64.63,66.14,0
65,64.64,66.13,0
64,64.63,66.11,0
65,64.63,66.10,0
64,64.62,66.08,0
64,64.61,66.05,0
64,64.60,66.03,0
64,64.59,66.01,0
64,64.57,65.99,0
64,64.56,65.97,0
64,64.55,65.95,0
64,64.54,65.93,0
65,64.55,65.93,0
64,64.54,65.91,0
65,64.55,65.90,0
65,64.56,65.89,0
65,64.57,65.88,0
64,64.55,65.86,0
64,64.54,65.84,0
64,64.53,65.82,0
64,64.52,65.81,0
64,64.51,65.79,0
64,64.50,65.77,0
64,64.49,65.75,0
64,64.48,65.73,0
64,64.47,65.72,0
65,64.48,65.71,0
64,64.47,65.69,0
65,64.48,65.69,0
64,64.47,65.67,0
67,64.52,65.68,0
65,64.53,65.68,0
64,64.52,65.66,0
65,64.53,65.65,0
65,64.54,65.65,0
64,64.53,65.63,0
64,64.52,65.61,0
66,64.55,65.62,0
64,64.54,65.60,0
65,64.55,65.59,0
64,64.54,65.58,0
65,64.55,65.57,0
64,64.54,65.56,0
64,64.52,65.54,0
65,64.53,65.54,0
65,64.54,65.53,0
64,64.53,65.52,0
64,64.52,65.50,0
64,64.51,65.48,0
65,64.52,65.48,0
66,64.55,65.49,0
66,64.58,65.49,0
64,64.57,65.48,0
65,64.58,65.47,0
64,64.57,65.46,0
64,64.55,65.44,0
64,64.54,65.43,0
65,64.55,65.42,0
65,64.56,65.42,0
68,64.63,65.44,0
66,64.66,65.45,0
65,64.66,65.45,0
65,64.67,65.44,0
64,64.66,65.43,0
64,64.64,65.41,0
65,64.65,65.41,0
65,64.66,65.40,0
64,64.65,65.39,0
64,64.63,65.38,0
65,64.64,65.37,0
65,64.65,65.37,0
64,64.63,65.36,0
64,64.62,65.34,0
65,64.63,65.34,0
66,64.66,65.34,0
64,64.64,65.33,0
65,64.65,65.33,0
66,64.68,65.33,0
64,64.66,65.32,0
66,64.69,65.33,0
66,64.72,65.33,0
66,64.74,65.34,0
66,64.77,65.35,0
66,64.79,65.35,0
66,64.82,65.36,0
66,64.84,65.37,0
65,64.84,65.36,0
66,64.87,65.37,0
66,64.89,65.38,0
66,64.91,65.38,0
66,64.93,65.39,0
64,64.91,65.37,0
66,64.94,65.38,0
65,64.94,65.38,0
66,64.96,65.38,0
66,64.98,65.39,0
66,65.00,65.40,0
66,65.02,65.40,0
66,65.04,65.41,0
68,65.10,65.43,0
67,65.14,65.45,0
66,65.15,65.46,0
67,65.19,65.47,0
68,65.25,65.50,0
67,65.28,65.51,0
66,65.30,65.52,0
68,65.35,65.54,0
68,65.40,65.57,0
67,65.44,65.58,0
66,65.45,65.58,0
66,65.46,65.59,0
65,65.45,65.58,0
67,65.48,65.60,0
67,65.51,65.61,0
68,65.56,65.63,0
68,65.61,65.66,0
68,65.66,65.68,0
68,65.70,65.70,0
68,65.75,65.73,0
68,65.79,65.75,0
68,65.84,65.77,0
69,65.90,65.80,0
68,65.94,65.83,0
70,66.02,65.87,0
69,66.08,65.90,0
70,66.16,65.94,0
70,66.24,65.98,0
69,66.29,66.01,0
70,66.37,66.05,0
69,66.42,66.08,0
69,66.47,66.11,0
69,66.52,66.14,0
70,66.59,66.18,0
70,66.66,66.22,0
70,66.73,66.25,0
70,66.79,66.29,0
70,66.86,66.33,0
69,66.90,66.36,0
70,66.96,66.39,0
70,67.02,66.43,0
70,67.08,66.46,0
69,67.12,66.49,0
70,67.18,66.52,0
70,67.23,66.56,0
70,67.29,66.59,0
71,67.36,66.64,0
71,67.44,66.68,0
70,67.49,66.71,0
71,67.56,66.76,0
71,67.63,66.80,0
71,67.69,66.84,0
70,67.74,66.87,0
70,67.79,66.90,0
72,67.87,66.95,0
72,67.95,67.01,0
70,67.99,67.04,0
70,68.03,67.06,0
71,68.09,67.10,0
70,68.13,67.13,0
70,68.17,67.16,0
70,68.21,67.19,0
72,68.28,67.24,0
70,68.32,67.27,0
70,68.35,67.29,0
70,68.38,67.32,0
71,68.43,67.36,0
70,68.47,67.38,0
70,68.50,67.41,0
72,68.57,67.46,0
71,68.62,67.49,0
70,68.64,67.52,0
70,68.67,67.54,0
70,68.70,67.57,0
71,68.74,67.60,0
72,68.81,67.64,0
72,68.87,67.69,0
72,68.93,67.73,0
71,68.98,67.76,0
72,69.04,67.81,0
70,69.06,67.83,0
70,69.07,67.85,0
72,69.13,67.89,0
72,69.19,67.93,0
72,69.25,67.97,0
73,69.32,68.02,0
72,69.38,68.06,0
74,69.47,68.12,0
74,69.56,68.18,0
74,69.65,68.24,0
74,69.73,68.30,0
71,69.76,68.32,0
73,69.82,68.37,0
75,69.93,68.44,0
74,70.01,68.49,0
77,70.15,68.58,0
76,70.27,68.65,0
75,70.36,68.72,0
74,70.43,68.77,0
74,70.51,68.82,0
76,70.61,68.89,0
76,70.72,68.96,0
75,70.81,69.02,0
76,70.91,69.09,0
76,71.01,69.16,0
76,71.11,69.23,0
76,71.21,69.30,0
76,71.31,69.37,0
76,71.40,69.43,0
78,71.53,69.52,0
79,71.68,69.61,0
79,71.83,69.71,0
78,71.95,69.79,0
78,72.07,69.87,0
84,72.31,70.01,0
84,72.55,70.15,0
82,72.73,70.27,0
82,72.92,70.39,0
82,73.10,70.50,0
84,73.32,70.64,0
84,73.53,70.77,0
84,73.74,70.91,0
85,73.97,71.05,0
84,74.17,71.18,0
83,74.34,71.29,0
83,74.52,71.41,0
84,74.71,71.54,0
84,74.89,71.66,0
84,75.08,71.78,0
83,75.23,71.90,0
85,75.43,72.03,0
86,75.64,72.17,0
84,75.81,72.29,0
83,75.95,72.39,0
84,76.11,72.51,0
84,76.27,72.62,0
84,76.42,72.74,0
83,76.56,72.84,0
84,76.71,72.95,0
85,76.87,73.07,0
86,77.05,73.20,0
86,77.23,73.33,0
87,77.43,73.47,0
88,77.64,73.61,0
88,77.85,73.76,0
88,78.05,73.90,0
91,78.31,74.07,0
90,78.54,74.23,0
90,78.77,74.39,0
90,79.00,74.54,0
92,79.26,74.72,0
91,79.49,74.88,0
92,79.74,75.05,0
92,79.99,75.22,0
92,80.23,75.39,0
92,80.46,75.55,0
92,80.69,75.72,0
93,80.94,75.89,0
94,81.20,76.07,0
94,81.46,76.25,0
94,81.71,76.43,0
97,82.01,76.64,0
95,82.27,76.82,0
96,82.55,77.01,0
96,82.82,77.20,0
96,83.08,77.39,0
95,83.32,77.56,0
96,83.57,77.75,0
96,83.82,77.93,0
96,84.06,78.11,0
95,84.28,78.28,0
96,84.52,78.46,0
96,84.75,78.63,0
98,85.01,78.83,0
98,85.27,79.02,0
96,85.49,79.19,0
98,85.74,79.38,0
98,85.98,79.56,0
97,86.20,79.74,0
100,86.48,79.94,0
99,86.73,80.13,0
99,86.97,80.32,0
99,87.21,80.51,0
100,87.47,80.70,0
100,87.72,80.89,0
101,87.99,81.10,0
101,88.25,81.29,0
100,88.48,81.48,0
101,88.73,81.68,0
102,89.00,81.88,0
103,89.28,82.09,0
103,89.55,82.30,0
101,89.78,82.49,0
103,90.05,82.69,0
103,90.30,82.90,0
105,90.60,83.12,0
103,90.85,83.32,0
104,91.11,83.52,0
106,91.41,83.75,0
107,91.72,83.98,0
107,92.02,84.21,0
106,92.30,84.43,0
106,92.58,84.64,0
105,92.83,84.85,0
105,93.07,85.05,0
107,93.35,85.27,0
110,93.68,85.52,0
111,94.03,85.77,0
113,94.41,86.04,0
112,94.76,86.30,0
112,95.10,86.56,0
115,95.50,86.84,0
117,95.93,87.14,0
116,96.33,87.43,0
116,96.73,87.72,0
116,97.11,88.00,0
116,97.49,88.28,0
116,97.86,88.56,0
116,98.22,88.83,0
117,98.60,89.12,0
117,98.97,89.39,0
117,99.33,89.67,0
119,99.72,89.96,0
118,100.09,90.24,0
117,100.42,90.51,0
118,100.78,90.79,0
118,101.12,91.06,0
117,101.44,91.32,0
117,101.75,91.57,0
118,102.07,91.84,0
118,102.39,92.10,0
118,102.71,92.36,0
118,103.01,92.62,0
119,103.33,92.88,0
118,103.62,93.13,0
118,103.91,93.38,0
118,104.19,93.63,0
118,104.47,93.87,0
118,104.74,94.11,0
119,105.03,94.36,0
118,105.28,94.60,0
120,105.58,94.85,0
118,105.83,95.08,0
120,106.11,95.33,0
120,106.39,95.58,0
122,106.70,95.84,0
120,106.97,96.08,0
122,107.27,96.34,0
121,107.54,96.59,0
120,107.79,96.82,0
121,108.06,97.06,0
123,108.35,97.32,0
124,108.67,97.59,0
122,108.93,97.84,0
124,109.24,98.10,0
124,109.53,98.36,0
126,109.86,98.63,0
126,110.18,98.91,0
126,110.50,99.18,0
128,110.85,99.47,0
129,111.21,99.76,0
128,111.55,100.04,0
129,111.90,100.33,0
129,112.24,100.62,0
129,112.57,100.90,0
129,112.90,101.18,0
129,113.22,101.46,0
129,113.54,101.74,0
129,113.85,102.01,0
129,114.15,102.28,0
130,114.47,102.56,0
131,114.80,102.84,0
130,115.10,103.11,0
132,115.44,103.40,0
132,115.77,103.69,0
131,116.08,103.96,0
131,116.38,104.23,0
131,116.67,104.50,0
131,116.96,104.76,0
133,117.28,105.05,0
132,117.57,105.32,0
132,117.86,105.58,0
132,118.14,105.85,0
133,118.44,106.12,0
134,118.75,106.40,0
134,119.06,106.67,0
134,119.35,106.95,0
134,119.65,107.22,0
135,119.95,107.50,0
137,120.30,107.79,0
137,120.63,108.08,0
135,120.92,108.35,0
136,121.22,108.63,0
136,121.51,108.90,0
137,121.82,109.18,0
135,122.09,109.44,0
137,122.39,109.72,0
137,122.68,109.99,0
137,122.96,110.26,0
137,123.25,110.53,0
136,123.50,110.78,0
136,123.75,111.03,0
138,124.04,111.30,0
137,124.29,111.56,0
137,124.55,111.81,0
140,124.86,112.10,0
138,125.12,112.36,0
139,125.40,112.62,0
139,125.67,112.89,0
139,125.94,113.15,0
138,126.18,113.40,0
139,126.43,113.65,0
138,126.67,113.90,0
139,126.91,114.15,0
138,127.13,114.38,0
138,127.35,114.62,0
137,127.54,114.84,0
137,127.73,115.07,0
137,127.92,115.29,0
137,128.10,115.50,0
137,128.28,115.72,0
138,128.47,115.94,0
137,128.64,116.15,0
138,128.83,116.37,0
139,129.03,116.60,0
137,129.19,116.80,0
137,129.35,117.00,0
137,129.50,117.20,0
138,129.67,117.41,0
137,129.82,117.61,0
137,129.96,117.80,0
136,130.08,117.98,0
136,130.20,118.16,0
137,130.34,118.35,0
137,130.47,118.54,0
136,130.58,118.71,0
137,130.71,118.89,0
136,130.82,119.07,0
136,130.92,119.23,0
136,131.02,119.40,0
136,131.12,119.57,0
136,131.22,119.73,0
136,131.31,119.90,0
136,131.41,120.06,0
135,131.48,120.21,0
137,131.59,120.37,0
135,131.66,120.52,0
135,131.72,120.66,0
135,131.79,120.81,0
135,131.85,120.95,0
135,131.92,121.09,0
135,131.98,121.23,0
133,132.00,121.35,0
133,132.02,121.46,0
135,132.08,121.60,0
131,132.06,121.69,0
134,132.10,121.82,0
133,132.11,121.93,0
133,132.13,122.04,0
134,132.17,122.16,0
133,132.19,122.27,0
133,132.20,122.37,0
133,132.22,122.48,0
133,132.23,122.59,0
134,132.27,122.70,0
133,132.28,122.80,0
134,132.32,122.91,0
134,132.35,123.03,0
133,132.36,123.13,0
131,132.34,123.20,0
132,132.33,123.29,0
132,132.32,123.38,0
131,132.30,123.46,0
132,132.29,123.54,0
131,132.27,123.62,0
132,132.26,123.70,0
131,132.24,123.77,0
132,132.23,123.85,0
131,132.21,123.93,0
132,132.20,124.01,0
129,132.14,124.06,0
130,132.10,124.12,0
130,132.05,124.18,0
130,132.01,124.23,0
129,131.95,124.28,0
129,131.89,124.33,0
129,131.84,124.37,0
130,131.80,124.43,0
131,131.78,124.50,0
130,131.75,124.55,0
129,131.69,124.60,0
129,131.64,124.64,0
129,131.59,124.68,0
129,131.53,124.73,0
132,131.54,124.80,0
129,131.49,124.84,0
129,131.44,124.88,0
129,131.39,124.92,0
129,131.35,124.97,0
129,131.30,125.01,0
129,131.25,125.05,0
128,131.19,125.08,0
128,131.12,125.10,0
128,131.06,125.13,0
128,131.00,125.16,0
128,130.94,125.19,0
128,130.88,125.22,0
128,130.82,125.25,0
126,130.73,125.25,0
127,130.65,125.27,0
123,130.50,125.25,0
127,130.43,125.27,0
127,130.36,125.28,0
126,130.27,125.29,0
126,130.19,125.30,0
127,130.12,125.31,0
125,130.02,125.31,0
125,129.92,125.31,0
125,129.82,125.31,0
125,129.73,125.30,0
125,129.63,125.30,0
126,129.56,125.31,0
125,129.47,125.30,0
125,129.38,125.30,0
125,129.29,125.30,0
125,129.21,125.29,0
125,129.12,125.29,0
125,129.04,125.29,0
125,128.96,125.29,0
124,128.86,125.27,0
125,128.78,125.27,0
123,128.67,125.25,0
124,128.57,125.23,0
125,128.50,125.23,0
125,128.43,125.23,0
125,128.36,125.23,0
125,128.30,125.23,0
125,128.23,125.22,0
125,128.17,125.22,0
125,128.10,125.22,0
124,128.02,125.21,0
124,127.94,125.19,0
123,127.84,125.17,0
123,127.74,125.15,0
123,127.65,125.13,0
123,127.56,125.11,0
123,127.46,125.09,0
124,127.40,125.08,0
123,127.31,125.06,0
126,127.28,125.06,0
123,127.20,125.04,0
123,127.11,125.02,0
123,127.03,125.00,0
122,126.93,124.97,0
122,126.83,124.94,0
123,126.75,124.92,0
122,126.66,124.90,0
121,126.55,124.86,0
121,126.43,124.82,0
121,126.33,124.78,0
122,126.24,124.75,0
121,126.13,124.71,0
121,126.03,124.68,0
121,125.93,124.64,0
121,125.83,124.60,0
120,125.72,124.56,0
121,125.62,124.52,0
119,125.49,124.47,0
119,125.36,124.41,0
120,125.25,124.37,0
119,125.13,124.31,0
119,125.00,124.26,0
119,124.88,124.21,0
119,124.77,124.16,0
119,124.65,124.11,0
121,124.58,124.07,0
120,124.49,124.03,0
120,124.40,123.99,0
119,124.29,123.94,0
119,124.18,123.89,0
119,124.08,123.84,0
120,124.00,123.81,0
118,123.88,123.75,0
118,123.76,123.69,0
119,123.67,123.64,0
119,123.57,123.60,0
118,123.46,123.54,0
119,123.37,123.50,0
119,123.28,123.45,0
117,123.16,123.39,0
117,123.04,123.32,0
117,122.91,123.26,0
118,122.82,123.21,0
117,122.70,123.14,0
117,122.59,123.08,0
116,122.45,123.01,0
117,122.35,122.95,0
115,122.20,122.87,0
117,122.09,122.81,0
115,121.95,122.74,0
116,121.83,122.67,0
116,121.72,122.60,0
117,121.62,122.55,0
115,121.49,122.47,0
117,121.40,122.42,0
115,121.27,122.34,0
115,121.15,122.27,0
113,120.98,122.18,0
115,120.86,122.10,0
114,120.73,122.02,0
114,120.59,121.94,0
114,120.46,121.86,0
114,120.33,121.78,0
113,120.18,121.70,0
113,120.04,121.61,0
113,119.90,121.52,0
113,119.76,121.44,0
113,119.63,121.35,0
114,119.51,121.28,0
113,119.38,121.20,0
113,119.26,121.12,0
113,119.13,121.03,0
112,118.99,120.94,0
112,118.85,120.85,0
111,118.69,120.76,0
112,118.56,120.67,0
112,118.43,120.58,0
112,118.30,120.50,0
111,118.15,120.40,0
111,118.01,120.31,0
111,117.87,120.21,0
111,117.73,120.12,0
111,117.60,120.03,0
111,117.47,119.94,0
111,117.34,119.85,0
111,117.21,119.76,0
112,117.11,119.68,0
111,116.98,119.60,0
111,116.86,119.51,0
109,116.71,119.41,0
110,116.57,119.31,0
111,116.46,119.23,0
111,116.35,119.15,0
111,116.24,119.07,0
110,116.12,118.98,0
110,116.00,118.89,0
109,115.86,118.79,0
111,115.76,118.71,0
110,115.64,118.62,0
109,115.51,118.53,0
109,115.38,118.43,0
109,115.25,118.34,0
108,115.11,118.23,0
109,114.99,118.14,0
109,114.87,118.05,0
109,114.75,117.96,0
109,114.63,117.87,0
109,114.52,117.78,0
108,114.39,117.68,0
109,114.28,117.60,0
107,114.14,117.49,0
107,114.00,117.38,0
108,113.88,117.29,0
107,113.74,117.19,0
107,113.60,117.09,0
107,113.47,116.99,0
107,113.34,116.89,0
107,113.21,116.79,0
105,113.05,116.67,0
106,112.91,116.56,0
108,112.81,116.48,0
105,112.66,116.36,0
105,112.50,116.25,0
106,112.37,116.15,0
107,112.26,116.05,0
105,112.12,115.94,0
107,112.02,115.85,0
105,111.88,115.75,0
105,111.74,115.64,0
106,111.62,115.54,0
106,111.51,115.45,0
106,111.40,115.35,0
105,111.27,115.25,0
105,111.15,115.15,0
105,111.03,115.04,0
105,110.90,114.94,0
104,110.77,114.83,0
105,110.65,114.74,0
105,110.54,114.64,0
106,110.45,114.55,0
104,110.32,114.45,0
104,110.19,114.34,0
104,110.07,114.24,0
104,109.95,114.14,0
104,109.83,114.04,0
103,109.69,113.92,0
104,109.58,113.83,0
104,109.47,113.73,0
108,109.44,113.67,0
103,109.31,113.56,0
103,109.18,113.46,0
103,109.06,113.35,0
104,108.96,113.26,0
104,108.86,113.17,0
103,108.74,113.07,0
102,108.61,112.95,0
103,108.49,112.86,0
103,108.38,112.76,0
103,108.28,112.66,0
103,108.17,112.56,0
103,108.07,112.47,0
101,107.93,112.35,0
102,107.81,112.25,0
103,107.71,112.16,0
102,107.60,112.05,0
101,107.47,111.94,0
101,107.34,111.83,0
101,107.21,111.73,0
101,107.08,111.62,0
101,106.96,111.51,0
101,106.84,111.41,0
101,106.73,111.30,0
101,106.61,111.20,0
101,106.50,111.10,0
101,106.39,111.00,0
101,106.28,110.90,0
99,106.14,110.78,0
99,105.99,110.66,0
100,105.87,110.55,0
100,105.76,110.45,0
100,105.64,110.34,0
100,105.53,110.24,0
99,105.40,110.13,0
101,105.31,110.04,0
99,105.18,109.93,0
102,105.12,109.85,0
99,105.00,109.74,0
100,104.90,109.64,0
99,104.78,109.54,0
100,104.68,109.44,0
99,104.57,109.34,0
98,104.44,109.22,0
100,104.35,109.13,0
100,104.26,109.04,0
99,104.16,108.94,0
99,104.06,108.84,0
99,103.95,108.74,0
98,103.83,108.63,0
100,103.76,108.55,0
99,103.66,108.45,0
99,103.57,108.36,0
98,103.46,108.25,0
98,103.35,108.15,0
99,103.26,108.06,0
98,103.16,107.96,0
99,103.07,107.87,0
98,102.97,107.77,0
97,102.85,107.66,0
98,102.76,107.57,0
98,102.66,107.47,0
97,102.55,107.37,0
98,102.46,107.27,0
98,102.37,107.18,0
97,102.26,107.08,0
97,102.15,106.98,0
98,102.07,106.89,0
96,101.95,106.78,0
98,101.87,106.69,0
96,101.75,106.58,0
97,101.66,106.49,0
96,101.55,106.38,0
95,101.41,106.27,0
98,101.35,106.19,0
96,101.24,106.08,0
97,101.15,105.99,0
96,101.05,105.89,0
98,100.99,105.81,0
97,100.91,105.73,0
96,100.81,105.63,0
96,100.72,105.53,0
95,100.60,105.43,0
96,100.51,105.33,0
95,100.40,105.23,0
97,100.33,105.15,0
94,100.21,105.04,0
95,100.10,104.94,0
94,99.98,104.83,0
95,99.88,104.73,0
95,99.78,104.63,0
95,99.69,104.53,0
95,99.59,104.44,0
96,99.52,104.35,0
95,99.43,104.26,0
95,99.34,104.17,0
95,99.25,104.08,0
94,99.15,103.98,0
94,99.05,103.88,0
94,98.95,103.78,0
94,98.85,103.68,0
93,98.73,103.57,0
94,98.64,103.48,0
94,98.54,103.38,0
95,98.47,103.30,0
93,98.36,103.20,0
93,98.26,103.09,0
93,98.15,102.99,0
93,98.05,102.89,0
93,97.95,102.79,0
93,97.85,102.70,0
93,97.75,102.60,0
92,97.64,102.49,0
92,97.52,102.39,0
93,97.43,102.29,0
95,97.38,102.22,0
92,97.28,102.12,0
93,97.19,102.03,0
92,97.09,101.93,0
92,96.98,101.83,0
97,96.99,101.78,0
92,96.89,101.68,0
91,96.77,101.58,0
93,96.69,101.49,0
91,96.58,101.38,0
92,96.49,101.29,0
92,96.40,101.20,0
91,96.29,101.10,0
92,96.20,101.01,0
92,96.12,100.92,0
92,96.04,100.83,0
91,95.94,100.73,0
91,95.84,100.63,0
93,95.78,100.55,0
89,95.65,100.44,0
92,95.57,100.35,0
91,95.48,100.26,0
91,95.39,100.17,0
90,95.28,100.07,0
92,95.22,99.99,0
91,95.13,99.90,0
91,95.05,99.81,0
91,94.97,99.72,0
90,94.87,99.62,0
90,94.77,99.53,0
90,94.68,99.43,0
90,94.58,99.34,0
90,94.49,99.24,0
90,94.40,99.15,0
89,94.29,99.05,0
89,94.19,98.95,0
89,94.08,98.85,0
89,93.98,98.75,0
88,93.86,98.64,0
89,93.77,98.55,0
89,93.67,98.45,0
89,93.58,98.36,0
88,93.47,98.25,0
88,93.36,98.15,0
88,93.25,98.05,0
88,93.14,97.95,0
88,93.04,97.85,0
89,92.96,97.76,0
89,92.88,97.67,0
88,92.78,97.58,0
88,92.69,97.48,0
88,92.59,97.39,0
89,92.52,97.30,0
88,92.43,97.21,0
88,92.34,97.12,0
89,92.28,97.04,0
89,92.21,96.95,0
88,92.13,96.87,0
88,92.04,96.78,0
86,91.92,96.67,0
88,91.84,96.58,0
87,91.75,96.49,0
86,91.63,96.38,0
86,91.52,96.28,0
87,91.43,96.18,0
87,91.34,96.09,0
87,91.25,96.00,0
86,91.15,95.90,0
88,91.09,95.82,0
86,90.98,95.72,0
86,90.89,95.63,0
88,90.83,95.55,0
88,90.77,95.48,0
87,90.70,95.39,0
86,90.60,95.30,0
86,90.51,95.20,0
86,90.42,95.11,0
86,90.33,95.02,0
86,90.24,94.93,0
86,90.16,94.84,0
86,90.08,94.75,0
86,89.99,94.67,0
86,89.91,94.58,0
86,89.84,94.49,0
87,89.78,94.42,0
86,89.70,94.33,0
84,89.59,94.23,0
86,89.52,94.15,0
86,89.45,94.07,0
84,89.34,93.97,0
84,89.23,93.87,0
86,89.17,93.79,0
85,89.08,93.70,0
84,88.98,93.60,0
84,88.88,93.51,0
85,88.81,93.42,0
86,88.75,93.35,0
86,88.69,93.27,0
84,88.60,93.18,0
84,88.51,93.09,0
84,88.42,93.00,0
84,88.33,92.91,0
84,88.24,92.82,0
83,88.14,92.72,0
83,88.04,92.62,0
84,87.95,92.54,0
84,87.88,92.45,0
84,87.80,92.37,0
84,87.72,92.28,0
84,87.65,92.20,0
84,87.57,92.12,0
83,87.48,92.03,0
84,87.41,91.95,0
84,87.35,91.87,0
84,87.28,91.79,0
84,87.21,91.71,0
86,87.19,91.65,0
85,87.14,91.59,0
84,87.08,91.51,0
84,87.02,91.44,0
86,87.00,91.38,0
84,86.94,91.31,0
84,86.88,91.24,0
84,86.82,91.16,0
85,86.79,91.10,0
84,86.73,91.03,0
83,86.66,90.95,0
83,86.58,90.87,0
85,86.55,90.81,0
84,86.50,90.74,0
82,86.41,90.66,0
82,86.32,90.57,0
81,86.22,90.47,0
84,86.17,90.41,0
82,86.09,90.33,0
82,86.01,90.24,0
83,85.95,90.17,0
82,85.87,90.09,0
82,85.79,90.01,0
82,85.71,89.93,0
81,85.62,89.84,0
82,85.55,89.76,0
82,85.48,89.68,0
82,85.41,89.61,0
82,85.34,89.53,0
81,85.25,89.44,0
82,85.19,89.37,0
82,85.12,89.30,0
81,85.04,89.21,0
81,84.96,89.13,0
80,84.86,89.04,0
80,84.76,88.95,0
81,84.69,88.87,0
81,84.61,88.79,0
80,84.52,88.70,0
80,84.43,88.62,0
82,84.38,88.55,0
80,84.30,88.46,0
80,84.21,88.38,0
78,84.09,88.28,0
81,84.02,88.20,0
80,83.94,88.12,0
80,83.86,88.04,0
79,83.77,87.95,0
80,83.69,87.87,0
80,83.62,87.79,0
80,83.55,87.71,0
79,83.45,87.63,0
81,83.41,87.56,0
80,83.34,87.48,0
79,83.25,87.40,0
79,83.17,87.32,0
80,83.10,87.24,0
80,83.04,87.17,0
80,82.98,87.10,0
79,82.90,87.02,0
80,82.84,86.95,0
80,82.79,86.88,0
79,82.71,86.80,0
79,82.64,86.72,0
79,82.56,86.64,0
82,82.55,86.60,0
79,82.48,86.52,0
79,82.41,86.45,0
79,82.34,86.37,0
78,82.26,86.29,0
80,82.21,86.23,0
79,82.15,86.15,0
79,82.08,86.08,0
78,82.00,86.00,0
78,81.92,85.92,0
79,81.86,85.85,0
80,81.83,85.79,0
80,81.79,85.73,0
78,81.71,85.66,0
79,81.66,85.59,0
78,81.59,85.51,0
81,81.57,85.47,0
78,81.50,85.40,0
78,81.43,85.32,0
79,81.38,85.26,0
78,81.32,85.19,0
78,81.25,85.11,0
77,81.17,85.03,0
79,81.12,84.97,0
78,81.06,84.90,0
78,81.00,84.83,0
78,80.94,84.76,0
78,80.88,84.70,0
77,80.80,84.62,0
78,80.75,84.55,0
78,80.69,84.49,0
79,80.66,84.43,0
77,80.58,84.36,0
77,80.51,84.29,0
78,80.46,84.22,0
77,80.39,84.15,0
80,80.39,84.11,0
78,80.34,84.05,0
78,80.29,83.99,0
79,80.26,83.94,0
78,80.22,83.88,0
78,80.18,83.82,0
77,80.11,83.75,0
77,80.05,83.68,0
77,79.99,83.62,0
78,79.95,83.56,0
76,79.87,83.49,0
77,79.81,83.42,0
78,79.78,83.37,0
76,79.70,83.29,0
76,79.63,83.22,0
77,79.57,83.16,0
77,79.52,83.10,0
76,79.45,83.02,0
76,79.38,82.95,0
76,79.32,82.89,0
77,79.27,82.83,0
77,79.22,82.77,0
76,79.16,82.70,0
78,79.14,82.65,0
76,79.07,82.59,0
75,78.99,82.51,0
78,78.97,82.47,0
77,78.93,82.41,0
78,78.91,82.37,0
76,78.86,82.30,0
76,78.80,82.24,0
78,78.78,82.20,0
77,78.75,82.15,0
80,78.77,82.12,0
78,78.76,82.08,0
77,78.72,82.03,0
78,78.71,81.99,0
78,78.69,81.95,0
78,78.68,81.91,0
78,78.67,81.87,0
78,78.65,81.83,0
78,78.64,81.80,0
78,78.63,81.76,0
77,78.59,81.71,0
76,78.54,81.65,0
78,78.53,81.62,0
76,78.48,81.56,0
80,78.51,81.55,0
78,78.50,81.51,0
74,78.41,81.43,0
78,78.40,81.40,0
77,78.37,81.36,0
78,78.37,81.32,0
78,78.36,81.29,0
77,78.33,81.25,0
77,78.31,81.20,0
80,78.34,81.19,0
76,78.29,81.14,0
77,78.27,81.10,0
77,78.24,81.06,0
78,78.24,81.03,0
77,78.21,80.99,0
77,78.19,80.95,0
76,78.14,80.90,0
76,78.10,80.85,0
76,78.06,80.80,0
77,78.04,80.76,0
76,78.00,80.71,0
76,77.96,80.67,0
78,77.96,80.64,0
78,77.96,80.61,0
77,77.94,80.58,0
77,77.92,80.54,0
78,77.92,80.52,0
77,77.90,80.48,0
76,77.87,80.44,0
77,77.85,80.40,0
76,77.81,80.36,0
76,77.78,80.32,0
77,77.76,80.28,0
77,77.74,80.25,0
77,77.73,80.22,0
77,77.72,80.18,0
77,77.70,80.15,0
76,77.67,80.11,0
77,77.65,80.08,0
76,77.62,80.04,0
76,77.59,80.00,0
77,77.58,79.97,0
76,77.54,79.93,0
76,77.51,79.89,0
79,77.54,79.88,0
78,77.55,79.86,0
76,77.52,79.82,0
77,77.51,79.80,0
77,77.50,79.77,0
76,77.47,79.73,0
76,77.44,79.69,0
76,77.41,79.66,0
77,77.40,79.63,0
76,77.38,79.59,0
76,77.35,79.56,0
76,77.32,79.52,0
76,77.30,79.49,0
77,77.29,79.46,0
76,77.26,79.43,0
76,77.24,79.39,0
77,77.23,79.37,0
79,77.27,79.36,0
78,77.28,79.35,0
78,77.30,79.34,0
79,77.33,79.33,0
77,77.33,79.31,0
78,77.34,79.30,0
78,77.35,79.28,0
78,77.37,79.27,0
78,77.38,79.26,0
78,77.39,79.25,0
78,77.40,79.23,0
78,77.41,79.22,0
78,77.43,79.21,0
78,77.44,79.20,0
78,77.45,79.19,0
78,77.46,79.17,0
78,77.47,79.16,0
78,77.48,79.15,0
78,77.49,79.14,0
78,77.50,79.13,0
78,77.51,79.12,0
78,77.52,79.10,0
77,77.51,79.08,0
77,77.50,79.06,0
78,77.51,79.05,0
78,77.52,79.04,0
78,77.53,79.03,0
77,77.52,79.01,0
78,77.53,79.00,0
78,77.54,78.99,0
78,77.55,78.98,0
78,77.56,78.97,0
77,77.55,78.95,0
77,77.53,78.93,0
78,77.54,78.92,0
77,77.53,78.90,0
78,77.54,78.89,0
78,77.55,78.89,0
78,77.56,78.88,0
78,77.57,78.87,0
78,77.58,78.86,0
78,77.59,78.85,0
79,77.61,78.85,0
78,77.62,78.84,0
80,77.67,78.86,0
79,77.70,78.86,0
78,77.70,78.85,0
78,77.71,78.84,0
78,77.71,78.83,0
78,77.72,78.82,0
77,77.71,78.80,0
78,77.71,78.80,0
79,77.74,78.80,0
78,77.74,78.79,0
78,77.75,78.78,0
78,77.75,78.77,0
75,77.70,78.74,0
78,77.70,78.73,0
78,77.71,78.72,0
78,77.72,78.72,0
77,77.70,78.70,0
78,77.71,78.69,0
78,77.71,78.68,0
78,77.72,78.68,0
77,77.70,78.66,0
78,77.71,78.65,0
78,77.72,78.65,0
78,77.72,78.64,0
77,77.71,78.62,0
78,77.71,78.62,0
78,77.72,78.61,0
77,77.70,78.60,0
78,77.71,78.59,0
78,77.72,78.58,0
78,77.72,78.58,0
77,77.71,78.56,0
78,77.71,78.56,0
77,77.70,78.54,0
77,77.69,78.53,0
77,77.67,78.51,0
77,77.66,78.50,0
76,77.62,78.47,0
77,77.61,78.46,0
77,77.60,78.44,0
77,77.59,78.43,0
76,77.56,78.40,0
77,77.55,78.39,0
77,77.53,78.37,0
78,77.54,78.37,0
76,77.51,78.35,0
76,77.48,78.32,0
77,77.47,78.31,0
76,77.44,78.29,0
76,77.41,78.26,0
76,77.39,78.24,0
77,77.38,78.23,0
77,77.37,78.22,0
76,77.34,78.19,0
76,77.32,78.17,0
77,77.31,78.16,0
77,77.30,78.15,0
77,77.30,78.14,0
76,77.27,78.12,0
77,77.27,78.11,0
78,77.28,78.10,0
78,77.30,78.10,0
78,77.31,78.10,0
78,77.32,78.10,0
78,77.34,78.10,0
76,77.31,78.08,0
78,77.32,78.08,0
78,77.34,78.08,0
78,77.35,78.08,0
78,77.36,78.08,0
78,77.38,78.08,0
78,77.39,78.07,0
78,77.40,78.07,0
78,77.41,78.07,0
78,77.42,78.07,0
79,77.46,78.08,0
80,77.51,78.10,0
78,77.52,78.10,0
78,77.53,78.10,0
79,77.56,78.11,0
78,77.57,78.11,0
78,77.57,78.11,0
78,77.58,78.10,0
78,77.59,78.10,0
78,77.60,78.10,0
78,77.61,78.10,0
79,77.63,78.11,0
82,77.72,78.15,0
78,77.73,78.15,0
78,77.73,78.15,0
79,77.76,78.16,0
78,77.76,78.15,0
78,77.77,78.15,0
78,77.77,78.15,0
79,77.80,78.16,0
79,77.82,78.17,0
79,77.84,78.18,0
78,77.85,78.17,0
79,77.87,78.18,0
78,77.87,78.18,0
78,77.88,78.18,0
78,77.88,78.18,0
79,77.90,78.19,0
78,77.90,78.18,0
81,77.96,78.21,0
78,77.97,78.21,0
79,77.99,78.22,0
79,78.01,78.23,0
79,78.03,78.23,0
80,78.07,78.25,0
79,78.08,78.26,0
80,78.12,78.28,0
81,78.18,78.30,0
80,78.22,78.32,0
80,78.25,78.34,0
82,78.33,78.37,0
83,78.42,78.42,0
81,78.47,78.45,0
82,78.54,78.48,0
87,78.71,78.57,0
83,78.80,78.61,0
82,78.86,78.64,0
83,78.94,78.69,0
83,79.03,78.73,0
82,79.09,78.76,0
82,79.14,78.80,0
82,79.20,78.83,0
82,79.26,78.86,0
84,79.35,78.91,0
82,79.40,78.94,0
83,79.48,78.98,0
84,79.57,79.03,0
82,79.62,79.06,0
84,79.70,79.11,0
82,79.75,79.14,0
84,79.83,79.19,0
84,79.92,79.24,0
84,80.00,79.28,0
85,80.10,79.34,0
85,80.20,79.40,0
84,80.27,79.44,0
86,80.39,79.51,0
84,80.46,79.56,0
86,80.57,79.62,0
86,80.68,79.68,0
86,80.79,79.75,0
85,80.87,79.80,0
86,80.97,79.86,0
86,81.07,79.92,0
86,81.17,79.98,0
86,81.27,80.04,0
87,81.38,80.11,0
86,81.48,80.17,0
86,81.57,80.23,0
88,81.69,80.31,0
87,81.80,80.37,0
87,81.90,80.44,0
86,81.99,80.50,0
86,82.07,80.55,0
87,82.17,80.62,0
86,82.24,80.67,0
87,82.34,80.73,0
88,82.45,80.81,0
87,82.54,80.87,0
87,82.63,80.93,0
86,82.70,80.98,0
88,82.80,81.05,0
87,82.89,81.11,0
86,82.95,81.16,0
88,83.05,81.23,0
88,83.15,81.29,0
89,83.27,81.37,0
88,83.36,81.44,0
88,83.45,81.50,0
88,83.55,81.57,0
88,83.63,81.63,0
88,83.72,81.70,0
92,83.89,81.80,0
92,84.05,81.90,0
90,84.17,81.98,0
90,84.29,82.06,0
92,84.44,82.16,0
94,84.63,82.28,0
93,84.80,82.39,0
96,85.02,82.52,0
94,85.20,82.64,0
94,85.38,82.75,0
94,85.55,82.86,0
94,85.72,82.98,0
93,85.86,83.08,0
93,86.01,83.18,0
92,86.13,83.26,0
93,86.26,83.36,0
94,86.42,83.47,0
94,86.57,83.57,0
94,86.72,83.68,0
94,86.87,83.78,0
94,87.01,83.88,0
93,87.13,83.97,0
94,87.27,84.07,0
93,87.38,84.16,0
96,87.55,84.28,0
96,87.72,84.40,0
95,87.87,84.50,0
96,88.03,84.62,0
98,88.23,84.75,0
98,88.42,84.89,0
98,88.62,85.02,0
97,88.78,85.14,0
98,88.97,85.27,0
98,89.15,85.39,0
97,89.31,85.51,0
98,89.48,85.63,0
98,89.65,85.76,0
98,89.82,85.88,0
99,90.00,86.01,0
100,90.20,86.15,0
101,90.42,86.30,0
99,90.59,86.43,0
102,90.82,86.58,0
101,91.02,86.73,0
103,91.26,86.89,0
101,91.45,87.03,0
101,91.65,87.17,0
101,91.83,87.31,0
101,92.02,87.45,0
101,92.20,87.58,0
101,92.37,87.72,0
102,92.56,87.86,0
102,92.75,88.00,0
103,92.96,88.15,0
104,93.18,88.31,0
104,93.40,88.46,0
105,93.63,88.63,0
105,93.85,88.79,0
105,94.08,88.96,0
105,94.30,89.12,0
106,94.53,89.29,0
105,94.74,89.44,0
106,94.96,89.61,0
104,95.15,89.75,0
105,95.34,89.90,0
105,95.54,90.06,0
107,95.77,90.22,0
107,95.99,90.39,0
108,96.23,90.57,0
107,96.45,90.73,0
105,96.62,90.88,0
108,96.84,91.05,0
106,97.03,91.20,0
107,97.23,91.35,0
108,97.44,91.52,0
108,97.65,91.69,0
109,97.88,91.86,0
111,98.14,92.05,0
111,98.40,92.24,0
110,98.63,92.42,0
109,98.84,92.58,0
111,99.08,92.77,0
113,99.36,92.97,0
113,99.63,93.17,0
112,99.88,93.36,0
112,100.12,93.54,0
114,100.40,93.75,0
114,100.67,93.95,0
114,100.94,94.15,0
117,101.26,94.38,0
116,101.56,94.60,0
117,101.86,94.82,0
118,102.19,95.05,0
117,102.48,95.27,0
118,102.79,95.50,0
118,103.10,95.72,0
117,103.38,95.94,0
117,103.65,96.15,0
116,103.90,96.35,0
117,104.16,96.55,0
116,104.39,96.75,0
117,104.65,96.95,0
116,104.87,97.14,0
118,105.14,97.35,0
117,105.37,97.55,0
118,105.63,97.75,0
118,105.87,97.95,0
119,106.14,98.16,0
119,106.39,98.37,0
119,106.65,98.58,0
120,106.91,98.79,0
120,107.17,99.00,0
120,107.43,99.21,0
120,107.68,99.42,0
120,107.93,99.63,0
119,108.15,99.82,0
118,108.35,100.00,0
120,108.58,100.20,0
120,108.81,100.40,0
122,109.07,100.62,0
124,109.37,100.85,0
124,109.66,101.08,0
124,109.95,101.31,0
123,110.21,101.53,0
124,110.49,101.75,0
123,110.74,101.97,0
125,111.02,102.20,0
125,111.30,102.42,0
127,111.62,102.67,0
127,111.92,102.91,0
127,112.23,103.15,0
129,112.56,103.41,0
129,112.89,103.67,0
131,113.25,103.94,0
129,113.57,104.19,0
129,113.88,104.44,0
132,114.24,104.72,0
132,114.59,104.99,0
133,114.96,105.27,0
132,115.30,105.54,0
132,115.64,105.80,0
132,115.96,106.06,0
132,116.28,106.32,0
133,116.62,106.59,0
133,116.95,106.85,0
133,117.27,107.11,0
133,117.58,107.37,0
133,117.89,107.63,0
133,118.19,107.88,0
133,118.49,108.13,0
133,118.78,108.38,0
133,119.06,108.63,0
131,119.30,108.85,0
133,119.58,109.09,0
133,119.84,109.33,0
133,120.11,109.57,0
133,120.37,109.80,0
133,120.62,110.04,0
133,120.87,110.27,0
134,121.13,110.50,0
135,121.41,110.75,0
135,121.68,110.99,0
135,121.94,111.23,0
136,122.23,111.48,0
137,122.52,111.73,0
136,122.79,111.98,0
136,123.05,112.22,0
137,123.33,112.46,0
136,123.59,112.70,0
137,123.85,112.94,0
138,124.14,113.19,0
137,124.40,113.43,0
137,124.65,113.67,0
137,124.89,113.90,0
137,125.14,114.13,0
136,125.35,114.35,0
136,125.57,114.57,0
136,125.78,114.78,0
136,125.98,114.99,0
136,126.18,115.20,0
137,126.40,115.42,0
136,126.59,115.63,0
136,126.78,115.83,0
136,126.96,116.03,0
135,127.12,116.22,0
135,127.28,116.41,0
135,127.43,116.60,0
136,127.61,116.79,0
135,127.75,116.97,0
135,127.90,117.15,0
135,128.04,117.33,0
138,128.24,117.54,0
135,128.37,117.71,0
136,128.53,117.90,0
137,128.70,118.09,0
137,128.86,118.28,0
137,129.03,118.46,0
136,129.16,118.64,0
136,129.30,118.81,0
136,129.44,118.98,0
136,129.57,119.15,0
136,129.70,119.32,0
135,129.80,119.48,0
135,129.91,119.63,0
137,130.05,119.81,0
136,130.17,119.97,0
135,130.26,120.12,0
135,130.36,120.27,0
135,130.45,120.42,0
135,130.54,120.56,0
135,130.63,120.71,0
135,130.72,120.85,0
135,130.80,120.99,0
136,130.91,121.14,0
135,130.99,121.28,0
135,131.07,121.42,0
134,131.13,121.54,0
135,131.21,121.68,0
134,131.26,121.80,0
135,131.34,121.93,0
133,131.37,122.04,0
133,131.40,122.15,0
133,131.43,122.26,0
134,131.49,122.38,0
133,131.52,122.48,0
135,131.59,122.61,0
133,131.61,122.71,0
133,131.64,122.82,0
133,131.67,122.92,0
133,131.70,123.02,0
133,131.72,123.12,0
132,131.73,123.21,0
132,131.73,123.30,0
131,131.72,123.37,0
132,131.72,123.46,0
131,131.71,123.53,0
133,131.74,123.63,0
131,131.72,123.70,0
132,131.73,123.79,0
131,131.71,123.86,0
131,131.70,123.93,0
131,131.68,124.00,0
132,131.69,124.08,0
131,131.68,124.15,0
131,131.66,124.22,0
129,131.61,124.27,0
127,131.52,124.29,0
131,131.51,124.36,0
129,131.46,124.41,0
129,131.41,124.45,0
129,131.36,124.50,0
129,131.31,124.54,0
129,131.27,124.59,0
129,131.22,124.63,0
129,131.18,124.68,0
128,131.11,124.71,0
128,131.05,124.74,0
129,131.01,124.78,0
128,130.95,124.82,0
129,130.91,124.86,0
128,130.85,124.89,0
128,130.79,124.92,0
128,130.74,124.95,0
128,130.68,124.98,0
127,130.61,125.00,0
127,130.54,125.02,0
127,130.47,125.04,0
127,130.40,125.06,0
127,130.33,125.08,0
127,130.26,125.10,0
127,130.20,125.12,0
127,130.13,125.14,0
126,130.05,125.15,0
126,129.97,125.15,0
127,129.91,125.17,0
126,129.83,125.18,0
126,129.76,125.19,0
125,129.66,125.19,0
125,129.57,125.19,0
125,129.48,125.18,0
126,129.41,125.19,0
125,129.32,125.19,0
124,129.21,125.18,0
125,129.13,125.18,0
125,129.05,125.17,0
125,128.96,125.17,0
124,128.87,125.16,0
125,128.79,125.16,0
124,128.69,125.15,0
124,128.60,125.14,0
123,128.49,125.12,0
125,128.42,125.11,0
124,128.33,125.10,0
123,128.22,125.08,0
121,128.08,125.04,0
123,127.98,125.02,0
123,127.88,125.00,0
123,127.78,124.98,0
122,127.66,124.95,0
122,127.55,124.92,0
122,127.44,124.89,0
119,127.27,124.83,0
123,127.18,124.81,0
122,127.08,124.79,0
121,126.96,124.75,0
121,126.84,124.71,0
121,126.72,124.67,0
121,126.61,124.64,0
121,126.50,124.60,0
121,126.39,124.57,0
120,126.26,124.52,0
120,126.13,124.47,0
120,126.01,124.43,0
120,125.89,124.39,0
119,125.75,124.33,0
119,125.62,124.28,0
119,125.49,124.23,0
120,125.38,124.18,0
119,125.25,124.13,0
120,125.14,124.09,0
119,125.02,124.04,0
119,124.90,123.99,0
119,124.78,123.94,0
119,124.67,123.89,0
118,124.53,123.83,0
119,124.42,123.78,0
117,124.27,123.71,0
117,124.13,123.65,0
117,123.99,123.58,0
117,123.85,123.51,0
117,123.71,123.45,0
117,123.58,123.39,0
117,123.44,123.32,0
117,123.32,123.26,0
117,123.19,123.20,0
115,123.02,123.11,0
116,122.88,123.04,0
116,122.75,122.97,0
115,122.59,122.89,0
115,122.44,122.81,0
119,122.37,122.78,0
115,122.22,122.70,0
116,122.10,122.63,0
115,121.96,122.55,0
114,121.80,122.47,0
114,121.64,122.38,0
116,121.53,122.32,0
115,121.40,122.25,0
114,121.25,122.16,0
113,121.09,122.07,0
114,120.94,121.99,0
114,120.81,121.91,0
114,120.67,121.83,0
113,120.52,121.74,0
113,120.37,121.66,0
113,120.22,121.57,0
112,120.05,121.48,0
113,119.91,121.39,0
113,119.77,121.31,0
112,119.62,121.21,0
113,119.49,121.13,0
113,119.36,121.05,0
112,119.21,120.96,0
112,119.07,120.87,0
112,118.92,120.78,0
111,118.77,120.68,0
111,118.61,120.59,0
111,118.46,120.49,0
111,118.31,120.40,0
111,118.16,120.30,0
111,118.02,120.21,0
111,117.88,120.12,0
111,117.74,120.03,0
111,117.61,119.94,0
111,117.47,119.85,0
111,117.35,119.76,0
111,117.22,119.67,0
111,117.09,119.58,0
111,116.97,119.50,0
111,116.85,119.41,0
111,116.74,119.33,0
109,116.58,119.22,0
109,116.43,119.12,0
109,116.28,119.02,0
110,116.16,118.93,0
109,116.01,118.83,0
109,115.87,118.73,0
109,115.73,118.64,0
109,115.60,118.54,0
109,115.47,118.44,0
109,115.34,118.35,0
109,115.21,118.26,0
109,115.09,118.16,0
107,114.93,118.05,0
107,114.77,117.94,0
111,114.69,117.87,0
108,114.56,117.77,0
108,114.43,117.68,0
108,114.30,117.58,0
107,114.15,117.47,0
107,114.01,117.37,0
108,113.89,117.27,0
105,113.71,117.15,0
107,113.58,117.05,0
107,113.45,116.95,0
106,113.30,116.84,0
107,113.17,116.74,0
106,113.03,116.63,0
106,112.89,116.53,0
105,112.73,116.41,0
106,112.59,116.31,0
106,112.46,116.21,0
107,112.35,116.11,0
105,112.21,116.00,0
105,112.06,115.89,0
105,111.92,115.78,0
105,111.78,115.68,0
105,111.65,115.57,0
105,111.51,115.46,0
105,111.38,115.36,0
105,111.26,115.26,0
105,111.13,115.15,0
104,110.99,115.04,0
105,110.87,114.94,0
103,110.71,114.82,0
104,110.58,114.71,0
103,110.43,114.60,0
104,110.30,114.49,0
103,110.15,114.38,0
104,110.03,114.27,0
103,109.89,114.16,0
103,109.75,114.05,0
103,109.61,113.94,0
103,109.48,113.83,0
103,109.35,113.72,0
103,109.23,113.61,0
101,109.06,113.49,0
102,108.92,113.37,0
103,108.80,113.27,0
102,108.67,113.15,0
101,108.51,113.03,0
101,108.36,112.91,0
101,108.21,112.79,0
101,108.07,112.68,0
101,107.93,112.56,0
101,107.79,112.44,0
101,107.65,112.33,0
101,107.52,112.22,0
101,107.39,112.10,0
101,107.26,111.99,0
102,107.16,111.89,0
101,107.03,111.78,0
101,106.91,111.68,0
100,106.78,111.56,0
100,106.64,111.44,0
101,106.53,111.34,0
100,106.40,111.23,0
100,106.27,111.11,0
99,106.12,110.99,0
99,105.98,110.87,0
100,105.86,110.76,0
100,105.74,110.66,0
99,105.61,110.54,0
99,105.48,110.42,0
100,105.37,110.32,0
100,105.26,110.22,0
99,105.14,110.10,0
100,105.03,110.00,0
98,104.89,109.88,0
99,104.77,109.77,0
99,104.66,109.67,0
96,104.49,109.53,0
99,104.38,109.42,0
98,104.25,109.31,0
98,104.12,109.20,0
98,104.00,109.09,0
98,103.88,108.97,0
98,103.76,108.86,0
98,103.65,108.76,0
98,103.53,108.65,0
97,103.40,108.53,0
98,103.30,108.43,0
97,103.17,108.31,0
97,103.05,108.20,0
96,102.91,108.08,0
97,102.79,107.97,0
96,102.65,107.85,0
97,102.54,107.74,0
98,102.45,107.64,0
96,102.32,107.52,0
96,102.19,107.41,0
96,102.07,107.30,0
96,101.95,107.18,0
96,101.83,107.07,0
96,101.71,106.96,0
96,101.60,106.85,0
95,101.47,106.73,0
96,101.36,106.62,0
96,101.25,106.52,0
95,101.12,106.40,0
95,101.00,106.29,0
95,100.88,106.18,0
94,100.74,106.05,0
94,100.61,105.93,0
96,100.52,105.83,0
95,100.41,105.73,0
94,100.28,105.61,0
94,100.15,105.49,0
94,100.03,105.38,0
94,99.91,105.26,0
95,99.81,105.16,0
94,99.70,105.05,0
93,99.56,104.93,0
94,99.45,104.82,0
94,99.34,104.71,0
93,99.21,104.59,0
94,99.11,104.49,0
93,98.99,104.37,0
93,98.87,104.26,0
94,98.77,104.16,0
93,98.66,104.05,0
93,98.54,103.94,0
93,98.43,103.83,0
93,98.32,103.72,0
93,98.22,103.61,0
93,98.11,103.50,0
93,98.01,103.40,0
93,97.91,103.30,0
93,97.81,103.19,0
93,97.71,103.09,0
93,97.62,102.99,0
92,97.51,102.88,0
91,97.38,102.76,0
92,97.27,102.65,0
92,97.17,102.55,0
92,97.06,102.44,0
93,96.98,102.35,0
92,96.88,102.24,0
91,96.76,102.13,0
93,96.69,102.04,0
92,96.59,101.94,0
92,96.50,101.84,0
92,96.41,101.74,0
91,96.30,101.63,0
92,96.22,101.54,0
92,96.13,101.44,0
91,96.03,101.34,0
91,95.93,101.23,0
92,95.85,101.14,0
91,95.75,101.04,0
91,95.66,100.94,0
91,95.57,100.84,0
91,95.48,100.74,0
91,95.39,100.65,0
91,95.30,100.55,0
90,95.19,100.44,0
90,95.09,100.34,0
91,95.01,100.25,0
92,94.95,100.16,0
89,94.83,100.05,0
89,94.71,99.94,0
91,94.64,99.85,0
90,94.54,99.75,0
90,94.45,99.66,0
89,94.34,99.55,0
89,94.24,99.44,0
88,94.11,99.33,0
88,93.99,99.22,0
89,93.89,99.11,0
89,93.79,99.01,0
88,93.68,98.90,0
90,93.60,98.81,0
90,93.53,98.73,0
88,93.42,98.62,0
90,93.35,98.53,0
89,93.26,98.44,0
88,93.16,98.33,0
88,93.06,98.23,0
87,92.94,98.12,0
90,92.88,98.04,0
88,92.78,97.93,0
88,92.68,97.84,0
88,92.59,97.74,0
89,92.52,97.65,0
87,92.41,97.54,0
86,92.28,97.43,0
87,92.17,97.32,0
92,92.17,97.27,0
87,92.07,97.17,0
86,91.95,97.06,0
89,91.89,96.98,0
85,91.75,96.86,0
86,91.63,96.75,0
86,91.52,96.64,0
86,91.41,96.53,0
85,91.28,96.42,0
86,91.18,96.31,0
86,91.07,96.21,0
88,91.01,96.13,0
86,90.91,96.03,0
86,90.81,95.93,0
86,90.72,95.83,0
87,90.64,95.74,0
86,90.55,95.64,0
85,90.44,95.54,0
84,90.31,95.42,0
85,90.20,95.32,0
85,90.10,95.21,0
84,89.98,95.10,0
85,89.88,95.00,0
85,89.78,94.90,0
85,89.69,94.80,0
86,89.61,94.71,0
84,89.50,94.61,0
85,89.41,94.51,0
86,89.34,94.42,0
84,89.23,94.32,0
84,89.13,94.22,0
85,89.05,94.12,0
84,88.95,94.02,0
84,88.85,93.92,0
84,88.75,93.82,0
87,88.72,93.76,0
84,88.62,93.66,0
84,88.53,93.56,0
84,88.44,93.47,0
84,88.35,93.37,0
83,88.24,93.27,0
82,88.12,93.16,0
84,88.04,93.06,0
84,87.95,92.97,0
83,87.86,92.87,0
82,87.74,92.76,0
83,87.64,92.67,0
83,87.55,92.57,0
83,87.46,92.47,0
82,87.35,92.37,0
82,87.24,92.27,0
83,87.16,92.17,0
82,87.06,92.07,0
82,86.95,91.97,0
82,86.86,91.87,0
82,86.76,91.77,0
82,86.66,91.67,0
82,86.57,91.58,0
82,86.48,91.48,0
82,86.39,91.39,0
82,86.30,91.29,0
82,86.21,91.20,0
84,86.17,91.13,0
82,86.09,91.04,0
82,86.01,90.95,0
81,85.91,90.85,0
82,85.83,90.76,0
81,85.73,90.66,0
82,85.66,90.57,0
81,85.56,90.48,0
81,85.47,90.38,0
82,85.40,90.30,0
81,85.31,90.21,0
81,85.23,90.12,0
81,85.14,90.02,0
81,85.06,89.93,0
82,85.00,89.85,0
80,84.90,89.76,0
82,84.84,89.68,0
81,84.76,89.59,0
82,84.71,89.52,0
80,84.62,89.42,0
81,84.54,89.34,0
83,84.51,89.27,0
81,84.44,89.19,0
80,84.35,89.10,0
80,84.27,89.01,0
82,84.22,88.94,0
80,84.14,88.85,0
80,84.05,88.76,0
79,83.95,88.66,0
79,83.85,88.57,0
79,83.76,88.47,0
80,83.68,88.38,0
79,83.59,88.29,0
79,83.50,88.20,0
79,83.41,88.11,0
80,83.34,88.03,0
79,83.25,87.93,0
83,83.25,87.89,0
79,83.16,87.80,0
79,83.08,87.71,0
78,82.98,87.61,0
78,82.88,87.52,0
79,82.80,87.43,0
78,82.70,87.34,0
78,82.61,87.24,0
79,82.54,87.16,0
78,82.45,87.07,0
78,82.36,86.98,0
79,82.29,86.90,0
78,82.20,86.81,0
78,82.12,86.72,0
78,82.04,86.63,0
78,81.96,86.55,0
79,81.90,86.47,0
78,81.82,86.39,0
78,81.74,86.30,0
77,81.65,86.21,0
77,81.56,86.12,0
78,81.48,86.04,0
78,81.41,85.96,0
78,81.35,85.88,0
75,81.22,85.77,0
78,81.16,85.69,0
78,81.09,85.61,0
78,81.03,85.54,0
78,80.97,85.46,0
77,80.89,85.38,0
78,80.83,85.30,0
76,80.74,85.21,0
76,80.64,85.12,0
78,80.59,85.05,0
76,80.50,84.96,0
76,80.41,84.87,0
77,80.34,84.79,0
78,80.29,84.72,0
76,80.21,84.63,0
77,80.14,84.56,0
77,80.08,84.48,0
78,80.04,84.42,0
76,79.96,84.33,0
78,79.92,84.27,0
77,79.86,84.20,0
76,79.78,84.11,0
76,79.71,84.03,0
78,79.67,83.97,0
77,79.62,83.90,0
78,79.59,83.84,0
78,79.55,83.79,0
76,79.48,83.71,0
75,79.39,83.62,0
78,79.37,83.57,0
76,79.30,83.49,0
76,79.23,83.41,0
77,79.19,83.35,0
76,79.12,83.28,0
77,79.08,83.21,0
76,79.02,83.14,0
77,78.98,83.08,0
76,78.92,83.01,0
76,78.86,82.94,0
76,78.80,82.87,0
76,78.75,82.80,0
75,78.67,82.72,0
76,78.62,82.66,0
74,78.53,82.57,0
75,78.46,82.49,0
75,78.39,82.42,0
76,78.34,82.35,0
75,78.27,82.28,0
75,78.21,82.21,0
77,78.18,82.16,0
74,78.10,82.07,0
74,78.02,81.99,0
75,77.96,81.92,0
76,77.92,81.86,0
74,77.84,81.79,0
74,77.76,81.71,0
75,77.71,81.64,0
76,77.67,81.58,0
74,77.60,81.51,0
74,77.53,81.43,0
74,77.46,81.36,0
73,77.37,81.28,0
76,77.34,81.22,0
74,77.27,81.15,0
73,77.19,81.07,0
73,77.11,80.99,0
74,77.04,80.92,0
73,76.96,80.84,0
75,76.92,80.78,0
75,76.88,80.72,0
74,76.83,80.66,0
74,76.77,80.59,0
72,76.67,80.50,0
74,76.62,80.44,0
74,76.57,80.37,0
74,76.52,80.31,0
73,76.45,80.24,0
74,76.40,80.18,0
74,76.35,80.11,0
74,76.30,80.05,0
74,76.26,79.99,0
73,76.19,79.92,0
74,76.15,79.86,0
74,76.11,79.80,0
74,76.06,79.75,0
73,76.00,79.68,0
72,75.92,79.60,0
72,75.84,79.53,0
73,75.79,79.46,0
72,75.71,79.39,0
72,75.64,79.31,0
72,75.56,79.24,0
73,75.51,79.18,0
72,75.44,79.10,0
72,75.37,79.03,0
72,75.31,78.96,0
72,75.24,78.89,0
72,75.18,78.82,0
72,75.11,78.76,0
76,75.13,78.73,0
73,75.09,78.67,0
73,75.05,78.61,0
72,74.98,78.55,0
72,74.92,78.48,0
73,74.89,78.43,0
72,74.83,78.36,0
74,74.81,78.32,0
76,74.84,78.30,0
73,74.80,78.24,0
72,74.74,78.18,0
72,74.69,78.12,0
72,74.63,78.06,0
72,74.58,78.00,0
72,74.53,77.94,0
74,74.52,77.90,0
71,74.45,77.83,0
73,74.42,77.78,0
72,74.37,77.72,0
72,74.32,77.67,0
72,74.28,77.61,0
72,74.23,77.55,0
72,74.19,77.50,0
72,74.14,77.44,0
72,74.10,77.39,0
72,74.06,77.34,0
74,74.06,77.30,0
72,74.02,77.25,0
72,73.98,77.20,0
72,73.94,77.14,0
72,73.90,77.09,0
72,73.86,77.04,0
72,73.82,76.99,0
73,73.81,76.95,0
74,73.81,76.92,0
72,73.77,76.87,0
71,73.72,76.81,0
72,73.68,76.77,0
72,73.65,76.72,0
72,73.62,76.67,0
72,73.59,76.62,0
73,73.57,76.59,0
72,73.54,76.54,0
72,73.51,76.50,0
72,73.48,76.45,0
72,73.45,76.41,0
72,73.42,76.36,0
72,73.39,76.32,0
72,73.37,76.28,0
72,73.34,76.23,0
72,73.31,76.19,0
72,73.29,76.15,0
72,73.26,76.11,0
71,73.21,76.06,0
72,73.19,76.02,0
72,73.17,75.98,0
72,73.14,75.94,0
72,73.12,75.90,0
74,73.14,75.88,0
74,73.16,75.86,0
72,73.13,75.82,0
72,73.11,75.78,0
73,73.11,75.75,0
72,73.09,75.72,0
72,73.06,75.68,0
73,73.06,75.65,0
73,73.06,75.63,0
74,73.08,75.61,0
72,73.06,75.57,0
73,73.06,75.55,0
72,73.04,75.51,0
73,73.04,75.49,0
72,73.01,75.45,0
73,73.01,75.43,0
73,73.01,75.40,0
72,72.99,75.37,0
72,72.97,75.34,0
73,72.97,75.31,0
73,72.97,75.29,0
72,72.96,75.26,0
72,72.94,75.22,0
73,72.94,75.20,0
74,72.96,75.19,0
73,72.96,75.17,0
72,72.94,75.14,0
73,72.94,75.12,0
73,72.94,75.09,0
72,72.92,75.06,0
74,72.95,75.05,0
74,72.97,75.04,0
72,72.95,75.01,0
72,72.93,74.98,0
73,72.93,74.96,0
74,72.95,74.95,0
72,72.93,74.92,0
72,72.91,74.89,0
72,72.90,74.86,0
73,72.90,74.85,0
72,72.88,74.82,0
73,72.88,74.80,0
74,72.90,74.79,0
73,72.91,74.77,0
74,72.93,74.77,0
74,72.95,74.76,0
72,72.93,74.73,0
73,72.93,74.71,0
72,72.91,74.69,0
74,72.93,74.68,0
72,72.92,74.65,0
73,72.92,74.64,0
72,72.90,74.61,0
72,72.88,74.58,0
73,72.88,74.57,0
72,72.87,74.54,0
74,72.89,74.54,0
72,72.87,74.51,0
72,72.85,74.49,0
72,72.84,74.46,0
75,72.88,74.47,0
72,72.86,74.44,0
73,72.87,74.43,0
73,72.87,74.41,0
76,72.93,74.43,0
75,72.97,74.43,0
72,72.95,74.41,0
73,72.95,74.40,0
73,72.95,74.38,0
74,72.98,74.38,0
73,72.98,74.36,0
72,72.96,74.34,0
73,72.96,74.33,0
72,72.94,74.30,0
72,72.92,74.28,0
73,72.92,74.27,0
73,72.92,74.26,0
72,72.90,74.23,0
72,72.89,74.21,0
73,72.89,74.20,0
73,72.89,74.19,0
71,72.85,74.15,0
72,72.84,74.13,0
72,72.82,74.11,0
72,72.80,74.09,0
72,72.79,74.07,0
72,72.77,74.05,0
72,72.76,74.03,0
72,72.74,74.01,0
72,72.73,73.99,0
72,72.71,73.97,0
71,72.68,73.94,0
72,72.66,73.92,0
72,72.65,73.90,0
71,72.62,73.87,0
72,72.60,73.85,0
71,72.57,73.82,0
72,72.56,73.81,0
70,72.51,73.77,0
72,72.50,73.75,0
72,72.49,73.73,0
72,72.48,73.72,0
70,72.43,73.68,0
72,72.42,73.66,0
72,72.41,73.64,0
72,72.40,73.63,0
70,72.36,73.59,0
72,72.35,73.58,0
73,72.36,73.57,0
71,72.34,73.54,0
72,72.33,73.53,0
70,72.28,73.49,0
72,72.28,73.48,0
72,72.27,73.46,0
70,72.23,73.43,0
73,72.24,73.43,0
74,72.28,73.43,0
70,72.23,73.40,0
70,72.19,73.36,0
72,72.18,73.35,0
72,72.18,73.34,0
72,72.18,73.32,0
71,72.15,73.30,0
72,72.15,73.29,0
72,72.15,73.27,0
72,72.14,73.26,0
72,72.14,73.25,0
70,72.10,73.22,0
71,72.08,73.19,0
70,72.03,73.16,0
71,72.01,73.14,0
71,71.99,73.12,0
72,71.99,73.11,0
72,71.99,73.10,0
70,71.95,73.07,0
71,71.93,73.04,0
72,71.94,73.03,0
74,71.98,73.04,0
72,71.98,73.03,0
72,71.98,73.02,0
72,71.98,73.01,0
74,72.02,73.02,0
72,72.02,73.01,0
73,72.04,73.01,0
74,72.08,73.02,0
72,72.08,73.01,0
72,72.07,73.00,0
73,72.09,73.00,0
74,72.13,73.01,0
73,72.15,73.01,0
72,72.15,73.00,0
73,72.16,73.00,0
72,72.16,72.99,0
72,72.16,72.98,0
73,72.17,72.98,0
73,72.19,72.98,0
72,72.19,72.97,0
73,72.20,72.97,0
72,72.20,72.96,0
74,72.23,72.97,0
76,72.31,73.00,0
72,72.30,72.99,0
72,72.30,72.98,0
73,72.31,72.98,0
72,72.30,72.97,0
73,72.32,72.97,0
74,72.35,72.98,0
76,72.43,73.01,0
75,72.48,73.03,0
75,72.53,73.05,0
75,72.58,73.07,0
76,72.65,73.10,0
76,72.71,73.13,0
75,72.76,73.15,0
74,72.78,73.16,0
74,72.81,73.17,0
75,72.85,73.19,0
74,72.87,73.19,0
74,72.90,73.20,0
74,72.92,73.21,0
76,72.98,73.24,0
74,73.00,73.25,0
74,73.02,73.25,0
73,73.02,73.25,0
74,73.04,73.26,0
74,73.06,73.27,0
74,73.08,73.27,0
74,73.10,73.28,0
74,73.11,73.29,0
74,73.13,73.29,0
74,73.15,73.30,0
74,73.17,73.31,0
73,73.16,73.31,0
73,73.16,73.30,0
74,73.18,73.31,0
74,73.19,73.32,0
71,73.15,73.29,0
74,73.17,73.30,0
74,73.18,73.31,0
74,73.20,73.31,0
74,73.22,73.32,0
74,73.23,73.33,0
74,73.25,73.33,0
76,73.30,73.36,0
75,73.34,73.38,0
74,73.35,73.38,0
74,73.36,73.39,0
75,73.39,73.41,0
75,73.43,73.42,0
74,73.44,73.43,0
77,73.51,73.46,0
78,73.60,73.51,0
76,73.65,73.53,0
76,73.69,73.56,0
76,73.74,73.58,0
78,73.83,73.63,0
78,73.91,73.67,0
78,73.99,73.71,0
78,74.07,73.76,0
77,74.13,73.79,0
77,74.19,73.82,0
78,74.26,73.86,0
78,74.34,73.90,0
77,74.39,73.94,0
78,74.46,73.98,0
78,74.53,74.02,0
78,74.60,74.06,0
78,74.67,74.10,0
78,74.74,74.13,0
78,74.80,74.17,0
78,74.87,74.21,0
79,74.95,74.26,0
80,75.05,74.32,0
81,75.17,74.38,0
80,75.27,74.44,0
82,75.40,74.52,0
82,75.53,74.59,0
81,75.64,74.65,0
82,75.77,74.73,0
81,75.87,74.79,0
80,75.96,74.84,0
80,76.04,74.89,0
79,76.10,74.94,0
80,76.17,74.99,0
81,76.27,75.05,0
81,76.37,75.11,0
81,76.46,75.16,0
81,76.55,75.22,0
81,76.64,75.28,0
80,76.71,75.33,0
81,76.79,75.38,0
81,76.88,75.44,0
81,76.96,75.50,0
82,77.06,75.56,0
81,77.14,75.62,0
81,77.22,75.67,0
81,77.29,75.72,0
84,77.43,75.81,0
84,77.56,75.89,0
83,77.67,75.96,0
85,77.81,76.05,0
85,77.96,76.14,0
84,78.08,76.22,0
86,78.24,76.31,0
85,78.37,76.40,0
85,78.50,76.49,0
85,78.63,76.57,0
87,78.80,76.68,0
88,78.98,76.79,0
88,79.16,76.90,0
86,79.30,76.99,0
87,79.46,77.09,0
89,79.65,77.21,0
88,79.81,77.32,0
88,79.98,77.43,0
88,80.14,77.53,0
89,80.31,77.65,0
88,80.47,77.75,0
88,80.62,77.85,0
90,80.81,77.98,0
89,80.97,78.09,0
88,81.11,78.18,0
90,81.29,78.30,0
90,81.46,78.42,0
91,81.65,78.55,0
92,81.86,78.68,0
92,82.06,78.81,0
92,82.26,78.95,0
93,82.48,79.09,0
94,82.71,79.23,0
94,82.93,79.38,0
95,83.17,79.54,0
97,83.45,79.71,0
95,83.68,79.87,0
94,83.89,80.01,0
98,84.17,80.19,0
96,84.41,80.35,0
96,84.64,80.50,0
96,84.87,80.66,0
96,85.09,80.81,0
97,85.33,80.97,0
98,85.58,81.14,0
96,85.79,81.29,0
100,86.07,81.48,0
100,86.35,81.66,0
99,86.60,81.84,0
100,86.87,82.02,0
99,87.12,82.19,0
100,87.37,82.37,0
102,87.67,82.56,0
103,87.97,82.77,0
103,88.27,82.97,0
103,88.57,83.17,0
103,88.86,83.37,0
105,89.18,83.58,0
105,89.50,83.80,0
105,89.81,84.01,0
106,90.13,84.23,0
105,90.43,84.44,0
106,90.74,84.65,0
105,91.02,84.86,0
107,91.34,85.08,0
107,91.66,85.30,0
108,91.98,85.52,0
107,92.28,85.74,0
107,92.58,85.95,0
108,92.89,86.17,0
108,93.19,86.39,0
109,93.50,86.62,0
110,93.83,86.85,0
111,94.18,87.09,0
114,94.57,87.36,0
111,94.90,87.60,0
111,95.22,87.83,0
111,95.54,88.06,0
113,95.89,88.31,0
112,96.21,88.55,0
113,96.55,88.79,0
114,96.90,89.05,0
115,97.26,89.31,0
115,97.61,89.56,0
115,97.96,89.82,0
113,98.26,90.05,0
113,98.56,90.28,0
115,98.89,90.53,0
116,99.23,90.78,0
117,99.58,91.04,0
116,99.91,91.29,0
115,100.21,91.53,0
115,100.51,91.76,0
116,100.82,92.01,0
117,101.14,92.26,0
116,101.44,92.49,0
118,101.77,92.75,0
122,102.18,93.04,0
118,102.49,93.29,0
121,102.86,93.57,0
120,103.20,93.83,0
119,103.52,94.08,0
120,103.85,94.34,0
120,104.17,94.60,0
120,104.49,94.85,0
122,104.84,95.13,0
121,105.16,95.38,0
121,105.48,95.64,0
120,105.77,95.88,0
122,106.10,96.14,0
122,106.41,96.40,0
124,106.76,96.68,0
122,107.07,96.93,0
125,107.43,97.21,0
126,107.80,97.50,0
125,108.14,97.78,0
126,108.50,98.06,0
125,108.83,98.33,0
126,109.17,98.60,0
127,109.53,98.89,0
126,109.86,99.16,0
125,110.16,99.42,0
126,110.48,99.68,0
129,110.85,99.98,0
130,111.23,100.28,0
130,111.61,100.57,0
132,112.02,100.89,0
133,112.44,101.21,0
132,112.83,101.52,0
133,113.23,101.83,0
132,113.61,102.13,0
132,113.97,102.43,0
133,114.35,102.74,0
133,114.73,103.04,0
134,115.11,103.35,0
135,115.51,103.67,0
134,115.88,103.97,0
137,116.30,104.30,0
137,116.72,104.63,0
135,117.08,104.93,0
141,117.56,105.29,0
141,118.03,105.65,0
140,118.47,105.99,0
140,118.90,106.33,0
141,119.34,106.68,0
141,119.77,107.02,0
140,120.18,107.35,0
141,120.60,107.69,0
141,121.00,108.02,0
140,121.38,108.34,0
140,121.76,108.66,0
139,122.10,108.96,0
140,122.46,109.27,0
140,122.81,109.58,0
139,123.13,109.87,0
140,123.47,110.18,0
140,123.80,110.47,0
140,124.13,110.77,0
141,124.46,111.07,0
140,124.77,111.36,0
141,125.10,111.66,0
143,125.46,111.97,0
147,125.89,112.32,0
145,126.27,112.65,0
143,126.60,112.95,0
145,126.97,113.27,0
145,127.33,113.59,0
146,127.71,113.91,0
145,128.05,114.22,0
146,128.41,114.54,0
146,128.76,114.86,0
145,129.09,115.16,0
146,129.43,115.47,0
147,129.78,115.78,0
146,130.10,116.08,0
146,130.42,116.38,0
145,130.71,116.67,0
146,131.02,116.96,0
145,131.30,117.24,0
145,131.57,117.52,0
149,131.92,117.83,0
147,132.22,118.13,0
146,132.50,118.41,0
147,132.79,118.69,0
148,133.09,118.98,0
147,133.37,119.26,0
147,133.64,119.54,0
145,133.87,119.80,0
146,134.11,120.06,0
147,134.37,120.33,0
145,134.58,120.57,0
146,134.81,120.83,0
145,135.01,121.07,0
145,135.21,121.31,0
145,135.41,121.55,0
145,135.60,121.78,0
145,135.79,122.01,0
145,135.97,122.24,0
144,136.13,122.46,0
145,136.31,122.69,0
144,136.46,122.90,0
145,136.64,123.12,0
144,136.78,123.33,0
144,136.93,123.54,0
143,137.05,123.73,0
144,137.19,123.93,0
144,137.32,124.13,0
144,137.46,124.33,0
145,137.61,124.54,0
143,137.72,124.72,0
145,137.86,124.93,0
144,137.98,125.12,0
145,138.12,125.32,0
144,138.24,125.50,0
143,138.34,125.68,0
143,138.43,125.85,0
145,138.56,126.04,0
143,138.65,126.21,0
143,138.74,126.38,0
143,138.82,126.55,0
143,138.91,126.71,0
141,138.95,126.85,0
142,139.01,127.01,0
142,139.07,127.16,0
143,139.15,127.31,0
141,139.19,127.45,0
142,139.24,127.60,0
141,139.28,127.73,0
141,139.31,127.86,0
141,139.34,127.99,0
141,139.38,128.12,0
141,139.41,128.25,0
141,139.44,128.38,0
140,139.45,128.50,0
141,139.48,128.62,0
141,139.51,128.75,0
140,139.52,128.86,0
140,139.53,128.97,0
140,139.54,129.08,0
139,139.53,129.18,0
140,139.54,129.29,0
140,139.55,129.39,0
140,139.56,129.50,0
139,139.55,129.60,0
140,139.56,129.70,0
139,139.55,129.79,0
140,139.56,129.89,0
140,139.56,130.00,0
139,139.55,130.09,0
138,139.52,130.16,0
139,139.51,130.25,0
137,139.46,130.32,0
139,139.45,130.41,0
137,139.40,130.47,0
137,139.36,130.54,0
138,139.33,130.61,0
137,139.28,130.68,0
137,139.24,130.74,0
137,139.19,130.80,0
137,139.15,130.86,0
136,139.08,130.92,0
137,139.04,130.98,0
136,138.98,131.03,0
136,138.92,131.08,0
136,138.86,131.13,0
136,138.81,131.17,0
136,138.75,131.22,0
137,138.72,131.28,0
136,138.66,131.33,0
137,138.63,131.38,0
136,138.58,131.43,0
136,138.52,131.48,0
135,138.45,131.51,0
135,138.38,131.55,0
135,138.32,131.58,0
136,138.27,131.63,0
135,138.20,131.66,0
135,138.14,131.69,0
135,138.08,131.73,0
134,138.00,131.75,0
134,137.92,131.77,0
134,137.84,131.79,0
133,137.74,131.81,0
133,137.65,131.82,0
134,137.57,131.84,0
133,137.48,131.85,0
133,137.39,131.86,0
133,137.30,131.87,0
134,137.24,131.89,0
132,137.13,131.90,0
133,137.05,131.91,0
132,136.95,131.91,0
131,136.83,131.90,0
132,136.73,131.90,0
131,136.62,131.89,0
132,136.53,131.89,0
131,136.42,131.88,0
131,136.31,131.87,0
130,136.18,131.86,0
131,136.08,131.85,0
130,135.96,131.83,0
131,135.86,131.82,0
129,135.72,131.79,0
129,135.59,131.76,0
129,135.45,131.74,0
130,135.35,131.72,0
129,135.22,131.69,0
129,135.09,131.66,0
129,134.97,131.64,0
128,134.83,131.60,0
129,134.72,131.58,0
132,134.66,131.58,0
128,134.53,131.54,0
128,134.40,131.51,0
128,134.27,131.47,0
127,134.12,131.43,0
127,133.98,131.38,0
127,133.84,131.34,0
128,133.73,131.31,0
127,133.59,131.26,0
127,133.46,131.22,0
127,133.33,131.18,0
127,133.20,131.14,0
127,133.08,131.10,0
127,132.96,131.06,0
125,132.80,130.99,0
127,132.68,130.95,0
124,132.51,130.89,0
126,132.38,130.84,0
125,132.23,130.78,0
125,132.09,130.72,0
126,131.97,130.67,0
125,131.83,130.62,0
125,131.69,130.56,0
125,131.56,130.50,0
124,131.40,130.44,0
123,131.24,130.37,0
125,131.11,130.31,0
123,130.95,130.24,0
125,130.83,130.19,0
124,130.69,130.12,0
124,130.56,130.06,0
124,130.43,130.00,0
125,130.32,129.95,0
124,130.19,129.89,0
124,130.07,129.83,0
124,129.95,129.78,0
123,129.81,129.71,0
124,129.69,129.65,0
122,129.54,129.57,0
123,129.41,129.51,0
123,129.28,129.44,0
123,129.15,129.38,0
122,129.01,129.31,0
121,128.85,129.22,0
123,128.73,129.16,0
121,128.58,129.08,0
121,128.43,129.00,0
121,128.28,128.92,0
121,128.13,128.84,0
122,128.01,128.77,0
121,127.87,128.69,0
120,127.71,128.61,0
121,127.58,128.53,0
120,127.43,128.44,0
120,127.28,128.36,0
119,127.11,128.27,0
120,126.97,128.18,0
119,126.81,128.09,0
120,126.68,128.01,0
119,126.52,127.92,0
119,126.37,127.83,0
119,126.22,127.74,0
119,126.08,127.66,0
117,125.90,127.55,0
119,125.76,127.46,0
118,125.61,127.37,0
118,125.45,127.28,0
117,125.28,127.17,0
117,125.12,127.07,0
117,124.96,126.97,0
117,124.80,126.87,0
118,124.66,126.78,0
117,124.51,126.68,0
117,124.36,126.59,0
117,124.21,126.49,0
117,124.07,126.40,0
117,123.92,126.30,0
115,123.75,126.19,0
117,123.61,126.10,0
116,123.46,126.00,0
115,123.29,125.89,0
118,123.18,125.81,0
116,123.04,125.71,0
116,122.90,125.61,0
116,122.76,125.52,0
116,122.63,125.42,0
116,122.49,125.33,0
115,122.34,125.22,0
116,122.22,125.13,0
115,122.07,125.03,0
116,121.95,124.94,0
115,121.81,124.84,0
116,121.70,124.75,0
115,121.56,124.65,0
115,121.43,124.56,0
114,121.28,124.45,0
114,121.14,124.35,0
114,120.99,124.24,0
115,120.87,124.15,0
113,120.72,124.04,0
114,120.58,123.94,0
113,120.43,123.83,0
113,120.28,123.72,0
114,120.16,123.63,0
114,120.03,123.53,0
114,119.91,123.43,0
113,119.77,123.33,0
113,119.64,123.23,0
113,119.51,123.12,0
114,119.40,123.03,0
111,119.23,122.91,0
113,119.10,122.81,0
113,118.98,122.71,0
113,118.86,122.62,0
113,118.74,122.52,0
113,118.63,122.43,0
113,118.52,122.33,0
112,118.39,122.23,0
111,118.24,122.12,0
112,118.11,122.02,0
112,117.99,121.92,0
112,117.87,121.82,0
112,117.75,121.72,0
112,117.64,121.62,0
112,117.53,121.52,0
112,117.42,121.43,0
111,117.29,121.32,0
113,117.20,121.24,0
112,117.10,121.15,0
112,117.00,121.06,0
113,116.92,120.98,0
112,116.82,120.89,0
113,116.74,120.81,0
112,116.65,120.72,0
112,116.55,120.63,0
111,116.44,120.54,0
112,116.35,120.45,0
111,116.25,120.36,0
112,116.16,120.27,0
112,116.08,120.19,0
112,116.00,120.11,0
113,115.94,120.04,0
112,115.86,119.96,0
111,115.76,119.87,0
111,115.67,119.78,0
112,115.59,119.70,0
111,115.50,119.61,0
111,115.41,119.53,0
111,115.32,119.44,0
115,115.32,119.40,0
109,115.19,119.29,0
111,115.11,119.21,0
111,115.02,119.13,0
112,114.96,119.06,0
111,114.88,118.98,0
111,114.81,118.90,0
111,114.73,118.82,0
111,114.66,118.74,0
111,114.58,118.66,0
111,114.51,118.59,0
111,114.44,118.51,0
111,114.37,118.44,0
111,114.30,118.36,0
111,114.24,118.29,0
112,114.19,118.22,0
109,114.09,118.13,0
111,114.03,118.06,0
109,113.93,117.97,0
110,113.85,117.89,0
110,113.77,117.81,0
110,113.70,117.73,0
110,113.62,117.66,0
109,113.53,117.57,0
111,113.48,117.50,0
110,113.41,117.43,0
111,113.36,117.36,0
111,113.31,117.30,0
111,113.27,117.24,0
110,113.20,117.17,0
109,113.12,117.08,0
111,113.08,117.02,0
111,113.03,116.96,0
109,112.95,116.88,0
109,112.88,116.80,0
110,112.82,116.74,0
111,112.78,116.68,0
109,112.71,116.60,0
109,112.63,116.53,0
109,112.56,116.45,0
109,112.49,116.38,0
109,112.42,116.30,0
109,112.35,116.23,0
109,112.28,116.16,0
109,112.22,116.09,0
109,112.15,116.02,0
109,112.09,115.94,0
109,112.03,115.88,0
107,111.93,115.79,0
109,111.87,115.72,0
108,111.79,115.64,0
108,111.72,115.57,0
107,111.62,115.48,0
109,111.57,115.41,0
107,111.48,115.33,0
108,111.41,115.26,0
108,111.34,115.18,0
107,111.25,115.10,0
108,111.19,115.03,0
107,111.10,114.95,0
107,111.02,114.87,0
107,110.94,114.79,0
108,110.88,114.73,0
107,110.81,114.65,0
105,110.69,114.55,0
106,110.60,114.47,0
107,110.52,114.39,0
107,110.45,114.32,0
107,110.38,114.24,0
106,110.30,114.16,0
108,110.25,114.10,0
107,110.19,114.03,0
106,110.10,113.95,0
105,110.00,113.86,0
107,109.94,113.79,0
108,109.90,113.73,0
107,109.84,113.67,0
107,109.79,113.60,0
105,109.69,113.51,0
105,109.60,113.43,0
106,109.52,113.35,0
107,109.47,113.29,0
106,109.40,113.22,0
107,109.36,113.16,0
105,109.27,113.07,0
105,109.18,112.99,0
105,109.10,112.91,0
107,109.06,112.85,0
105,108.98,112.78,0
105,108.90,112.70,0
106,108.84,112.63,0
104,108.74,112.54,0
105,108.67,112.47,0
105,108.59,112.39,0
105,108.52,112.32,0
104,108.43,112.24,0
105,108.36,112.16,0
104,108.28,112.08,0
104,108.19,112.00,0
104,108.11,111.92,0
104,108.02,111.84,0
104,107.94,111.76,0
105,107.89,111.70,0
103,107.79,111.61,0
104,107.71,111.53,0
104,107.64,111.46,0
103,107.54,111.37,0
104,107.47,111.30,0
103,107.38,111.22,0
103,107.30,111.13,0
102,107.19,111.04,0
103,107.11,110.96,0
103,107.03,110.88,0
103,106.94,110.80,0
103,106.87,110.73,0
102,106.77,110.64,0
102,106.67,110.55,0
103,106.60,110.48,0
102,106.51,110.39,0
103,106.44,110.32,0
101,106.33,110.23,0
101,106.22,110.13,0
101,106.12,110.04,0
103,106.06,109.97,0
101,105.95,109.88,0
103,105.90,109.81,0
101,105.80,109.72,0
101,105.70,109.64,0
101,105.61,109.55,0
101,105.52,109.47,0
102,105.44,109.39,0
101,105.36,109.31,0
101,105.27,109.22,0
101,105.18,109.14,0
101,105.10,109.06,0
99,104.98,108.96,0
100,104.88,108.87,0
100,104.78,108.78,0
100,104.68,108.69,0
101,104.61,108.62,0
101,104.54,108.54,0
101,104.47,108.47,0
101,104.40,108.39,0
100,104.31,108.31,0
100,104.22,108.22,0
102,104.18,108.16,0
101,104.12,108.09,0
100,104.03,108.01,0
100,103.95,107.93,0
97,103.81,107.82,0
100,103.74,107.74,0
99,103.64,107.65,0
100,103.57,107.58,0
99,103.48,107.49,0
99,103.39,107.41,0
100,103.32,107.33,0
99,103.24,107.25,0
99,103.15,107.17,0
99,103.07,107.09,0
98,102.97,106.99,0
98,102.87,106.90,0
98,102.77,106.82,0
100,102.71,106.75,0
97,102.60,106.65,0
97,102.49,106.55,0
99,102.42,106.48,0
98,102.33,106.39,0
98,102.24,106.31,0
98,102.16,106.23,0
99,102.10,106.15,0
98,102.01,106.07,0
100,101.97,106.01,0
98,101.89,105.93,0
98,101.82,105.85,0
98,101.74,105.77,0
97,101.64,105.69,0
97,101.55,105.60,0
96,101.44,105.50,0
97,101.35,105.42,0
98,101.28,105.34,0
98,101.22,105.27,0
96,101.11,105.18,0
97,101.03,105.10,0
97,100.95,105.01,0
97,100.87,104.93,0
96,100.78,104.85,0
97,100.70,104.77,0
97,100.63,104.69,0
97,100.55,104.61,0
95,100.44,104.52,0
96,100.35,104.43,0
96,100.27,104.35,0
96,100.18,104.26,0
96,100.10,104.18,0
96,100.02,104.10,0
96,99.94,104.02,0
95,99.84,103.93,0
96,99.76,103.85,0
96,99.68,103.77,0
96,99.61,103.69,0
95,99.52,103.61,0
97,99.47,103.54,0
96,99.40,103.46,0
96,99.33,103.39,0
95,99.24,103.31,0
95,99.16,103.22,0
95,99.08,103.14,0
96,99.01,103.07,0
95,98.93,102.99,0
95,98.86,102.91,0
95,98.78,102.83,0
93,98.66,102.73,0
95,98.59,102.65,0
94,98.50,102.57,0
94,98.41,102.48,0
95,98.34,102.41,0
94,98.25,102.32,0
93,98.15,102.23,0
94,98.07,102.15,0
93,97.96,102.06,0
93,97.86,101.96,0
93,97.77,101.88,0
93,97.67,101.79,0
94,97.60,101.71,0
93,97.51,101.62,0
94,97.44,101.55,0
93,97.35,101.46,0
93,97.26,101.38,0
93,97.18,101.29,0
93,97.09,101.21,0
93,97.01,101.13,0
93,96.93,101.05,0
93,96.85,100.96,0
93,96.77,100.89,0
92,96.68,100.80,0
89,96.53,100.68,0
93,96.45,100.60,0
92,96.37,100.52,0
92,96.28,100.43,0
93,96.21,100.36,0
92,96.13,100.27,0
91,96.03,100.18,0
94,95.99,100.12,0
92,95.91,100.04,0
92,95.83,99.96,0
91,95.73,99.87,0
93,95.68,99.80,0
92,95.60,99.72,0
92,95.53,99.64,0
91,95.44,99.56,0
93,95.39,99.49,0
92,95.32,99.42,0
92,95.26,99.34,0
90,95.15,99.25,0
93,95.11,99.19,0
92,95.05,99.11,0
90,94.95,99.02,0
90,94.85,98.93,0
92,94.79,98.86,0
92,94.73,98.79,0
91,94.66,98.72,0
90,94.57,98.63,0
92,94.51,98.56,0
91,94.44,98.49,0
93,94.42,98.43,0
90,94.33,98.35,0
91,94.26,98.28,0
89,94.16,98.18,0
90,94.07,98.10,0
90,93.99,98.02,0
90,93.91,97.94,0
90,93.83,97.86,0
90,93.76,97.78,0
90,93.68,97.70,0
90,93.61,97.63,0
90,93.54,97.55,0
90,93.46,97.47,0
90,93.40,97.40,0
89,93.31,97.32,0
90,93.24,97.24,0
94,93.26,97.21,0
90,93.19,97.14,0
90,93.13,97.07,0
90,93.07,97.00,0
90,93.00,96.93,0
90,92.94,96.86,0
90,92.88,96.79,0
90,92.83,96.72,0
87,92.71,96.62,0
90,92.66,96.56,0
90,92.60,96.49,0
88,92.51,96.41,0
88,92.42,96.32,0
90,92.37,96.26,0
88,92.29,96.18,0
88,92.20,96.09,0
84,92.04,95.97,0
89,91.97,95.90,0
89,91.92,95.84,0
88,91.84,95.76,0
88,91.76,95.68,0
89,91.71,95.61,0
88,91.63,95.54,0
88,91.56,95.46,0
88,91.49,95.39,0
88,91.42,95.31,0
88,91.35,95.24,0
88,91.28,95.17,0
88,91.22,95.10,0
87,91.13,95.01,0
86,91.03,94.92,0
91,91.03,94.89,0
88,90.97,94.82,0
87,90.89,94.74,0
87,90.81,94.66,0
88,90.75,94.59,0
88,90.70,94.53,0
87,90.63,94.45,0
88,90.57,94.39,0
88,90.52,94.32,0
86,90.43,94.24,0
87,90.36,94.17,0
87,90.30,94.10,0
86,90.21,94.02,0
86,90.13,93.94,0
86,90.04,93.86,0
87,89.98,93.79,0
87,89.92,93.72,0
86,89.84,93.64,0
86,89.77,93.57,0
88,89.73,93.51,0
86,89.66,93.44,0
86,89.58,93.36,0
86,89.51,93.29,0
88,89.48,93.23,0
86,89.41,93.16,0
86,89.34,93.09,0
86,89.28,93.02,0
87,89.23,92.96,0
85,89.15,92.88,0
86,89.08,92.81,0
86,89.02,92.74,0
85,88.94,92.67,0
85,88.86,92.59,0
85,88.79,92.51,0
84,88.69,92.43,0
85,88.62,92.35,0
85,88.54,92.28,0
84,88.45,92.20,0
84,88.36,92.12,0
84,88.28,92.03,0
85,88.21,91.96,0
84,88.13,91.88,0
84,88.04,91.81,0
85,87.98,91.74,0
85,87.92,91.67,0
84,87.85,91.59,0
84,87.77,91.52,0
85,87.71,91.45,0
83,87.62,91.37,0
84,87.55,91.29,0
84,87.48,91.22,0
84,87.41,91.15,0
84,87.34,91.08,0
84,87.27,91.01,0
85,87.23,90.95,0
84,87.16,90.88,0
84,87.10,90.81,0
84,87.04,90.74,0
84,86.98,90.67,0
84,86.92,90.61,0
84,86.86,90.54,0
84,86.80,90.47,0
84,86.74,90.41,0
84,86.69,90.35,0
83,86.62,90.27,0
84,86.56,90.21,0
84,86.51,90.15,0
83,86.44,90.08,0
82,86.35,90.00,0
82,86.27,89.92,0
82,86.18,89.84,0
83,86.12,89.77,0
82,86.03,89.69,0
82,85.95,89.61,0
82,85.88,89.54,0
83,85.82,89.47,0
82,85.74,89.40,0
82,85.67,89.32,0
82,85.59,89.25,0
82,85.52,89.18,0
82,85.45,89.11,0
82,85.38,89.03,0
83,85.33,88.97,0
82,85.27,88.90,0
84,85.24,88.86,0
82,85.18,88.79,0
83,85.13,88.73,0
82,85.07,88.66,0
82,85.01,88.60,0
82,84.95,88.53,0
82,84.89,88.46,0
82,84.83,88.40,0
80,84.74,88.32,0
82,84.68,88.25,0
82,84.63,88.19,0
82,84.58,88.13,0
81,84.50,88.06,0
82,84.45,88.00,0
82,84.40,87.94,0
84,84.40,87.90,0
81,84.33,87.83,0
82,84.28,87.77,0
81,84.22,87.70,0
82,84.17,87.64,0
81,84.11,87.58,0
81,84.05,87.51,0
81,83.99,87.45,0
82,83.95,87.39,0
81,83.89,87.33,0
81,83.83,87.27,0
81,83.77,87.20,0
81,83.72,87.14,0
83,83.70,87.10,0
80,83.63,87.03,0
81,83.58,86.97,0
81,83.52,86.91,0
80,83.45,86.84,0
80,83.38,86.77,0
80,83.32,86.70,0
81,83.27,86.65,0
80,83.21,86.58,0
80,83.14,86.51,0
79,83.06,86.44,0
80,83.00,86.37,0
80,82.94,86.31,0
80,82.88,86.25,0
78,82.78,86.17,0
79,82.71,86.09,0
80,82.65,86.03,0
80,82.60,85.97,0
78,82.51,85.89,0
80,82.46,85.83,0
80,82.41,85.78,0
78,82.32,85.70,0
78,82.23,85.62,0
79,82.17,85.55,0
79,82.10,85.49,0
78,82.02,85.41,0
78,81.94,85.34,0
79,81.88,85.28,0
79,81.83,85.21,0
80,81.79,85.16,0
79,81.73,85.10,0
79,81.68,85.04,0
78,81.61,84.97,0
78,81.53,84.90,0
78,81.46,84.83,0
79,81.41,84.77,0
78,81.34,84.70,0
78,81.28,84.64,0
79,81.23,84.58,0
81,81.23,84.54,0
78,81.16,84.48,0
78,81.10,84.41,0
79,81.06,84.36,0
79,81.02,84.31,0
78,80.96,84.24,0
78,80.90,84.18,0
78,80.84,84.12,0
79,80.80,84.07,0
78,80.75,84.01,0
79,80.71,83.96,0
78,80.66,83.90,0
78,80.60,83.84,0
78,80.55,83.78,0
79,80.52,83.73,0
78,80.47,83.68,0
77,80.40,83.61,0
78,80.35,83.55,0
78,80.31,83.50,0
79,80.28,83.45,0
78,80.23,83.40,0
78,80.19,83.34,0
78,80.15,83.29,0
77,80.08,83.23,0
78,80.04,83.17,0
80,80.04,83.14,0
78,80.00,83.09,0
78,79.96,83.04,0
77,79.90,82.98,0
77,79.84,82.92,0
78,79.81,82.87,0
77,79.75,82.81,0
77,79.69,82.75,0
77,79.64,82.70,0
78,79.61,82.65,0
78,79.58,82.60,0
78,79.54,82.56,0
77,79.49,82.50,0
77,79.44,82.45,0
77,79.39,82.39,0
76,79.33,82.33,0
79,79.32,82.30,0
76,79.25,82.23,0
77,79.21,82.18,0
78,79.18,82.14,0
77,79.14,82.09,0
76,79.08,82.03,0
77,79.04,81.98,0
80,79.06,81.96,0
76,78.99,81.90,0
76,78.93,81.84,0
78,78.92,81.80,0
76,78.86,81.74,0
78,78.84,81.70,0
76,78.78,81.65,0
75,78.71,81.58,0
76,78.65,81.52,0
76,78.60,81.47,0
75,78.53,81.40,0
77,78.50,81.36,0
76,78.45,81.31,0
76,78.40,81.25,0
76,78.35,81.20,0
74,78.26,81.13,0
73,78.16,81.05,0
76,78.12,81.00,0
75,78.05,80.94,0
76,78.01,80.89,0
76,77.97,80.84,0
75,77.91,80.78,0
76,77.87,80.73,0
74,77.80,80.67,0
76,77.76,80.62,0
76,77.73,80.57,0
75,77.67,80.52,0
76,77.64,80.47,0
76,77.61,80.43,0
75,77.55,80.37,0
74,77.48,80.31,0
76,77.45,80.27,0
75,77.40,80.21,0
75,77.36,80.16,0
74,77.29,80.10,0
74,77.22,80.04,0
75,77.18,79.99,0
74,77.11,79.93,0
74,77.05,79.87,0
74,76.99,79.81,0
75,76.95,79.76,0
74,76.89,79.70,0
74,76.83,79.65,0
74,76.78,79.59,0
74,76.72,79.54,0
74,76.67,79.48,0
74,76.61,79.43,0
76,76.60,79.39,0
74,76.55,79.34,0
74,76.50,79.28,0
74,76.45,79.23,0
74,76.40,79.18,0
74,76.35,79.13,0
74,76.31,79.08,0
74,76.26,79.02,0
74,76.21,78.97,0
74,76.17,78.92,0
74,76.13,78.88,0
74,76.08,78.83,0
74,76.04,78.78,0
74,76.00,78.73,0
74,75.96,78.68,0
74,75.92,78.64,0
74,75.88,78.59,0
74,75.85,78.54,0
74,75.81,78.50,0
74,75.77,78.45,0
74,75.74,78.41,0
74,75.70,78.37,0
74,75.67,78.32,0
74,75.64,78.28,0
74,75.60,78.24,0
74,75.57,78.19,0
74,75.54,78.15,0
74,75.51,78.11,0
74,75.48,78.07,0
74,75.45,78.03,0
73,75.40,77.98,0
74,75.37,77.94,0
73,75.32,77.89,0
74,75.30,77.85,0
74,75.27,77.81,0
74,75.25,77.77,0
72,75.18,77.72,0
75,75.18,77.69,0
73,75.13,77.64,0
74,75.11,77.60,0
73,75.07,77.56,0
75,75.07,77.53,0
73,75.03,77.49,0
73,74.99,77.44,0
74,74.97,77.41,0
73,74.93,77.36,0
72,74.87,77.31,0
74,74.85,77.28,0
73,74.81,77.23,0
73,74.78,77.19,0
72,74.72,77.14,0
72,74.67,77.09,0
73,74.63,77.05,0
73,74.60,77.01,0
73,74.57,76.97,0
72,74.52,76.92,0
72,74.47,76.87,0
73,74.44,76.83,0
73,74.41,76.79,0
72,74.36,76.74,0
73,74.33,76.71,0
72,74.29,76.66,0
72,74.24,76.61,0
72,74.20,76.57,0
72,74.15,76.52,0
73,74.13,76.49,0
72,74.09,76.44,0
72,74.05,76.40,0
74,74.04,76.37,0
73,74.02,76.34,0
72,73.98,76.30,0
72,73.94,76.25,0
72,73.90,76.21,0
72,73.87,76.17,0
72,73.83,76.13,0
72,73.79,76.09,0
71,73.74,76.03,0
72,73.70,75.99,0
72,73.67,75.95,0
72,73.63,75.91,0
72,73.60,75.88,0
72,73.57,75.84,0
71,73.52,75.79,0
70,73.45,75.73,0
70,73.38,75.67,0
71,73.33,75.63,0
71,73.29,75.58,0
70,73.22,75.52,0
72,73.20,75.49,0
72,73.17,75.45,0
72,73.15,75.42,0
70,73.08,75.37,0
72,73.06,75.33,0
72,73.04,75.30,0
70,72.98,75.25,0
71,72.94,75.20,0
72,72.92,75.17,0
71,72.88,75.13,0
72,72.87,75.10,0
72,72.85,75.07,0
70,72.79,75.02,0
72,72.78,74.99,0
70,72.72,74.94,0
71,72.69,74.90,0
72,72.67,74.87,0
72,72.66,74.84,0
70,72.61,74.79,0
70,72.55,74.74,0
72,72.54,74.72,0
70,72.49,74.67,0
71,72.46,74.63,0
70,72.41,74.59,0
71,72.38,74.55,0
71,72.36,74.51,0
70,72.31,74.47,0
71,72.28,74.43,0
70,72.24,74.39,0
70,72.19,74.35,0
72,72.19,74.32,0
70,72.15,74.28,0
70,72.10,74.24,0
70,72.06,74.19,0
70,72.02,74.15,0
70,71.98,74.11,0
69,71.92,74.06,0
70,71.88,74.02,0
69,71.82,73.97,0
70,71.79,73.93,0
70,71.75,73.89,0
71,71.74,73.86,0
70,71.70,73.82,0
69,71.65,73.77,0
70,71.61,73.74,0
69,71.56,73.69,0
69,71.51,73.64,0
70,71.48,73.61,0
70,71.45,73.57,0
69,71.40,73.52,0
70,71.37,73.49,0
69,71.33,73.44,0
70,71.30,73.41,0
69,71.25,73.37,0
69,71.21,73.32,0
69,71.16,73.28,0
68,71.10,73.23,0
69,71.06,73.18,0
69,71.02,73.14,0
68,70.96,73.09,0
69,70.92,73.05,0
69,70.88,73.01,0
69,70.84,72.97,0
68,70.79,72.92,0
68,70.73,72.87,0
69,70.70,72.83,0
69,70.66,72.79,0
68,70.61,72.74,0
68,70.56,72.70,0
68,70.51,72.65,0
68,70.46,72.60,0
68,70.41,72.56,0
68,70.36,72.51,0
69,70.33,72.48,0
68,70.28,72.43,0
68,70.24,72.39,0
68,70.19,72.34,0
69,70.17,72.31,0
68,70.13,72.27,0
68,70.08,72.22,0
68,70.04,72.18,0
68,70.00,72.14,0
68,69.96,72.10,0
68,69.92,72.06,0
70,69.92,72.04,0
68,69.89,72.00,0
68,69.85,71.96,0
68,69.81,71.92,0
68,69.77,71.88,0
69,69.76,71.85,0
68,69.72,71.81,0
66,69.65,71.75,0
68,69.62,71.72,0
67,69.56,71.67,0
66,69.49,71.61,0
70,69.50,71.60,0
66,69.43,71.54,0
67,69.38,71.49,0
69,69.38,71.47,0
68,69.35,71.43,0
66,69.28,71.38,0
68,69.26,71.35,0
68,69.23,71.31,0
70,69.25,71.30,0
67,69.20,71.26,0
67,69.16,71.21,0
66,69.09,71.16,0
68,69.07,71.13,0
67,69.03,71.09,0
67,68.99,71.05,0
70,69.01,71.04,0
64,68.91,70.97,0
68,68.89,70.94,0
68,68.87,70.91,0
70,68.90,70.90,0
66,68.84,70.85,0
67,68.80,70.81,0
66,68.75,70.76,0
68,68.73,70.74,0
64,68.64,70.67,0
66,68.58,70.62,0
66,68.53,70.58,0
66,68.48,70.53,0
66,68.43,70.48,0
66,68.38,70.44,0
67,68.36,70.41,0
68,68.35,70.38,0
66,68.30,70.34,0
66,68.26,70.29,0
66,68.21,70.25,0
66,68.17,70.21,0
66,68.12,70.17,0
66,68.08,70.13,0
68,68.08,70.10,0
65,68.02,70.05,0
66,67.98,70.01,0
66,67.94,69.97,0
68,67.94,69.95,0
65,67.88,69.90,0
66,67.84,69.86,0
66,67.81,69.83,0
65,67.75,69.78,0
66,67.71,69.74,0
66,67.68,69.70,0
66,67.65,69.67,0
65,67.59,69.62,0
66,67.56,69.58,0
65,67.51,69.54,0
66,67.48,69.50,0
67,67.47,69.48,0
65,67.42,69.43,0
65,67.37,69.39,0
64,67.31,69.33,0
66,67.28,69.30,0
64,67.21,69.25,0
64,67.15,69.19,0
64,67.09,69.14,0
65,67.04,69.10,0
65,67.00,69.06,0
64,66.94,69.01,0
64,66.88,68.96,0
65,66.85,68.92,0
64,66.79,68.87,0
64,66.73,68.82,0
64,66.68,68.77,0
64,66.63,68.73,0
