Teste de posicionamento 4(EMG tendao-inervacao (Vermelho A, Verde C) + Ref no cotovelo) - 16/09/2024 - teste3 - 5 contrações
long frequencia = 1000;                 //frequência de aquisição do sinal, neste caso, 1000 sinais por segundo
float fator1 = 0.02, fator2 = 0.01;
float incerteza = 0.13;
float pico_basal = 130; // Mínimo para ser considerado um pico de contração
int filtro_horizontal=200000; //intervalo de 200ms valores não pode ter mais de 1 contração

Biceps_D,mediaMovel_1,mediaMovel_2,Contracao
37,0.74,0.37,0
37,1.47,0.74,0
36,2.16,1.09,0
38,2.87,1.46,0
38,3.58,1.82,0
38,4.26,2.19,0
39,4.96,2.55,0
38,5.62,2.91,0
39,6.29,3.27,0
39,6.94,3.63,0
39,7.58,3.98,0
40,8.23,4.34,0
37,8.81,4.67,0
39,9.41,5.01,0
38,9.98,5.34,0
40,10.58,5.69,0
39,11.15,6.02,0
38,11.69,6.34,0
39,12.23,6.67,0
39,12.77,6.99,0
38,13.27,7.30,0
38,13.77,7.61,0
39,14.27,7.92,0
40,14.79,8.24,0
38,15.25,8.54,0
39,15.73,8.84,0
39,16.19,9.14,0
38,16.63,9.43,0
38,17.06,9.72,0
39,17.49,10.01,0
40,17.94,10.31,0
37,18.33,10.58,0
38,18.72,10.85,0
39,19.12,11.13,0
37,19.48,11.39,0
38,19.85,11.66,0
38,20.22,11.92,0
38,20.57,12.18,0
42,21.00,12.48,0
38,21.34,12.74,0
36,21.63,12.97,0
38,21.96,13.22,0
37,22.26,13.46,0
38,22.58,13.70,0
36,22.84,13.93,0
37,23.13,14.16,0
38,23.43,14.40,0
36,23.68,14.61,0
37,23.94,14.83,0
38,24.22,15.07,0
39,24.52,15.31,0
38,24.79,15.53,0
38,25.05,15.76,0
38,25.31,15.98,0
35,25.51,16.17,0
38,25.76,16.39,0
38,26.00,16.60,0
38,26.24,16.82,0
38,26.48,17.03,0
38,26.71,17.24,0
39,26.95,17.46,0
38,27.17,17.66,0
38,27.39,17.87,0
38,27.60,18.07,0
38,27.81,18.27,0
38,28.01,18.46,0
38,28.21,18.66,0
38,28.41,18.85,0
38,28.60,19.04,0
39,28.81,19.24,0
38,28.99,19.43,0
38,29.17,19.62,0
40,29.39,19.82,0
38,29.56,20.00,0
38,29.73,20.18,0
40,29.94,20.38,0
38,30.10,20.56,0
38,30.26,20.73,0
38,30.41,20.90,0
38,30.56,21.08,0
38,30.71,21.24,0
39,30.88,21.42,0
40,31.06,21.61,0
40,31.24,21.79,0
39,31.39,21.96,0
43,31.63,22.17,0
38,31.75,22.33,0
39,31.90,22.50,0
41,32.08,22.68,0
39,32.22,22.85,0
39,32.35,23.01,0
41,32.53,23.19,0
39,32.66,23.35,0
39,32.78,23.50,0
39,32.91,23.66,0
39,33.03,23.81,0
39,33.15,23.96,0
40,33.29,24.12,0
38,33.38,24.26,0
38,33.47,24.40,0
38,33.56,24.54,0
39,33.67,24.68,0
42,33.84,24.85,0
40,33.96,25.01,0
40,34.08,25.16,0
39,34.18,25.29,0
40,34.30,25.44,0
38,34.37,25.57,0
40,34.48,25.71,0
41,34.61,25.86,0
40,34.72,26.01,0
39,34.81,26.14,0
39,34.89,26.26,0
39,34.97,26.39,0
40,35.07,26.53,0
40,35.17,26.66,0
38,35.23,26.78,0
39,35.30,26.90,0
39,35.38,27.02,0
38,35.43,27.13,0
38,35.48,27.24,0
39,35.55,27.35,0
39,35.62,27.47,0
38,35.67,27.58,0
38,35.72,27.68,0
40,35.80,27.80,0
42,35.93,27.95,0
39,35.99,28.06,0
40,36.07,28.18,0
42,36.19,28.31,0
39,36.24,28.42,0
38,36.28,28.52,0
39,36.33,28.62,0
41,36.42,28.75,0
38,36.46,28.84,0
39,36.51,28.94,0
38,36.54,29.03,0
40,36.61,29.14,0
40,36.67,29.25,0
38,36.70,29.34,0
38,36.73,29.42,0
40,36.79,29.53,0
40,36.86,29.63,0
39,36.90,29.73,0
38,36.92,29.81,0
46,37.10,29.97,0
40,37.16,30.07,0
38,37.18,30.15,0
39,37.21,30.24,0
39,37.25,30.33,0
39,37.28,30.41,0
38,37.30,30.49,0
38,37.31,30.56,0
42,37.41,30.68,0
40,37.46,30.77,0
38,37.47,30.84,0
38,37.48,30.92,0
39,37.51,31.00,0
39,37.54,31.08,0
38,37.55,31.15,0
40,37.60,31.23,0
37,37.59,31.29,0
40,37.63,31.38,0
38,37.64,31.45,0
38,37.65,31.51,0
41,37.72,31.61,0
38,37.72,31.67,0
38,37.73,31.73,0
38,37.73,31.80,0
35,37.68,31.83,0
39,37.70,31.90,0
38,37.71,31.96,0
38,37.72,32.02,0
39,37.74,32.09,0
38,37.75,32.15,0
38,37.75,32.21,0
38,37.76,32.27,0
38,37.76,32.32,0
38,37.77,32.38,0
40,37.81,32.46,0
38,37.82,32.51,0
38,37.82,32.57,0
38,37.82,32.62,0
38,37.83,32.68,0
39,37.85,32.74,0
38,37.85,32.79,0
38,37.86,32.84,0
38,37.86,32.89,0
39,37.88,32.96,0
38,37.88,33.01,0
38,37.89,33.06,0
38,37.89,33.11,0
38,37.89,33.15,0
39,37.91,33.21,0
42,37.99,33.30,0
38,37.99,33.35,0
38,37.99,33.39,0
38,37.99,33.44,0
40,38.03,33.51,0
38,38.03,33.55,0
38,38.03,33.60,0
38,38.03,33.64,0
39,38.05,33.69,0
38,38.05,33.74,0
38,38.05,33.78,0
38,38.05,33.82,0
38,38.05,33.86,0
38,38.05,33.90,0
38,38.05,33.95,0
38,38.05,33.99,0
37,38.02,34.02,0
37,38.00,34.05,0
38,38.00,34.09,0
38,38.00,34.12,0
37,37.98,34.15,0
37,37.96,34.18,0
37,37.94,34.21,0
38,37.95,34.25,0
37,37.93,34.28,0
37,37.91,34.30,0
39,37.93,34.35,0
38,37.93,34.39,0
37,37.91,34.41,0
38,37.91,34.45,0
38,37.92,34.48,0
37,37.90,34.51,0
38,37.90,34.54,0
36,37.86,34.56,0
36,37.82,34.57,0
37,37.81,34.60,0
36,37.77,34.61,0
36,37.74,34.62,0
36,37.70,34.64,0
37,37.69,34.66,0
37,37.67,34.69,0
38,37.68,34.72,0
38,37.69,34.75,0
40,37.73,34.80,0
37,37.72,34.83,0
36,37.68,34.84,0
38,37.69,34.87,0
37,37.68,34.89,0
37,37.66,34.91,0
36,37.63,34.92,0
38,37.64,34.95,0
37,37.62,34.97,0
37,37.61,34.99,0
36,37.58,35.00,0
36,37.55,35.01,0
37,37.54,35.03,0
36,37.51,35.04,0
35,37.46,35.04,0
37,37.45,35.06,0
37,37.44,35.08,0
36,37.41,35.09,0
36,37.38,35.10,0
36,37.35,35.11,0
37,37.35,35.13,0
38,37.36,35.16,0
36,37.33,35.17,0
38,37.35,35.19,0
37,37.34,35.21,0
38,37.35,35.24,0
38,37.37,35.27,0
38,37.38,35.29,0
37,37.37,35.31,0
38,37.38,35.34,0
38,37.40,35.37,0
42,37.49,35.43,0
38,37.50,35.46,0
38,37.51,35.48,0
36,37.48,35.49,0
38,37.49,35.51,0
38,37.50,35.54,0
36,37.47,35.54,0
38,37.48,35.57,0
35,37.43,35.56,0
37,37.42,35.58,0
36,37.39,35.58,0
38,37.40,35.60,0
38,37.42,35.63,0
37,37.41,35.64,0
38,37.42,35.67,0
40,37.47,35.71,0
36,37.44,35.71,0
38,37.45,35.73,0
36,37.42,35.74,0
37,37.42,35.75,0
38,37.43,35.77,0
40,37.48,35.81,0
41,37.55,35.87,0
40,37.60,35.91,0
40,37.65,35.95,0
39,37.67,35.98,0
38,37.68,36.00,0
40,37.73,36.04,0
39,37.75,36.07,0
40,37.80,36.11,0
42,37.88,36.17,0
42,37.96,36.23,0
40,38.00,36.26,0
39,38.02,36.29,0
40,38.06,36.33,0
40,38.10,36.36,0
40,38.14,36.40,0
39,38.16,36.43,0
40,38.19,36.46,0
41,38.25,36.51,0
40,38.29,36.54,0
39,38.30,36.57,0
41,38.35,36.61,0
40,38.39,36.65,0
40,38.42,36.68,0
41,38.47,36.72,0
40,38.50,36.76,0
40,38.53,36.79,0
40,38.56,36.82,0
41,38.61,36.86,0
42,38.68,36.91,0
40,38.70,36.94,0
40,38.73,36.97,0
41,38.77,37.01,0
41,38.82,37.05,0
40,38.84,37.08,0
40,38.87,37.11,0
40,38.89,37.14,0
41,38.93,37.18,0
42,38.99,37.23,0
43,39.07,37.29,0
45,39.19,37.36,0
41,39.23,37.40,0
40,39.24,37.43,0
42,39.30,37.47,0
44,39.39,37.54,0
40,39.40,37.56,0
40,39.42,37.59,0
42,39.47,37.63,0
43,39.54,37.68,0
41,39.57,37.72,0
40,39.58,37.74,0
42,39.62,37.78,0
41,39.65,37.81,0
41,39.68,37.85,0
41,39.71,37.88,0
40,39.71,37.90,0
40,39.72,37.92,0
42,39.76,37.96,0
42,39.81,38.00,0
42,39.85,38.04,0
43,39.91,38.09,0
42,39.96,38.13,0
42,40.00,38.17,0
40,40.00,38.19,0
41,40.02,38.22,0
40,40.02,38.23,0
42,40.06,38.27,0
42,40.10,38.31,0
41,40.11,38.34,0
40,40.11,38.35,0
40,40.11,38.37,0
44,40.19,38.42,0
41,40.20,38.45,0
42,40.24,38.49,0
42,40.27,38.52,0
42,40.31,38.56,0
41,40.32,38.58,0
42,40.36,38.61,0
42,40.39,38.65,0
42,40.42,38.68,0
43,40.47,38.72,0
42,40.50,38.76,0
42,40.53,38.79,0
42,40.56,38.82,0
41,40.57,38.84,0
42,40.60,38.88,0
42,40.63,38.91,0
42,40.66,38.94,0
41,40.66,38.96,0
42,40.69,38.99,0
42,40.72,39.02,0
42,40.74,39.05,0
42,40.77,39.08,0
42,40.79,39.11,0
44,40.85,39.16,0
43,40.90,39.19,0
42,40.92,39.22,0
42,40.94,39.25,0
42,40.96,39.28,0
42,40.98,39.31,0
43,41.02,39.34,0
45,41.10,39.40,0
42,41.12,39.42,0
45,41.20,39.48,0
44,41.25,39.53,0
43,41.29,39.56,0
44,41.34,39.60,0
43,41.38,39.64,0
42,41.39,39.66,0
44,41.44,39.71,0
44,41.49,39.75,0
44,41.54,39.79,0
46,41.63,39.85,0
44,41.68,39.89,0
44,41.73,39.94,0
43,41.75,39.97,0
43,41.78,40.00,0
45,41.84,40.05,0
44,41.88,40.09,0
44,41.93,40.13,0
46,42.01,40.18,0
44,42.05,40.22,0
44,42.09,40.26,0
44,42.13,40.30,0
44,42.16,40.33,0
47,42.26,40.40,0
47,42.35,40.47,0
45,42.41,40.51,0
44,42.44,40.55,0
44,42.47,40.58,0
44,42.50,40.62,0
46,42.57,40.67,0
45,42.62,40.71,0
44,42.65,40.75,0
44,42.67,40.78,0
46,42.74,40.83,0
47,42.83,40.89,0
44,42.85,40.92,0
44,42.87,40.95,0
44,42.89,40.98,0
45,42.94,41.03,0
47,43.02,41.08,0
46,43.08,41.13,0
46,43.14,41.18,0
47,43.21,41.24,0
46,43.27,41.29,0
44,43.28,41.32,0
46,43.34,41.36,0
46,43.39,41.41,0
47,43.46,41.46,0
46,43.51,41.51,0
48,43.60,41.57,0
51,43.75,41.67,0
48,43.84,41.73,0
46,43.88,41.78,0
46,43.92,41.82,0
47,43.98,41.87,0
46,44.02,41.91,0
48,44.10,41.97,0
46,44.14,42.01,0
49,44.24,42.08,0
50,44.35,42.16,0
50,44.47,42.24,0
48,44.54,42.30,0
49,44.63,42.36,0
50,44.73,42.44,0
50,44.84,42.52,0
50,44.94,42.59,0
49,45.02,42.65,0
50,45.12,42.73,0
50,45.22,42.80,0
50,45.32,42.87,0
50,45.41,42.94,0
49,45.48,43.00,0
48,45.53,43.05,0
47,45.56,43.09,0
50,45.65,43.16,0
52,45.78,43.25,0
50,45.86,43.32,0
50,45.94,43.39,0
50,46.03,43.45,0
50,46.11,43.52,0
48,46.14,43.56,0
47,46.16,43.60,0
50,46.24,43.66,0
52,46.35,43.74,0
52,46.47,43.83,0
50,46.54,43.89,0
51,46.63,43.96,0
52,46.73,44.04,0
52,46.84,44.12,0
52,46.94,44.20,0
53,47.06,44.29,0
50,47.12,44.34,0
50,47.18,44.40,0
50,47.24,44.46,0
50,47.29,44.51,0
50,47.34,44.57,0
53,47.46,44.65,0
53,47.57,44.73,0
52,47.66,44.81,0
51,47.72,44.87,0
52,47.81,44.94,0
52,47.89,45.01,0
52,47.98,45.08,0
52,48.06,45.15,0
50,48.10,45.20,0
51,48.15,45.26,0
52,48.23,45.32,0
50,48.27,45.37,0
50,48.30,45.42,0
52,48.37,45.48,0
52,48.45,45.55,0
52,48.52,45.61,0
52,48.59,45.68,0
57,48.76,45.79,0
52,48.82,45.85,0
52,48.88,45.91,0
54,48.99,45.99,0
52,49.05,46.05,0
52,49.11,46.11,0
53,49.18,46.18,0
54,49.28,46.26,0
54,49.37,46.34,0
54,49.47,46.41,0
53,49.54,46.48,0
53,49.61,46.55,0
54,49.69,46.62,0
54,49.78,46.69,0
54,49.87,46.77,0
52,49.91,46.82,0
52,49.95,46.87,0
55,50.05,46.95,0
54,50.13,47.02,0
53,50.19,47.08,0
53,50.24,47.14,0
54,50.32,47.21,0
57,50.45,47.31,0
56,50.56,47.40,0
56,50.67,47.48,0
56,50.78,47.57,0
54,50.84,47.63,0
54,50.91,47.69,0
55,50.99,47.77,0
54,51.05,47.83,0
54,51.11,47.89,0
55,51.19,47.96,0
58,51.32,48.06,0
57,51.43,48.15,0
56,51.53,48.23,0
58,51.66,48.33,0
58,51.78,48.43,0
57,51.89,48.51,0
56,51.97,48.59,0
56,52.05,48.66,0
56,52.13,48.73,0
57,52.23,48.82,0
56,52.30,48.89,0
56,52.38,48.96,0
56,52.45,49.03,0
59,52.58,49.13,0
59,52.71,49.23,0
58,52.81,49.32,0
58,52.92,49.40,0
59,53.04,49.50,0
57,53.12,49.57,0
60,53.26,49.68,0
56,53.31,49.74,0
58,53.40,49.82,0
58,53.50,49.91,0
58,53.59,49.99,0
59,53.69,50.08,0
60,53.82,50.18,0
61,53.96,50.28,0
58,54.05,50.36,0
60,54.16,50.46,0
58,54.24,50.53,0
59,54.34,50.62,0
58,54.41,50.69,0
58,54.48,50.76,0
58,54.55,50.84,0
58,54.62,50.91,0
58,54.69,50.98,0
62,54.83,51.09,0
55,54.84,51.13,0
58,54.90,51.20,0
58,54.96,51.27,0
57,55.00,51.32,0
59,55.08,51.40,0
58,55.14,51.47,0
58,55.20,51.53,0
58,55.26,51.60,0
58,55.31,51.66,0
58,55.36,51.72,0
60,55.46,51.81,0
58,55.51,51.87,0
58,55.56,51.93,0
58,55.61,51.99,0
58,55.65,52.05,0
57,55.68,52.10,0
60,55.77,52.18,0
58,55.81,52.24,0
62,55.94,52.33,0
61,56.04,52.42,0
58,56.08,52.48,0
63,56.21,52.58,0
74,56.57,52.80,0
67,56.78,52.94,0
64,56.92,53.05,0
65,57.08,53.17,0
64,57.22,53.28,0
66,57.40,53.40,0
67,57.59,53.54,0
68,57.80,53.68,0
64,57.92,53.79,0
64,58.04,53.89,0
68,58.24,54.03,0
65,58.38,54.14,0
64,58.49,54.24,0
66,58.64,54.36,0
64,58.75,54.45,0
66,58.89,54.57,0
65,59.02,54.67,0
66,59.16,54.79,0
68,59.33,54.92,0
68,59.51,55.05,0
66,59.64,55.16,0
66,59.76,55.27,0
68,59.93,55.39,0
68,60.09,55.52,0
68,60.25,55.65,0
68,60.40,55.77,0
68,60.55,55.89,0
68,60.70,56.01,0
66,60.81,56.11,0
72,61.03,56.27,0
71,61.23,56.42,0
66,61.33,56.51,0
66,61.42,56.61,0
66,61.51,56.70,0
68,61.64,56.82,0
67,61.75,56.92,0
66,61.83,57.01,0
66,61.92,57.10,0
67,62.02,57.20,0
66,62.10,57.29,0
70,62.26,57.41,0
68,62.37,57.52,0
68,62.48,57.62,0
66,62.55,57.71,0
68,62.66,57.81,0
67,62.75,57.90,0
68,62.86,58.00,0
67,62.94,58.09,0
66,63.00,58.17,0
66,63.06,58.25,0
72,63.24,58.39,0
74,63.45,58.54,0
75,63.68,58.71,0
72,63.85,58.84,0
69,63.95,58.94,0
68,64.03,59.03,0
68,64.11,59.12,0
72,64.27,59.25,0
74,64.47,59.40,0
72,64.62,59.53,0
72,64.76,59.65,0
72,64.91,59.77,0
75,65.11,59.93,0
72,65.25,60.05,0
75,65.44,60.20,0
74,65.62,60.33,0
76,65.82,60.49,0
72,65.95,60.61,0
76,66.15,60.76,0
76,66.34,60.91,0
73,66.48,61.03,0
72,66.59,61.14,0
72,66.70,61.25,0
76,66.88,61.40,0
74,67.02,61.52,0
74,67.16,61.65,0
74,67.30,61.77,0
72,67.39,61.88,0
73,67.51,61.99,0
74,67.64,62.11,0
74,67.76,62.23,0
72,67.85,62.32,0
73,67.95,62.43,0
74,68.07,62.55,0
78,68.27,62.70,0
74,68.39,62.81,0
75,68.52,62.94,0
74,68.63,63.05,0
74,68.74,63.16,0
76,68.88,63.28,0
73,68.96,63.38,0
74,69.06,63.49,0
76,69.20,63.61,0
75,69.32,63.73,0
78,69.49,63.87,0
78,69.66,64.01,0
74,69.75,64.11,0
76,69.87,64.23,0
76,70.00,64.35,0
76,70.12,64.46,0
76,70.23,64.58,0
76,70.35,64.69,0
76,70.46,64.81,0
80,70.65,64.96,0
84,70.92,65.15,0
84,71.18,65.34,0
81,71.38,65.49,0
81,71.57,65.65,0
80,71.74,65.79,0
87,72.04,66.00,0
91,72.42,66.25,0
92,72.82,66.51,0
92,73.20,66.77,0
85,73.43,66.95,0
92,73.81,67.20,0
94,74.21,67.47,0
89,74.51,67.68,0
89,74.80,67.90,0
90,75.10,68.12,0
85,75.30,68.29,0
88,75.55,68.48,0
86,75.76,68.66,0
89,76.03,68.86,0
86,76.23,69.03,0
87,76.44,69.21,0
90,76.71,69.42,0
93,77.04,69.66,0
92,77.34,69.88,0
92,77.63,70.10,0
94,77.96,70.34,0
89,78.18,70.53,0
88,78.37,70.70,0
94,78.69,70.93,0
95,79.01,71.17,0
97,79.37,71.43,0
92,79.63,71.64,0
94,79.91,71.86,0
93,80.18,72.07,0
92,80.41,72.27,0
91,80.62,72.46,0
92,80.85,72.66,0
95,81.13,72.88,0
93,81.37,73.08,0
94,81.62,73.29,0
92,81.83,73.48,0
90,81.99,73.64,0
93,82.21,73.84,0
97,82.51,74.07,0
92,82.70,74.25,0
88,82.81,74.38,0
95,83.05,74.59,0
99,83.37,74.83,0
106,83.82,75.15,0
107,84.29,75.46,0
99,84.58,75.70,0
98,84.85,75.92,0
101,85.17,76.17,0
97,85.41,76.38,0
97,85.64,76.59,0
99,85.91,76.81,0
98,86.15,77.02,0
97,86.37,77.22,0
103,86.70,77.48,0
100,86.96,77.71,0
99,87.21,77.92,0
101,87.48,78.15,0
99,87.71,78.36,0
104,88.04,78.62,0
102,88.32,78.85,0
107,88.69,79.13,0
100,88.92,79.34,0
103,89.20,79.58,0
103,89.47,79.81,0
105,89.78,80.06,0
103,90.05,80.29,0
103,90.31,80.52,0
101,90.52,80.72,0
100,90.71,80.92,0
101,90.92,81.12,0
105,91.20,81.36,0
102,91.41,81.56,0
108,91.75,81.83,0
108,92.07,82.09,0
106,92.35,82.33,0
104,92.58,82.54,0
106,92.85,82.78,0
111,93.21,83.06,0
111,93.57,83.34,0
108,93.86,83.59,0
105,94.08,83.80,0
108,94.36,84.04,0
108,94.63,84.28,0
105,94.84,84.49,0
116,95.26,84.80,0
115,95.66,85.11,0
111,95.96,85.37,0
115,96.35,85.66,0
120,96.82,86.01,0
117,97.22,86.32,0
111,97.50,86.56,0
115,97.85,86.85,0
121,98.31,87.19,0
116,98.66,87.48,0
113,98.95,87.73,0
119,99.35,88.04,0
119,99.75,88.35,0
122,100.19,88.69,0
117,100.53,88.97,0
114,100.80,89.22,0
118,101.14,89.51,0
127,101.66,89.89,0
126,102.14,90.25,0
122,102.54,90.57,0
122,102.93,90.88,0
125,103.37,91.22,0
127,103.84,91.58,0
123,104.23,91.89,0
130,104.74,92.27,0
130,105.25,92.65,0
130,105.74,93.02,0
138,106.39,93.47,0
134,106.94,93.88,0
139,107.58,94.33,0
130,108.03,94.69,0
145,108.77,95.19,0
148,109.55,95.72,0
142,110.20,96.18,0
136,110.72,96.58,0
146,111.42,97.07,0
152,112.24,97.62,0
141,112.81,98.06,0
144,113.44,98.52,0
153,114.23,99.06,0
149,114.92,99.56,0
142,115.46,99.98,0
146,116.07,100.45,0
146,116.67,100.90,0
146,117.26,101.35,0
150,117.91,101.84,0
145,118.46,102.27,0
145,118.99,102.70,0
146,119.53,103.13,0
149,120.12,103.59,0
147,120.65,104.02,0
156,121.36,104.54,0
158,122.09,105.08,0
150,122.65,105.53,0
149,123.18,105.96,0
154,123.80,106.44,0
153,124.38,106.91,0
148,124.85,107.32,0
157,125.49,107.81,0
157,126.12,108.31,0
151,126.62,108.73,0
154,127.17,109.19,0
159,127.81,109.68,0
155,128.35,110.14,0
157,128.92,110.61,0
161,129.56,111.11,0
159,130.15,111.59,0
155,130.65,112.02,0
162,131.28,112.52,0
171,132.07,113.11,0
169,132.81,113.67,0
159,133.33,114.12,0
160,133.87,114.58,0
164,134.47,115.07,0
161,135.00,115.53,0
161,135.52,115.99,0
164,136.09,116.47,0
164,136.65,116.94,0
160,137.12,117.37,0
160,137.57,117.80,0
159,138.00,118.21,0
165,138.54,118.68,0
177,139.31,119.26,0
169,139.90,119.76,0
165,140.41,120.21,0
165,140.90,120.66,0
170,141.48,121.15,0
169,142.03,121.63,0
165,142.49,122.07,0
163,142.90,122.47,0
165,143.34,122.90,0
163,143.74,123.30,0
164,144.14,123.71,0
163,144.52,124.10,0
163,144.89,124.49,0
165,145.29,124.90,0
165,145.68,125.30,0
165,146.07,125.69,0
164,146.43,126.08,0
163,146.76,126.45,0
165,147.13,126.83,0
167,147.52,127.23,0
165,147.87,127.61,0
163,148.18,127.96,0
163,148.47,128.31,0
163,148.76,128.66,0
164,149.07,129.01,0
161,149.31,129.33,0
162,149.56,129.66,0
161,149.79,129.97,0
161,150.01,130.29,0
161,150.23,130.59,0
160,150.43,130.89,0
161,150.64,131.19,0
161,150.85,131.49,0
161,151.05,131.78,0
161,151.25,132.07,0
164,151.50,132.39,0
161,151.69,132.68,0
161,151.88,132.96,0
159,152.02,133.22,0
160,152.18,133.49,0
159,152.32,133.74,0
159,152.45,134.00,0
158,152.56,134.24,0
161,152.73,134.50,0
159,152.86,134.75,0
158,152.96,134.98,0
157,153.04,135.20,0
157,153.12,135.42,0
158,153.22,135.65,0
158,153.31,135.87,0
157,153.39,136.08,0
157,153.46,136.29,0
157,153.53,136.50,0
157,153.60,136.70,0
157,153.67,136.91,0
156,153.71,137.10,0
157,153.78,137.30,0
157,153.84,137.49,0
156,153.89,137.68,0
156,153.93,137.86,0
156,153.97,138.04,0
155,153.99,138.21,0
155,154.01,138.38,0
155,154.03,138.55,0
154,154.03,138.70,0
154,154.03,138.85,0
154,154.03,139.00,0
153,154.01,139.14,0
153,153.99,139.28,0
153,153.97,139.42,0
154,153.97,139.57,0
153,153.95,139.70,0
152,153.91,139.82,0
152,153.87,139.95,0
152,153.84,140.07,0
153,153.82,140.20,0
151,153.76,140.30,0
151,153.71,140.41,0
152,153.67,140.53,0
151,153.62,140.63,0
151,153.57,140.73,0
150,153.50,140.83,0
151,153.45,140.93,0
149,153.36,141.01,0
150,153.29,141.10,0
149,153.20,141.18,0
149,153.12,141.26,0
149,153.04,141.33,0
149,152.96,141.41,0
149,152.88,141.49,0
149,152.80,141.56,0
149,152.72,141.64,0
150,152.67,141.72,0
149,152.60,141.79,0
149,152.52,141.87,0
147,152.41,141.92,0
147,152.31,141.97,0
147,152.20,142.02,0
148,152.12,142.08,0
147,152.01,142.13,0
146,151.89,142.17,0
147,151.79,142.21,0
146,151.68,142.25,0
147,151.59,142.30,0
145,151.45,142.33,0
145,151.32,142.35,0
145,151.20,142.38,0
145,151.07,142.41,0
145,150.95,142.43,0
145,150.83,142.46,0
143,150.68,142.46,0
143,150.52,142.47,0
143,150.37,142.47,0
143,150.23,142.48,0
143,150.08,142.48,0
143,149.94,142.49,0
143,149.80,142.49,0
142,149.64,142.49,0
143,149.51,142.49,0
142,149.36,142.49,0
141,149.19,142.47,0
141,149.03,142.46,0
141,148.87,142.44,0
141,148.71,142.43,0
142,148.58,142.43,0
141,148.43,142.41,0
140,148.26,142.39,0
141,148.11,142.37,0
139,147.93,142.34,0
141,147.79,142.33,0
139,147.62,142.29,0
139,147.44,142.26,0
138,147.26,142.22,0
139,147.09,142.19,0
138,146.91,142.14,0
137,146.71,142.09,0
138,146.54,142.05,0
137,146.35,142.00,0
137,146.16,141.95,0
137,145.98,141.90,0
137,145.80,141.85,0
137,145.62,141.80,0
136,145.43,141.75,0
137,145.26,141.70,0
137,145.09,141.65,0
136,144.91,141.59,0
136,144.73,141.54,0
135,144.54,141.47,0
135,144.35,141.41,0
135,144.16,141.34,0
135,143.98,141.28,0
134,143.78,141.21,0
134,143.58,141.14,0
133,143.37,141.06,0
134,143.18,140.98,0
133,142.98,140.90,0
134,142.80,140.84,0
133,142.60,140.76,0
133,142.41,140.68,0
133,142.22,140.60,0
133,142.04,140.53,0
133,141.86,140.45,0
132,141.66,140.37,0
132,141.47,140.28,0
131,141.26,140.19,0
132,141.07,140.11,0
132,140.89,140.03,0
132,140.71,139.95,0
131,140.52,139.86,0
131,140.33,139.77,0
130,140.12,139.67,0
130,139.92,139.57,0
129,139.70,139.47,0
130,139.51,139.37,0
129,139.30,139.27,1
129,139.09,139.17,1
129,138.89,139.07,1
129,138.69,138.97,1
128,138.48,138.86,1
128,138.27,138.75,1
128,138.06,138.64,1
128,137.86,138.53,1
127,137.65,138.42,1
128,137.45,138.31,1
131,137.32,138.24,1
128,137.14,138.14,1
128,136.95,138.04,1
127,136.75,137.93,1
127,136.56,137.82,1
127,136.37,137.71,1
127,136.18,137.60,1
125,135.96,137.48,1
125,135.74,137.35,1
125,135.52,137.23,1
125,135.31,137.11,1
125,135.11,136.98,1
125,134.90,136.86,1
125,134.71,136.75,1
125,134.51,136.63,1
125,134.32,136.51,1
125,134.14,136.40,1
124,133.93,136.27,1
124,133.73,136.15,1
124,133.54,136.03,1
123,133.33,135.90,1
125,133.16,135.79,1
124,132.98,135.67,1
123,132.78,135.55,1
121,132.54,135.40,1
123,132.35,135.28,1
124,132.19,135.16,1
123,132.00,135.04,1
122,131.80,134.91,1
122,131.61,134.78,1
121,131.39,134.64,1
121,131.19,134.51,1
121,130.98,134.37,1
121,130.78,134.24,1
121,130.59,134.11,1
122,130.42,133.99,1
122,130.25,133.87,1
122,130.08,133.75,1
121,129.90,133.62,1
121,129.72,133.49,1
121,129.55,133.37,1
121,129.38,133.24,1
122,129.23,133.13,1
120,129.05,133.00,1
119,128.84,132.86,1
119,128.65,132.72,1
119,128.45,132.59,1
119,128.27,132.45,1
119,128.08,132.31,1
119,127.90,132.18,1
118,127.70,132.04,1
118,127.51,131.90,1
118,127.32,131.76,1
121,127.19,131.65,1
121,127.07,131.55,1
119,126.90,131.42,1
117,126.71,131.28,1
119,126.55,131.15,1
119,126.40,131.03,1
122,126.31,130.94,1
121,126.21,130.84,1
119,126.06,130.72,1
117,125.88,130.59,1
119,125.74,130.47,1
119,125.61,130.36,1
119,125.48,130.24,1
118,125.33,130.12,1
117,125.16,129.99,1
117,125.00,129.86,1
118,124.86,129.74,1
119,124.74,129.63,1
117,124.59,129.51,1
117,124.43,129.38,1
117,124.29,129.26,1
115,124.10,129.12,1
117,123.96,128.99,1
117,123.82,128.87,1
117,123.68,128.76,1
116,123.53,128.63,1
116,123.38,128.50,1
115,123.21,128.37,1
117,123.09,128.25,1
116,122.94,128.13,1
117,122.83,128.02,1
115,122.67,127.89,1
115,122.52,127.76,1
115,122.37,127.63,1
117,122.26,127.53,1
115,122.11,127.40,1
115,121.97,127.28,1
115,121.83,127.15,1
117,121.73,127.05,1
115,121.60,126.93,1
115,121.47,126.81,1
116,121.36,126.70,1
115,121.23,126.59,1
115,121.11,126.47,1
113,120.94,126.34,1
111,120.75,126.18,1
113,120.59,126.05,1
113,120.44,125.92,1
113,120.29,125.79,1
113,120.14,125.66,1
112,119.98,125.53,1
113,119.84,125.40,1
113,119.71,125.28,1
112,119.55,125.15,1
112,119.40,125.01,1
113,119.27,124.89,1
112,119.13,124.76,1
109,118.92,124.61,1
111,118.77,124.47,1
112,118.63,124.35,1
111,118.48,124.21,1
111,118.33,124.08,1
111,118.18,123.95,1
111,118.04,123.82,1
111,117.90,123.69,1
111,117.76,123.57,1
113,117.66,123.46,1
111,117.53,123.34,1
110,117.38,123.20,1
111,117.25,123.08,1
113,117.17,122.98,1
113,117.08,122.88,1
112,116.98,122.77,1
111,116.86,122.65,1
110,116.73,122.53,1
111,116.61,122.41,1
111,116.50,122.30,1
110,116.37,122.17,1
111,116.26,122.06,1
111,116.16,121.95,1
110,116.03,121.83,1
109,115.89,121.70,1
111,115.79,121.60,1
109,115.66,121.47,1
109,115.53,121.35,1
110,115.42,121.23,1
109,115.29,121.11,1
109,115.16,120.99,1
109,115.04,120.87,1
110,114.94,120.76,1
109,114.82,120.64,1
108,114.68,120.52,1
109,114.57,120.40,1
108,114.44,120.28,1
109,114.33,120.16,1
107,114.18,120.03,1
111,114.12,119.94,1
107,113.98,119.81,1
108,113.86,119.70,1
107,113.72,119.57,1
108,113.60,119.45,1
106,113.45,119.32,1
107,113.32,119.19,1
107,113.20,119.07,1
108,113.09,118.96,1
106,112.95,118.83,1
108,112.85,118.72,1
105,112.70,118.59,1
107,112.58,118.47,1
106,112.45,118.35,1
105,112.30,118.21,1
105,112.15,118.08,1
105,112.01,117.95,1
105,111.87,117.82,1
106,111.75,117.70,1
105,111.62,117.58,1
105,111.49,117.45,1
105,111.36,117.32,1
105,111.23,117.20,1
105,111.11,117.08,1
107,111.02,116.98,1
106,110.92,116.87,1
105,110.80,116.75,1
105,110.69,116.63,1
105,110.57,116.52,1
107,110.50,116.42,1
108,110.45,116.34,1
105,110.34,116.22,1
105,110.24,116.11,1
104,110.11,115.99,1
105,110.01,115.88,1
105,109.91,115.77,1
105,109.81,115.66,1
104,109.70,115.55,1
105,109.60,115.44,1
104,109.49,115.33,1
105,109.40,115.22,1
104,109.29,115.11,1
105,109.21,115.01,1
101,109.04,114.87,1
104,108.94,114.76,1
104,108.84,114.65,1
105,108.77,114.56,1
103,108.65,114.44,1
104,108.56,114.34,1
103,108.45,114.22,1
103,108.34,114.11,1
101,108.19,113.98,1
103,108.09,113.87,1
102,107.96,113.75,1
102,107.85,113.64,1
100,107.69,113.50,1
101,107.55,113.37,1
103,107.46,113.27,1
101,107.33,113.15,1
101,107.21,113.03,1
102,107.10,112.92,1
102,107.00,112.81,1
101,106.88,112.69,1
102,106.78,112.58,1
101,106.67,112.47,1
101,106.55,112.35,1
101,106.44,112.24,1
101,106.33,112.13,1
101,106.23,112.01,1
100,106.10,111.89,1
102,106.02,111.79,1
99,105.88,111.67,1
99,105.74,111.54,1
101,105.65,111.43,1
101,105.56,111.33,1
99,105.42,111.21,1
99,105.30,111.09,1
99,105.17,110.96,1
99,105.05,110.84,1
98,104.91,110.72,1
98,104.77,110.59,1
99,104.65,110.47,1
99,104.54,110.36,1
104,104.53,110.29,1
99,104.42,110.18,1
99,104.31,110.07,1
99,104.20,109.96,1
100,104.12,109.86,1
98,104.00,109.74,1
98,103.88,109.62,1
98,103.76,109.51,1
97,103.62,109.38,1
98,103.51,109.27,1
96,103.36,109.14,1
96,103.21,109.00,1
96,103.07,108.87,1
96,102.93,108.75,1
96,102.79,108.62,1
96,102.65,108.49,1
96,102.52,108.37,1
97,102.41,108.25,1
96,102.28,108.13,1
98,102.20,108.03,1
98,102.11,107.93,1
95,101.97,107.80,1
96,101.85,107.68,1
95,101.71,107.56,1
96,101.60,107.44,1
95,101.47,107.32,1
94,101.32,107.18,1
94,101.17,107.05,1
96,101.07,106.94,1
95,100.95,106.82,1
93,100.79,106.68,1
95,100.67,106.57,1
96,100.58,106.46,1
94,100.45,106.34,1
94,100.32,106.21,1
94,100.19,106.09,1
94,100.07,105.97,1
94,99.95,105.85,1
95,99.85,105.74,1
94,99.73,105.62,1
93,99.60,105.50,1
92,99.44,105.36,1
93,99.32,105.24,1
93,99.19,105.12,1
94,99.09,105.00,1
93,98.96,104.88,1
93,98.84,104.77,1
93,98.73,104.65,1
93,98.61,104.53,1
93,98.50,104.42,1
93,98.39,104.30,1
93,98.28,104.19,1
93,98.18,104.08,1
93,98.07,103.97,1
93,97.97,103.86,1
92,97.85,103.74,1
92,97.74,103.62,1
91,97.60,103.49,1
92,97.49,103.38,1
92,97.38,103.27,1
91,97.25,103.14,1
92,97.15,103.03,1
93,97.06,102.93,1
91,96.94,102.81,1
95,96.90,102.73,1
90,96.77,102.61,1
91,96.65,102.49,1
92,96.56,102.39,1
90,96.43,102.26,1
91,96.32,102.15,1
91,96.21,102.04,1
90,96.09,101.92,1
89,95.95,101.79,1
90,95.83,101.67,1
90,95.71,101.55,1
89,95.58,101.43,1
89,95.44,101.30,1
91,95.36,101.20,1
89,95.23,101.08,1
87,95.06,100.94,1
89,94.94,100.82,1
89,94.82,100.70,1
89,94.71,100.58,1
89,94.59,100.47,1
89,94.48,100.35,1
89,94.37,100.24,1
89,94.26,100.13,1
88,94.14,100.01,1
89,94.04,99.90,1
88,93.92,99.78,1
88,93.80,99.66,1
88,93.68,99.54,1
88,93.57,99.43,1
87,93.44,99.30,1
86,93.29,99.17,1
89,93.20,99.07,1
87,93.08,98.95,1
87,92.96,98.83,1
87,92.84,98.71,1
88,92.74,98.60,1
87,92.63,98.49,1
87,92.51,98.37,1
86,92.38,98.25,1
86,92.25,98.13,1
87,92.15,98.01,1
86,92.03,97.89,1
90,91.99,97.82,1
86,91.87,97.70,1
86,91.75,97.58,1
86,91.63,97.46,1
86,91.52,97.35,1
85,91.39,97.23,1
85,91.26,97.10,1
85,91.14,96.98,1
84,91.00,96.85,1
86,90.90,96.74,1
86,90.80,96.64,1
85,90.68,96.52,1
85,90.57,96.41,1
84,90.44,96.28,1
84,90.31,96.16,1
86,90.22,96.06,1
84,90.10,95.94,1
84,89.98,95.82,1
83,89.84,95.69,1
84,89.72,95.57,1
84,89.60,95.46,1
82,89.45,95.32,1
84,89.34,95.21,1
84,89.24,95.10,1
84,89.13,94.99,1
84,89.03,94.88,1
83,88.91,94.76,1
83,88.79,94.64,1
84,88.69,94.53,1
84,88.60,94.43,1
82,88.47,94.30,1
85,88.40,94.21,1
84,88.31,94.11,1
82,88.19,93.99,1
80,88.02,93.85,1
81,87.88,93.72,1
82,87.76,93.60,1
82,87.65,93.49,1
82,87.54,93.37,1
83,87.44,93.27,1
81,87.32,93.14,1
82,87.21,93.03,1
82,87.11,92.92,1
81,86.98,92.80,1
82,86.88,92.70,1
82,86.79,92.59,1
80,86.65,92.46,1
81,86.54,92.35,1
84,86.49,92.26,1
82,86.40,92.16,1
82,86.31,92.06,1
80,86.18,91.94,1
82,86.10,91.84,1
80,85.98,91.72,1
80,85.86,91.60,1
81,85.76,91.50,1
80,85.64,91.38,1
80,85.53,91.27,1
79,85.40,91.15,1
80,85.29,91.04,1
80,85.19,90.93,1
79,85.06,90.81,1
80,84.96,90.70,1
81,84.88,90.60,1
80,84.79,90.49,1
78,84.65,90.37,1
79,84.54,90.26,1
80,84.45,90.15,1
80,84.36,90.05,1
78,84.23,89.93,1
78,84.11,89.81,1
80,84.02,89.71,1
79,83.92,89.61,1
78,83.80,89.49,1
78,83.69,89.38,1
78,83.57,89.26,1
78,83.46,89.15,1
80,83.39,89.06,1
78,83.29,88.95,1
78,83.18,88.84,1
78,83.08,88.73,1
78,82.98,88.62,1
78,82.88,88.52,1
78,82.78,88.41,1
78,82.68,88.31,1
78,82.59,88.20,1
78,82.50,88.10,1
78,82.41,88.00,1
78,82.32,87.90,1
76,82.19,87.78,1
78,82.11,87.68,1
77,82.01,87.58,1
76,81.89,87.46,1
78,81.81,87.37,1
77,81.71,87.26,1
76,81.60,87.15,1
79,81.55,87.07,1
76,81.44,86.96,1
77,81.35,86.86,1
76,81.24,86.75,1
76,81.13,86.64,1
76,81.03,86.54,1
76,80.93,86.43,1
76,80.83,86.33,1
76,80.74,86.22,1
76,80.64,86.12,1
76,80.55,86.02,1
76,80.46,85.92,1
75,80.35,85.81,1
76,80.26,85.71,1
76,80.18,85.62,1
75,80.07,85.51,1
75,79.97,85.40,1
76,79.89,85.31,1
75,79.79,85.21,1
75,79.70,85.10,1
73,79.56,84.98,1
75,79.47,84.88,1
75,79.38,84.78,1
76,79.32,84.70,1
74,79.21,84.59,1
75,79.13,84.49,1
74,79.02,84.39,1
74,78.92,84.29,1
74,78.82,84.18,1
76,78.77,84.10,1
74,78.67,84.00,1
74,78.58,83.90,1
74,78.49,83.80,1
74,78.40,83.70,1
74,78.31,83.61,1
75,78.24,83.52,1
76,78.20,83.44,1
76,78.15,83.37,1
73,78.05,83.27,1
73,77.95,83.16,1
74,77.87,83.07,1
72,77.75,82.96,1
74,77.68,82.87,1
73,77.59,82.77,1
72,77.47,82.67,1
71,77.34,82.55,1
72,77.24,82.44,1
73,77.15,82.35,1
72,77.05,82.25,1
72,76.95,82.14,1
74,76.89,82.06,1
73,76.81,81.97,1
73,76.74,81.88,1
72,76.64,81.78,1
72,76.55,81.68,1
72,76.46,81.59,1
72,76.37,81.49,1
72,76.28,81.40,1
72,76.19,81.30,1
72,76.11,81.21,1
71,76.01,81.11,1
72,75.93,81.02,1
72,75.85,80.93,1
73,75.79,80.85,1
72,75.72,80.76,1
70,75.60,80.65,1
72,75.53,80.56,1
73,75.48,80.49,1
73,75.43,80.41,1
70,75.32,80.31,1
71,75.24,80.22,1
72,75.17,80.13,1
70,75.07,80.03,1
70,74.97,79.93,1
72,74.91,79.85,1
72,74.85,79.78,1
71,74.77,79.69,1
70,74.68,79.59,1
71,74.60,79.50,1
70,74.51,79.41,1
71,74.44,79.33,1
72,74.39,79.25,1
72,74.34,79.18,1
70,74.26,79.09,1
70,74.17,79.00,1
72,74.13,78.93,1
72,74.09,78.86,1
71,74.02,78.78,1
70,73.94,78.69,1
70,73.86,78.60,1
72,73.83,78.54,1
70,73.75,78.45,1
70,73.68,78.37,1
70,73.60,78.28,1
71,73.55,78.21,1
70,73.48,78.13,1
72,73.45,78.07,1
71,73.40,78.00,1
73,73.39,77.95,1
72,73.36,77.89,1
72,73.34,77.83,1
73,73.33,77.78,1
72,73.30,77.72,1
70,73.24,77.65,1
71,73.19,77.58,1
72,73.17,77.52,1
72,73.15,77.47,1
71,73.10,77.40,1
74,73.12,77.37,1
70,73.06,77.30,1
71,73.02,77.23,1
72,73.00,77.18,1
70,72.94,77.11,1
70,72.88,77.04,1
71,72.84,76.98,1
71,72.80,76.92,1
71,72.77,76.86,1
70,72.71,76.79,1
71,72.68,76.73,1
71,72.64,76.67,1
70,72.59,76.61,1
71,72.56,76.55,1
70,72.51,76.49,1
69,72.44,76.41,1
73,72.45,76.38,1
70,72.40,76.31,1
69,72.33,76.24,1
69,72.27,76.17,1
70,72.22,76.11,1
69,72.16,76.04,1
70,72.11,75.98,1
69,72.05,75.91,1
70,72.01,75.85,1
71,71.99,75.80,1
71,71.97,75.75,1
71,71.95,75.70,1
71,71.93,75.66,1
70,71.89,75.60,1
70,71.86,75.54,1
71,71.84,75.50,1
72,71.84,75.46,1
71,71.82,75.42,1
70,71.79,75.36,1
69,71.73,75.30,1
70,71.70,75.25,1
70,71.66,75.19,1
70,71.63,75.14,1
71,71.62,75.10,1
69,71.57,75.04,1
70,71.53,74.99,1
70,71.50,74.94,1
73,71.53,74.92,1
74,71.58,74.91,1
74,71.63,74.90,1
70,71.60,74.85,1
71,71.59,74.81,1
71,71.57,74.78,1
70,71.54,74.73,1
70,71.51,74.68,1
72,71.52,74.65,1
71,71.51,74.62,1
70,71.48,74.57,1
72,71.49,74.55,1
73,71.52,74.53,1
72,71.53,74.51,1
70,71.50,74.46,1
71,71.49,74.43,1
72,71.50,74.40,1
67,71.41,74.33,1
70,71.38,74.28,1
72,71.40,74.26,1
72,71.41,74.24,1
71,71.40,74.21,1
70,71.37,74.16,1
71,71.36,74.13,1
71,71.36,74.10,1
70,71.33,74.06,1
70,71.30,74.02,1
72,71.32,74.00,1
73,71.35,73.99,1
72,71.36,73.97,1
72,71.38,73.95,1
72,71.39,73.93,1
72,71.40,73.91,1
72,71.41,73.89,1
74,71.46,73.89,1
70,71.44,73.85,1
71,71.43,73.83,1
70,71.40,73.79,1
72,71.41,73.77,1
72,71.42,73.75,1
71,71.41,73.72,1
72,71.43,73.71,1
74,71.48,73.71,1
73,71.51,73.70,1
72,71.52,73.69,1
70,71.49,73.65,1
73,71.52,73.64,1
72,71.53,73.63,1
72,71.54,73.61,1
74,71.59,73.61,1
72,71.59,73.60,1
73,71.62,73.59,1
73,71.65,73.59,1
73,71.68,73.58,1
72,71.68,73.56,1
72,71.69,73.55,1
72,71.70,73.53,1
74,71.74,73.54,1
74,71.79,73.54,1
73,71.81,73.54,1
72,71.81,73.52,1
72,71.82,73.51,1
74,71.86,73.51,1
73,71.88,73.51,1
73,71.91,73.50,1
72,71.91,73.49,1
72,71.91,73.47,1
72,71.91,73.46,1
72,71.91,73.44,1
72,71.92,73.43,1
72,71.92,73.41,1
71,71.90,73.39,1
71,71.88,73.37,1
72,71.88,73.35,1
70,71.85,73.32,1
72,71.85,73.30,1
72,71.85,73.29,1
71,71.84,73.27,1
72,71.84,73.26,1
70,71.80,73.22,1
71,71.79,73.20,1
71,71.77,73.18,1
71,71.75,73.16,1
70,71.72,73.13,1
72,71.73,73.11,1
72,71.73,73.10,1
70,71.70,73.07,1
71,71.68,73.05,1
73,71.71,73.05,1
71,71.69,73.03,1
72,71.70,73.02,1
70,71.67,72.99,1
70,71.63,72.96,1
72,71.64,72.95,1
70,71.61,72.92,1
72,71.62,72.91,1
72,71.62,72.90,1
71,71.61,72.88,1
71,71.60,72.87,1
70,71.57,72.84,1
70,71.54,72.81,1
70,71.50,72.78,1
70,71.47,72.75,1
70,71.44,72.72,1
69,71.40,72.69,1
70,71.37,72.66,1
70,71.34,72.63,1
70,71.31,72.61,1
72,71.33,72.60,1
70,71.30,72.58,1
70,71.28,72.55,1
70,71.25,72.52,1
70,71.22,72.50,1
70,71.20,72.47,1
70,71.18,72.45,1
70,71.15,72.42,1
73,71.19,72.43,1
70,71.17,72.41,1
70,71.14,72.38,1
70,71.12,72.36,1
72,71.14,72.35,1
70,71.11,72.33,1
70,71.09,72.31,1
70,71.07,72.28,1
70,71.05,72.26,1
70,71.03,72.24,1
70,71.01,72.22,1
70,70.99,72.19,1
70,70.97,72.17,1
70,70.95,72.15,1
70,70.93,72.13,1
68,70.87,72.09,1
67,70.79,72.04,1
70,70.78,72.02,1
70,70.76,72.00,1
69,70.73,71.97,1
70,70.71,71.95,1
70,70.70,71.93,1
68,70.64,71.89,1
68,70.59,71.85,1
70,70.58,71.83,1
70,70.57,71.81,1
69,70.54,71.78,1
68,70.49,71.75,1
70,70.48,71.73,1
68,70.43,71.69,1
70,70.42,71.68,1
69,70.39,71.65,1
70,70.38,71.63,1
70,70.37,71.62,1
70,70.37,71.60,1
70,70.36,71.58,1
70,70.35,71.57,1
70,70.34,71.55,1
68,70.30,71.52,1
69,70.27,71.49,1
68,70.23,71.46,1
68,70.18,71.42,1
68,70.14,71.39,1
69,70.12,71.36,1
70,70.11,71.35,1
73,70.17,71.37,1
69,70.15,71.34,1
69,70.12,71.32,1
71,70.14,71.32,1
69,70.12,71.29,1
70,70.12,71.28,1
68,70.07,71.25,1
70,70.07,71.23,1
69,70.05,71.21,1
69,70.03,71.19,1
70,70.03,71.18,1
70,70.03,71.17,1
69,70.01,71.14,1
69,69.99,71.12,1
68,69.95,71.09,1
70,69.95,71.08,1
69,69.93,71.06,1
69,69.91,71.04,1
68,69.87,71.01,1
69,69.86,70.99,1
69,69.84,70.97,1
68,69.80,70.94,1
68,69.77,70.91,1
69,69.75,70.89,1
69,69.74,70.87,1
70,69.74,70.86,1
68,69.71,70.84,1
69,69.69,70.82,1
68,69.66,70.79,1
68,69.63,70.76,1
70,69.63,70.75,1
69,69.62,70.74,1
68,69.59,70.71,1
70,69.60,70.70,1
68,69.56,70.67,1
69,69.55,70.66,1
68,69.52,70.63,1
68,69.49,70.60,1
68,69.46,70.58,1
69,69.45,70.56,1
70,69.46,70.56,1
68,69.43,70.53,1
68,69.41,70.51,1
69,69.40,70.49,1
70,69.41,70.49,1
67,69.36,70.45,1
68,69.33,70.43,1
68,69.31,70.40,1
68,69.28,70.38,1
66,69.22,70.33,1
68,69.19,70.31,1
68,69.17,70.29,1
68,69.14,70.27,1
66,69.08,70.22,1
69,69.08,70.21,1
68,69.06,70.19,1
67,69.02,70.16,1
68,69.00,70.13,1
69,69.00,70.12,1
68,68.98,70.10,1
67,68.94,70.07,1
68,68.92,70.05,1
68,68.90,70.03,1
68,68.88,70.01,1
67,68.84,69.98,1
66,68.79,69.94,1
68,68.77,69.92,1
67,68.74,69.89,1
65,68.66,69.84,1
68,68.65,69.82,1
70,68.68,69.83,1
67,68.64,69.80,1
66,68.59,69.76,1
68,68.58,69.74,1
68,68.57,69.72,1
67,68.53,69.70,1
68,68.52,69.68,1
70,68.55,69.68,1
68,68.54,69.67,1
67,68.51,69.64,1
66,68.46,69.60,1
66,68.41,69.57,1
67,68.38,69.54,1
67,68.36,69.52,1
66,68.31,69.48,1
68,68.30,69.47,1
64,68.22,69.41,1
66,68.17,69.38,1
66,68.13,69.34,1
67,68.11,69.32,1
65,68.04,69.28,1
66,68.00,69.24,1
66,67.96,69.21,1
68,67.96,69.20,1
66,67.92,69.17,1
66,67.89,69.14,1
68,67.89,69.12,1
66,67.85,69.09,1
68,67.85,69.08,1
69,67.88,69.08,1
68,67.88,69.07,1
67,67.86,69.05,1
68,67.86,69.04,1
68,67.87,69.03,1
68,67.87,69.02,1
66,67.83,68.99,1
66,67.80,68.96,1
66,67.76,68.93,1
66,67.72,68.90,1
66,67.69,68.87,1
66,67.66,68.84,1
66,67.62,68.81,1
68,67.63,68.81,1
66,67.60,68.78,1
66,67.57,68.75,1
66,67.53,68.72,1
66,67.50,68.70,1
67,67.49,68.68,1
67,67.48,68.66,1
68,67.49,68.66,1
68,67.50,68.65,1
68,67.51,68.64,1
66,67.48,68.62,1
68,67.49,68.61,1
65,67.44,68.57,1
66,67.42,68.55,1
66,67.39,68.52,1
68,67.40,68.52,1
65,67.35,68.48,1
66,67.32,68.46,1
67,67.32,68.44,1
66,67.29,68.42,1
66,67.27,68.39,1
72,67.36,68.43,1
68,67.37,68.43,1
69,67.41,68.43,1
68,67.42,68.43,1
66,67.39,68.40,1
66,67.36,68.38,1
68,67.37,68.37,1
66,67.35,68.35,1
67,67.34,68.34,1
66,67.31,68.31,1
67,67.31,68.30,1
67,67.30,68.29,1
68,67.31,68.29,1
68,67.33,68.28,1
68,67.34,68.28,1
68,67.36,68.28,1
66,67.33,68.25,1
66,67.30,68.23,1
67,67.30,68.22,1
68,67.31,68.22,1
66,67.28,68.19,1
68,67.30,68.19,1
66,67.27,68.17,1
66,67.25,68.15,1
66,67.22,68.13,1
70,67.28,68.15,1
66,67.25,68.13,1
70,67.31,68.14,1
68,67.32,68.14,1
70,67.37,68.16,1
70,67.43,68.18,1
68,67.44,68.18,1
66,67.41,68.16,1
72,67.50,68.19,1
72,67.59,68.23,1
70,67.64,68.25,1
68,67.65,68.25,1
70,67.69,68.26,1
70,67.74,68.28,1
68,67.74,68.28,1
70,67.79,68.30,1
70,67.83,68.31,1
70,67.88,68.33,1
72,67.96,68.37,1
70,68.00,68.38,1
70,68.04,68.40,1
70,68.08,68.42,1
68,68.08,68.41,1
70,68.12,68.43,1
70,68.15,68.44,1
72,68.23,68.48,1
72,68.31,68.51,1
76,68.46,68.59,1
70,68.49,68.60,1
71,68.54,68.63,1
72,68.61,68.66,1
71,68.66,68.68,1
71,68.71,68.71,1
71,68.75,68.73,1
70,68.78,68.74,1
70,68.80,68.76,1
72,68.86,68.79,1
73,68.95,68.83,1
71,68.99,68.85,1
70,69.01,68.86,1
70,69.03,68.87,1
70,69.05,68.89,1
73,69.13,68.93,1
71,69.16,68.95,1
73,69.24,68.99,1
74,69.34,69.04,1
72,69.39,69.07,1
73,69.46,69.11,1
74,69.55,69.16,1
75,69.66,69.21,1
79,69.85,69.31,1
76,69.97,69.38,1
74,70.05,69.43,1
77,70.19,69.50,1
81,70.41,69.62,1
77,70.54,69.69,1
75,70.63,69.74,1
74,70.70,69.79,1
76,70.80,69.85,1
76,70.91,69.91,1
79,71.07,70.00,1
79,71.23,70.09,1
77,71.34,70.16,1
80,71.51,70.26,1
78,71.64,70.34,1
77,71.75,70.40,1
79,71.90,70.49,1
79,72.04,70.57,1
78,72.16,70.65,1
78,72.27,70.72,1
78,72.39,70.79,1
83,72.60,70.92,1
86,72.87,71.07,1
84,73.09,71.20,1
81,73.25,71.29,1
78,73.35,71.36,1
78,73.44,71.43,1
81,73.59,71.52,1
82,73.76,71.63,1
78,73.84,71.69,1
82,74.01,71.79,1
81,74.15,71.89,1
84,74.34,72.01,1
86,74.58,72.15,1
83,74.74,72.26,1
81,74.87,72.34,1
81,74.99,72.43,1
82,75.13,72.53,1
82,75.27,72.62,1
81,75.38,72.70,1
87,75.62,72.85,1
84,75.78,72.96,1
82,75.91,73.05,1
83,76.05,73.15,1
82,76.17,73.24,1
82,76.29,73.33,1
84,76.44,73.43,1
83,76.57,73.53,1
86,76.76,73.65,1
82,76.86,73.74,1
84,77.01,73.84,1
84,77.15,73.94,1
82,77.24,74.02,1
84,77.38,74.12,1
88,77.59,74.26,1
89,77.82,74.41,1
86,77.98,74.52,1
88,78.18,74.66,1
87,78.36,74.78,1
88,78.55,74.91,1
85,78.68,75.01,1
84,78.79,75.10,1
88,78.97,75.23,1
85,79.09,75.33,1
86,79.23,75.44,1
88,79.41,75.56,1
86,79.54,75.67,1
86,79.67,75.77,1
84,79.75,75.85,1
84,79.84,75.93,1
86,79.96,76.03,1
86,80.08,76.13,1
84,80.16,76.21,1
86,80.28,76.31,1
88,80.43,76.43,1
87,80.56,76.53,1
90,80.75,76.67,1
89,80.92,76.79,1
87,81.04,76.89,1
87,81.16,76.99,1
86,81.26,77.08,1
88,81.39,77.19,1
89,81.54,77.31,1
86,81.63,77.40,1
91,81.82,77.53,1
88,81.94,77.64,1
88,82.06,77.74,1
90,82.22,77.87,1
88,82.34,77.97,1
92,82.53,78.11,1
91,82.70,78.24,1
88,82.81,78.33,1
90,82.95,78.45,1
92,83.13,78.59,1
96,83.39,78.76,1
94,83.60,78.91,1
89,83.71,79.01,1
96,83.96,79.18,1
98,84.24,79.37,1
100,84.55,79.58,1
97,84.80,79.75,1
94,84.98,79.89,1
94,85.16,80.04,1
94,85.34,80.18,1
95,85.53,80.32,1
98,85.78,80.50,1
97,86.01,80.67,1
96,86.21,80.82,1
95,86.38,80.96,1
98,86.62,81.13,1
93,86.74,81.25,1
94,86.89,81.38,1
95,87.05,81.51,1
96,87.23,81.66,1
96,87.41,81.80,1
95,87.56,81.93,1
95,87.71,82.06,1
99,87.93,82.23,1
98,88.13,82.39,1
97,88.31,82.54,1
104,88.62,82.75,1
100,88.85,82.92,1
96,89.00,83.06,1
100,89.22,83.22,1
99,89.41,83.38,1
97,89.56,83.52,1
100,89.77,83.68,1
98,89.94,83.83,1
102,90.18,84.01,1
103,90.43,84.20,1
102,90.67,84.38,1
99,90.83,84.52,1
98,90.98,84.66,1
106,91.28,84.87,1
108,91.61,85.10,1
105,91.88,85.30,1
100,92.04,85.45,1
109,92.38,85.68,1
117,92.87,86.00,1
114,93.29,86.28,1
108,93.59,86.49,1
109,93.90,86.72,1
115,94.32,87.00,1
109,94.61,87.22,1
109,94.90,87.44,1
109,95.18,87.66,1
107,95.42,87.85,1
107,95.65,88.04,1
109,95.92,88.25,1
111,96.22,88.48,1
108,96.45,88.67,1
108,96.69,88.87,1
113,97.01,89.11,1
116,97.39,89.38,1
118,97.80,89.66,1
114,98.13,89.91,1
111,98.39,90.12,1
110,98.62,90.32,1
114,98.93,90.55,1
120,99.35,90.85,1
115,99.66,91.09,1
113,99.93,91.31,1
116,100.25,91.55,1
115,100.54,91.79,1
121,100.95,92.08,1
125,101.43,92.41,1
123,101.86,92.72,1
123,102.29,93.02,1
125,102.74,93.34,1
128,103.25,93.69,1
120,103.58,93.95,1
122,103.95,94.23,1
125,104.37,94.54,1
124,104.76,94.83,1
121,105.09,95.09,1
119,105.37,95.33,1
124,105.74,95.62,1
120,106.02,95.86,1
127,106.44,96.17,1
130,106.92,96.51,1
139,107.56,96.94,1
136,108.13,97.33,1
128,108.52,97.63,1
134,109.03,98.00,1
144,109.73,98.46,1
146,110.46,98.93,1
141,111.07,99.35,1
138,111.61,99.74,1
133,112.03,100.07,1
135,112.49,100.42,1
138,113.00,100.80,1
142,113.58,101.21,1
138,114.07,101.58,1
135,114.49,101.91,1
135,114.90,102.24,1
135,115.30,102.57,1
135,115.70,102.90,1
134,116.06,103.21,1
137,116.48,103.54,1
133,116.81,103.84,1
131,117.10,104.11,1
137,117.49,104.44,1
139,117.92,104.78,1
140,118.37,105.14,1
137,118.74,105.46,1
141,119.18,105.81,1
136,119.52,106.11,1
136,119.85,106.41,1
137,120.19,106.72,1
136,120.51,107.01,1
139,120.88,107.33,1
135,121.16,107.61,1
139,121.52,107.92,1
135,121.79,108.19,1
144,122.23,108.55,1
143,122.65,108.89,1
139,122.97,109.20,1
137,123.25,109.47,1
137,123.53,109.75,1
141,123.88,110.06,1
139,124.18,110.35,1
137,124.44,110.62,1
137,124.69,110.88,1
137,124.94,111.14,1
137,125.18,111.40,1
136,125.39,111.65,1
139,125.67,111.92,1
138,125.91,112.18,1
136,126.11,112.42,1
139,126.37,112.69,1
136,126.56,112.92,1
137,126.77,113.16,1
136,126.96,113.39,1
137,127.16,113.62,1
135,127.31,113.84,1
137,127.51,114.07,1
136,127.68,114.29,1
135,127.82,114.50,1
135,127.97,114.70,1
136,128.13,114.91,1
133,128.23,115.09,1
134,128.34,115.28,1
135,128.47,115.48,1
133,128.57,115.66,1
135,128.69,115.85,1
134,128.80,116.03,1
135,128.92,116.22,1
137,129.09,116.43,1
136,129.22,116.62,1
134,129.32,116.80,1
136,129.45,116.99,1
137,129.60,117.19,1
134,129.69,117.36,1
135,129.80,117.53,1
135,129.90,117.71,1
133,129.96,117.86,1
133,130.02,118.01,1
133,130.08,118.16,1
133,130.14,118.31,1
133,130.20,118.46,1
132,130.24,118.59,1
133,130.29,118.74,1
132,130.33,118.87,1
133,130.38,119.01,1
133,130.43,119.15,1
133,130.48,119.29,1
132,130.51,119.42,1
132,130.54,119.54,1
133,130.59,119.68,1
132,130.62,119.80,1
131,130.63,119.91,1
132,130.66,120.03,1
131,130.66,120.14,1
131,130.67,120.25,1
129,130.64,120.34,1
131,130.64,120.45,1
132,130.67,120.56,1
131,130.68,120.67,1
133,130.72,120.79,1
131,130.73,120.89,1
130,130.71,120.98,1
129,130.68,121.06,1
129,130.65,121.14,1
130,130.63,121.23,1
129,130.60,121.31,1
129,130.57,121.39,1
130,130.56,121.47,1
128,130.51,121.54,1
128,130.46,121.60,1
129,130.43,121.68,1
128,130.38,121.74,1
127,130.31,121.79,1
128,130.26,121.85,1
128,130.22,121.91,1
127,130.15,121.97,1
127,130.09,122.02,1
127,130.03,122.07,1
127,129.97,122.12,1
126,129.89,122.15,1
127,129.83,122.20,1
127,129.78,122.25,1
126,129.70,122.29,1
126,129.63,122.33,1
127,129.57,122.37,1
127,129.52,122.42,1
127,129.47,122.46,1
125,129.38,122.49,1
126,129.31,122.52,1
125,129.23,122.55,1
126,129.16,122.58,1
125,129.08,122.61,1
125,129.00,122.63,1
125,128.92,122.66,1
125,128.84,122.68,1
125,128.76,122.70,1
124,128.67,122.72,1
124,128.57,122.73,1
124,128.48,122.74,1
125,128.41,122.76,1
124,128.33,122.78,1
125,128.26,122.80,1
124,128.17,122.81,1
124,128.09,122.82,1
124,128.01,122.83,1
123,127.91,122.84,1
125,127.85,122.86,1
124,127.77,122.87,1
123,127.68,122.87,1
123,127.58,122.87,1
123,127.49,122.87,1
123,127.40,122.87,1
121,127.27,122.85,1
122,127.17,122.85,1
125,127.13,122.87,1
121,127.00,122.85,1
121,126.88,122.83,1
121,126.77,122.81,1
121,126.65,122.79,1
121,126.54,122.78,1
121,126.43,122.76,1
121,126.32,122.74,1
120,126.19,122.71,1
121,126.09,122.70,1
125,126.07,122.72,1
121,125.96,122.70,1
121,125.87,122.69,1
121,125.77,122.67,1
120,125.65,122.64,1
121,125.56,122.63,1
120,125.45,122.60,1
120,125.34,122.57,1
119,125.21,122.54,1
121,125.13,122.52,1
119,125.01,122.49,1
119,124.89,122.45,1
117,124.73,122.40,1
119,124.61,122.36,1
118,124.48,122.32,1
119,124.37,122.29,1
119,124.26,122.25,1
117,124.12,122.20,1
119,124.02,122.17,1
117,123.88,122.12,1
118,123.76,122.08,1
117,123.62,122.03,1
117,123.49,121.98,1
117,123.36,121.93,1
119,123.27,121.90,1
117,123.15,121.85,1
117,123.03,121.80,1
117,122.90,121.75,1
116,122.77,121.69,1
116,122.63,121.64,1
116,122.50,121.58,1
115,122.35,121.51,1
115,122.20,121.45,1
116,122.08,121.39,1
115,121.94,121.33,1
115,121.80,121.27,1
115,121.66,121.20,1
115,121.53,121.14,1
114,121.38,121.07,1
113,121.21,120.99,1
113,121.05,120.91,1
115,120.93,120.85,1
113,120.77,120.77,1
113,120.61,120.70,1
113,120.46,120.62,1
111,120.27,120.52,1
113,120.12,120.45,1
113,119.98,120.37,1
113,119.84,120.30,1
112,119.69,120.22,1
113,119.55,120.14,1
111,119.38,120.05,1
112,119.23,119.97,1
111,119.07,119.88,1
111,118.91,119.79,1
111,118.75,119.71,1
111,118.59,119.62,1
111,118.44,119.53,1
111,118.29,119.45,1
111,118.15,119.36,1
110,117.98,119.27,1
111,117.84,119.19,1
111,117.71,119.10,1
109,117.53,119.00,1
111,117.40,118.92,1
109,117.24,118.82,1
109,117.07,118.73,1
109,116.91,118.63,1
109,116.75,118.53,1
109,116.60,118.44,1
108,116.42,118.33,1
110,116.30,118.25,1
109,116.15,118.16,1
109,116.01,118.06,1
107,115.83,117.95,1
109,115.69,117.86,1
108,115.54,117.77,1
107,115.37,117.66,1
107,115.20,117.55,1
108,115.05,117.46,1
107,114.89,117.35,1
107,114.74,117.25,1
107,114.58,117.15,1
106,114.41,117.03,1
109,114.30,116.95,1
106,114.13,116.84,1
107,113.99,116.75,1
105,113.81,116.63,1
105,113.64,116.51,1
105,113.46,116.40,1
105,113.29,116.28,1
106,113.15,116.18,1
105,112.99,116.07,1
105,112.83,115.96,1
107,112.71,115.87,1
105,112.55,115.76,1
105,112.40,115.65,1
104,112.24,115.54,1
104,112.07,115.42,1
105,111.93,115.32,1
104,111.77,115.20,1
105,111.64,115.10,1
104,111.48,114.99,1
104,111.33,114.88,1
103,111.17,114.76,1
103,111.00,114.64,1
103,110.84,114.53,1
103,110.69,114.41,1
103,110.53,114.30,1
103,110.38,114.18,1
102,110.21,114.06,1
103,110.07,113.95,1
102,109.91,113.83,1
101,109.73,113.70,1
101,109.56,113.58,1
101,109.38,113.45,1
102,109.24,113.34,1
101,109.07,113.21,1
101,108.91,113.09,1
101,108.75,112.97,1
99,108.56,112.83,1
100,108.39,112.70,1
99,108.20,112.57,1
99,108.01,112.43,1
101,107.87,112.32,1
100,107.72,112.19,1
99,107.54,112.06,1
99,107.37,111.93,1
99,107.20,111.80,1
98,107.02,111.66,1
99,106.86,111.54,1
98,106.68,111.40,1
99,106.53,111.28,1
100,106.40,111.16,1
99,106.25,111.04,1
99,106.11,110.92,1
99,105.96,110.80,1
98,105.80,110.67,1
98,105.65,110.55,1
98,105.49,110.42,1
99,105.37,110.31,1
97,105.20,110.17,1
98,105.05,110.05,1
98,104.91,109.93,1
98,104.77,109.81,1
97,104.62,109.69,1
97,104.47,109.56,1
96,104.30,109.42,1
97,104.15,109.30,1
98,104.03,109.19,1
96,103.87,109.05,1
96,103.71,108.92,1
95,103.54,108.78,1
100,103.47,108.70,1
96,103.32,108.57,1
96,103.17,108.44,1
97,103.05,108.33,1
95,102.89,108.20,1
96,102.75,108.07,1
97,102.63,107.96,1
96,102.50,107.84,1
97,102.39,107.73,1
96,102.26,107.62,1
95,102.12,107.49,1
95,101.97,107.37,1
94,101.82,107.23,1
96,101.70,107.12,1
95,101.57,107.00,1
95,101.43,106.88,1
95,101.31,106.76,1
94,101.16,106.63,1
96,101.06,106.53,1
94,100.91,106.40,1
94,100.78,106.28,1
94,100.64,106.15,1
94,100.51,106.03,1
94,100.38,105.91,1
94,100.25,105.79,1
94,100.13,105.68,1
93,99.98,105.55,1
91,99.80,105.40,1
94,99.69,105.29,1
93,99.55,105.17,1
93,99.42,105.04,1
93,99.29,104.92,1
93,99.17,104.81,1
93,99.04,104.69,1
91,98.88,104.55,1
93,98.77,104.43,1
93,98.65,104.32,1
93,98.54,104.21,1
93,98.43,104.10,1
92,98.30,103.97,1
93,98.19,103.86,1
93,98.09,103.76,1
92,97.97,103.64,1
92,97.85,103.52,1
92,97.73,103.41,1
91,97.60,103.28,1
92,97.48,103.17,1
93,97.39,103.07,1
92,97.29,102.96,1
92,97.18,102.85,1
93,97.10,102.75,1
92,97.00,102.64,1
89,96.84,102.51,1
88,96.66,102.36,1
90,96.53,102.24,1
91,96.41,102.12,1
90,96.29,102.00,1
91,96.18,101.89,1
91,96.08,101.78,1
90,95.96,101.67,1
90,95.84,101.55,1
89,95.70,101.42,1
91,95.61,101.32,1
89,95.47,101.20,1
90,95.36,101.08,1
91,95.28,100.98,1
89,95.15,100.86,1
90,95.05,100.76,1
89,94.93,100.64,1
89,94.81,100.52,1
89,94.69,100.41,1
89,94.58,100.29,1
89,94.47,100.18,1
89,94.36,100.07,1
88,94.23,99.95,1
89,94.13,99.84,1
89,94.02,99.73,1
88,93.90,99.61,1
88,93.79,99.50,1
89,93.69,99.39,1
87,93.56,99.27,1
86,93.40,99.13,1
87,93.28,99.01,1
90,93.21,98.92,1
89,93.13,98.82,1
88,93.02,98.72,1
89,92.94,98.62,1
88,92.84,98.51,1
87,92.73,98.40,1
86,92.59,98.27,1
88,92.50,98.17,1
88,92.41,98.07,1
88,92.32,97.97,1
86,92.20,97.85,1
88,92.11,97.75,1
89,92.05,97.66,1
88,91.97,97.57,1
86,91.85,97.45,1
87,91.75,97.35,1
87,91.66,97.24,1
88,91.58,97.15,1
86,91.47,97.04,1
86,91.36,96.93,1
87,91.28,96.83,1
86,91.17,96.72,1
86,91.07,96.61,1
87,90.99,96.52,1
87,90.91,96.42,1
84,90.77,96.30,1
86,90.67,96.19,1
87,90.60,96.10,1
86,90.51,96.00,1
86,90.42,95.90,1
85,90.31,95.79,1
85,90.20,95.68,1
86,90.12,95.59,1
86,90.04,95.49,1
84,89.92,95.38,1
85,89.82,95.27,1
85,89.72,95.17,1
84,89.61,95.06,1
84,89.49,94.95,1
83,89.36,94.83,1
84,89.26,94.72,1
84,89.15,94.61,1
84,89.05,94.51,1
84,88.95,94.40,1
83,88.83,94.29,1
86,88.77,94.20,1
84,88.68,94.10,1
84,88.58,94.00,1
84,88.49,93.90,1
86,88.44,93.82,1
84,88.35,93.72,1
85,88.29,93.64,1
86,88.24,93.56,1
84,88.16,93.47,1
84,88.07,93.37,1
84,87.99,93.28,1
82,87.87,93.16,1
84,87.79,93.07,1
84,87.72,92.98,1
84,87.64,92.89,1
84,87.57,92.80,1
87,87.56,92.74,1
84,87.49,92.66,1
83,87.40,92.56,1
83,87.31,92.47,1
84,87.24,92.38,1
84,87.18,92.30,1
84,87.12,92.21,1
84,87.05,92.13,1
82,86.95,92.03,1
82,86.85,91.93,1
82,86.76,91.83,1
82,86.66,91.73,1
82,86.57,91.64,1
82,86.48,91.54,1
82,86.39,91.44,1
82,86.30,91.35,1
82,86.21,91.26,1
82,86.13,91.16,1
82,86.05,91.07,1
83,85.99,90.99,1
82,85.91,90.90,1
82,85.83,90.81,1
82,85.75,90.72,1
84,85.72,90.66,1
81,85.62,90.56,1
81,85.53,90.46,1
81,85.44,90.37,1
82,85.37,90.29,1
82,85.30,90.20,1
81,85.22,90.11,1
81,85.13,90.02,1
81,85.05,89.93,1
80,84.95,89.83,1
80,84.85,89.73,1
81,84.77,89.64,1
81,84.70,89.56,1
80,84.60,89.46,1
80,84.51,89.37,1
80,84.42,89.27,1
80,84.33,89.18,1
79,84.23,89.08,1
80,84.14,88.99,1
80,84.06,88.90,1
80,83.98,88.81,1
79,83.88,88.71,1
78,83.76,88.60,1
80,83.69,88.52,1
82,83.65,88.45,1
80,83.58,88.37,1
79,83.49,88.28,1
80,83.42,88.19,1
79,83.33,88.10,1
78,83.22,88.00,1
78,83.12,87.90,1
79,83.04,87.81,1
80,82.97,87.73,1
78,82.88,87.64,1
78,82.78,87.54,1
79,82.70,87.45,1
78,82.61,87.36,1
78,82.52,87.27,1
79,82.45,87.18,1
79,82.38,87.10,1
78,82.29,87.01,1
78,82.20,86.92,1
78,82.12,86.83,1
80,82.08,86.76,1
80,82.04,86.69,1
78,81.95,86.61,1
78,81.88,86.52,1
79,81.82,86.45,1
79,81.76,86.37,1
78,81.69,86.29,1
79,81.63,86.22,1
78,81.56,86.13,1
78,81.49,86.05,1
78,81.42,85.97,1
78,81.35,85.89,1
77,81.26,85.80,1
79,81.22,85.73,1
78,81.15,85.66,1
78,81.09,85.58,1
77,81.01,85.50,1
76,80.91,85.40,1
78,80.85,85.33,1
78,80.79,85.25,1
77,80.72,85.17,1
76,80.62,85.08,1
76,80.53,84.99,1
76,80.44,84.90,1
77,80.37,84.82,1
78,80.32,84.75,1
77,80.26,84.67,1
78,80.21,84.61,1
77,80.15,84.53,1
76,80.07,84.45,1
77,80.00,84.37,1
76,79.92,84.29,1
77,79.87,84.21,1
76,79.79,84.13,1
76,79.71,84.05,1
76,79.64,83.97,1
77,79.59,83.90,1
79,79.57,83.85,1
76,79.50,83.77,1
76,79.43,83.70,1
75,79.34,83.61,1
76,79.28,83.53,1
76,79.21,83.46,1
75,79.13,83.37,1
74,79.02,83.28,1
77,78.98,83.22,1
75,78.90,83.13,1
74,78.81,83.04,1
77,78.77,82.98,1
77,78.73,82.92,1
76,78.68,82.85,1
76,78.63,82.78,1
76,78.57,82.72,1
77,78.54,82.66,1
76,78.49,82.59,1
76,78.44,82.53,1
76,78.39,82.46,1
76,78.34,82.40,1
76,78.30,82.33,1
75,78.23,82.26,1
74,78.15,82.18,1
76,78.10,82.12,1
76,78.06,82.05,1
75,78.00,81.98,1
76,77.96,81.92,1
74,77.88,81.84,1
74,77.80,81.77,1
74,77.73,81.69,1
74,77.65,81.61,1
76,77.62,81.56,1
74,77.55,81.48,1
74,77.48,81.41,1
74,77.41,81.33,1
74,77.34,81.26,1
74,77.27,81.19,1
74,77.21,81.11,1
74,77.14,81.04,1
73,77.06,80.96,1
74,77.00,80.89,1
74,76.94,80.82,1
74,76.88,80.75,1
73,76.80,80.68,1
73,76.73,80.60,1
74,76.67,80.53,1
73,76.60,80.46,1
73,76.53,80.38,1
72,76.44,80.30,1
72,76.35,80.22,1
73,76.28,80.15,1
73,76.21,80.07,1
72,76.13,79.99,1
72,76.05,79.91,1
73,75.99,79.84,1
72,75.91,79.77,1
72,75.83,79.69,1
72,75.75,79.61,1
73,75.70,79.55,1
72,75.62,79.47,1
72,75.55,79.40,1
72,75.48,79.32,1
71,75.39,79.24,1
71,75.30,79.16,1
72,75.24,79.08,1
73,75.19,79.02,1
71,75.11,78.94,1
71,75.03,78.86,1
70,74.93,78.77,1
71,74.85,78.70,1
71,74.77,78.62,1
71,74.69,78.54,1
70,74.60,78.46,1
70,74.51,78.37,1
74,74.50,78.33,1
70,74.41,78.25,1
70,74.32,78.16,1
70,74.23,78.08,1
69,74.13,77.99,1
70,74.05,77.91,1
70,73.97,77.83,1
70,73.89,77.75,1
70,73.81,77.68,1
70,73.73,77.60,1
70,73.66,77.52,1
70,73.58,77.45,1
69,73.49,77.36,1
70,73.42,77.29,1
69,73.33,77.21,1
70,73.27,77.14,1
68,73.16,77.04,1
70,73.10,76.97,1
69,73.02,76.89,1
69,72.94,76.82,1
70,72.88,76.75,1
69,72.80,76.67,1
70,72.74,76.60,1
70,72.69,76.54,1
70,72.64,76.47,1
72,72.62,76.43,1
70,72.57,76.36,1
70,72.52,76.30,1
69,72.45,76.23,1
69,72.38,76.15,1
70,72.33,76.09,1
68,72.25,76.01,1
68,72.16,75.93,1
71,72.14,75.88,1
68,72.05,75.80,1
68,71.97,75.73,1
70,71.93,75.67,1
69,71.88,75.60,1
69,71.82,75.54,1
68,71.74,75.46,1
70,71.71,75.41,1
69,71.65,75.34,1
69,71.60,75.28,1
70,71.57,75.22,1
68,71.50,75.15,1
68,71.43,75.08,1
68,71.36,75.01,1
68,71.29,74.94,1
67,71.21,74.86,1
69,71.16,74.80,1
68,71.10,74.73,1
67,71.02,74.66,1
66,70.92,74.57,1
68,70.86,74.50,1
69,70.82,74.45,1
67,70.74,74.38,1
69,70.71,74.32,1
68,70.65,74.26,1
67,70.58,74.19,1
68,70.53,74.12,1
68,70.48,74.06,1
68,70.43,74.00,1
68,70.38,73.94,1
66,70.29,73.86,1
68,70.25,73.80,1
68,70.20,73.75,1
67,70.14,73.68,1
68,70.10,73.62,1
67,70.03,73.56,1
66,69.95,73.48,1
66,69.87,73.40,1
66,69.80,73.33,1
66,69.72,73.26,1
66,69.65,73.19,1
66,69.57,73.11,1
66,69.50,73.04,1
68,69.47,72.99,1
66,69.40,72.92,1
68,69.37,72.87,1
66,69.31,72.80,1
67,69.26,72.75,1
66,69.20,72.68,1
66,69.13,72.61,1
68,69.11,72.57,1
68,69.09,72.52,1
67,69.05,72.46,1
67,69.00,72.41,1
66,68.94,72.35,1
67,68.91,72.29,1
66,68.85,72.23,1
66,68.79,72.17,1
66,68.73,72.11,1
66,68.68,72.04,1
66,68.63,71.98,1
66,68.57,71.92,1
65,68.50,71.85,1
66,68.45,71.80,1
65,68.38,71.73,1
64,68.30,71.65,1
66,68.25,71.59,1
66,68.20,71.54,1
65,68.14,71.47,1
66,68.10,71.42,1
66,68.06,71.36,1
65,67.99,71.30,1
64,67.91,71.23,1
65,67.86,71.17,1
64,67.78,71.09,1
65,67.72,71.03,1
64,67.65,70.96,1
65,67.60,70.90,1
66,67.56,70.85,1
65,67.51,70.80,1
64,67.44,70.73,1
66,67.41,70.68,1
68,67.43,70.65,1
65,67.38,70.60,1
64,67.31,70.53,1
64,67.24,70.47,1
64,67.18,70.40,1
64,67.11,70.34,1
66,67.09,70.29,1
64,67.03,70.23,1
68,67.05,70.21,1
64,66.99,70.15,1
68,67.01,70.12,1
65,66.97,70.07,1
64,66.91,70.01,1
64,66.85,69.95,1
65,66.81,69.90,1
64,66.76,69.84,1
64,66.70,69.79,1
63,66.63,69.72,1
64,66.58,69.66,1
64,66.52,69.60,1
63,66.45,69.54,1
63,66.39,69.47,1
64,66.34,69.42,1
64,66.29,69.36,1
64,66.25,69.31,1
65,66.22,69.27,1
61,66.12,69.18,1
63,66.05,69.12,1
64,66.01,69.07,1
63,65.95,69.01,1
61,65.85,68.93,1
62,65.78,68.86,1
62,65.70,68.79,1
63,65.65,68.73,1
61,65.55,68.66,1
62,65.48,68.59,1
62,65.41,68.52,1
61,65.32,68.45,1
62,65.26,68.38,1
62,65.19,68.32,1
62,65.13,68.26,1
61,65.05,68.19,1
63,65.01,68.13,1
64,64.99,68.09,1
62,64.93,68.03,1
62,64.87,67.97,1
62,64.81,67.91,1
62,64.75,67.85,1
62,64.70,67.79,1
63,64.66,67.75,1
64,64.65,67.71,1
61,64.58,67.64,1
62,64.53,67.58,1
62,64.48,67.53,1
62,64.43,67.47,1
62,64.38,67.42,1
62,64.33,67.36,1
61,64.26,67.30,1
62,64.22,67.25,1
62,64.17,67.20,1
62,64.13,67.14,1
62,64.09,67.09,1
62,64.05,67.04,1
62,64.01,66.99,1
60,63.93,66.92,1
61,63.87,66.86,1
61,63.81,66.80,1
61,63.75,66.75,1
60,63.68,66.68,1
61,63.62,66.62,1
61,63.57,66.56,1
60,63.50,66.50,1
62,63.47,66.45,1
61,63.42,66.40,1
63,63.41,66.37,1
60,63.34,66.30,1
61,63.30,66.25,1
61,63.25,66.20,1
60,63.19,66.13,1
60,63.12,66.07,1
62,63.10,66.03,1
61,63.06,65.98,1
60,63.00,65.92,1
60,62.94,65.86,1
60,62.88,65.80,1
60,62.82,65.75,1
59,62.74,65.68,1
60,62.69,65.62,1
60,62.64,65.57,1
60,62.58,65.51,1
58,62.49,65.43,1
60,62.44,65.38,1
60,62.39,65.33,1
61,62.37,65.28,1
62,62.36,65.25,1
60,62.31,65.20,1
60,62.26,65.15,1
59,62.20,65.08,1
60,62.16,65.03,1
60,62.11,64.98,1
61,62.09,64.94,1
60,62.05,64.89,1
60,62.01,64.85,1
60,61.97,64.80,1
60,61.93,64.75,1
59,61.87,64.69,1
60,61.83,64.64,1
60,61.80,64.60,1
60,61.76,64.55,1
60,61.72,64.51,1
60,61.69,64.46,1
62,61.70,64.44,1
60,61.66,64.39,1
61,61.65,64.36,1
62,61.66,64.34,1
64,61.70,64.33,1
60,61.67,64.29,1
61,61.66,64.26,1
59,61.60,64.20,1
60,61.57,64.16,1
60,61.54,64.12,1
59,61.49,64.07,1
61,61.48,64.04,1
62,61.49,64.02,1
60,61.46,63.98,1
59,61.41,63.93,1
61,61.40,63.90,1
61,61.39,63.87,1
60,61.37,63.83,1
60,61.34,63.79,1
60,61.31,63.75,1
59,61.27,63.71,1
60,61.24,63.67,1
60,61.22,63.63,1
60,61.19,63.60,1
61,61.19,63.57,1
62,61.20,63.55,1
61,61.20,63.53,1
61,61.20,63.50,1
62,61.21,63.49,1
62,61.23,63.47,1
62,61.24,63.46,1
64,61.30,63.46,1
62,61.31,63.45,1
60,61.29,63.42,1
61,61.28,63.39,1
63,61.31,63.39,1
63,61.35,63.38,1
62,61.36,63.37,1
62,61.37,63.36,1
62,61.39,63.34,1
62,61.40,63.33,1
60,61.37,63.30,1
60,61.34,63.26,1
62,61.36,63.25,1
60,61.33,63.22,1
62,61.34,63.21,1
61,61.34,63.18,1
63,61.37,63.18,1
66,61.46,63.21,1
64,61.51,63.22,1
62,61.52,63.21,1
62,61.53,63.19,1
64,61.58,63.20,1
64,61.63,63.21,1
66,61.72,63.24,1
66,61.80,63.26,1
66,61.89,63.29,1
64,61.93,63.30,1
63,61.95,63.30,1
65,62.01,63.31,1
66,62.09,63.34,1
64,62.13,63.35,1
64,62.17,63.35,1
64,62.20,63.36,1
63,62.22,63.36,1
64,62.25,63.36,1
64,62.29,63.37,1
64,62.32,63.38,1
64,62.36,63.38,1
64,62.39,63.39,1
65,62.44,63.40,1
64,62.47,63.41,1
64,62.50,63.42,1
64,62.53,63.42,1
63,62.54,63.42,1
63,62.55,63.41,1
64,62.58,63.42,1
62,62.57,63.40,1
63,62.58,63.40,1
64,62.61,63.41,1
66,62.67,63.43,1
64,62.70,63.44,1
64,62.73,63.44,1
63,62.73,63.44,1
62,62.72,63.43,1
62,62.70,63.41,1
63,62.71,63.41,1
64,62.74,63.41,1
64,62.76,63.42,1
62,62.75,63.40,1
64,62.77,63.41,1
62,62.76,63.40,1
64,62.78,63.40,1
62,62.76,63.39,1
62,62.75,63.37,1
62,62.73,63.36,1
63,62.74,63.36,1
62,62.72,63.34,1
62,62.71,63.33,1
64,62.74,63.34,1
62,62.72,63.32,1
64,62.75,63.33,1
63,62.75,63.33,1
62,62.74,63.31,1
64,62.76,63.32,1
62,62.75,63.31,1
63,62.75,63.30,1
63,62.76,63.30,1
64,62.78,63.31,1
64,62.81,63.32,1
65,62.85,63.33,1
62,62.83,63.32,1
63,62.84,63.32,1
62,62.82,63.30,1
62,62.80,63.29,1
63,62.81,63.29,1
62,62.79,63.27,1
63,62.80,63.27,1
62,62.78,63.26,1
64,62.80,63.27,1
65,62.85,63.28,1
66,62.91,63.31,1
65,62.95,63.33,1
64,62.97,63.33,1
64,62.99,63.34,1
64,63.01,63.35,1
65,63.05,63.36,1
68,63.15,63.41,1
66,63.21,63.44,1
64,63.23,63.44,1
63,63.22,63.44,1
64,63.24,63.44,1
64,63.25,63.45,1
65,63.29,63.46,1
65,63.32,63.48,1
63,63.31,63.47,1
64,63.33,63.48,1
64,63.34,63.48,1
64,63.35,63.49,1
65,63.39,63.50,1
63,63.38,63.50,1
64,63.39,63.50,1
63,63.38,63.50,1
64,63.40,63.50,1
62,63.37,63.49,1
62,63.34,63.47,1
63,63.33,63.47,1
64,63.35,63.48,1
64,63.36,63.48,1
64,63.37,63.49,1
64,63.39,63.49,1
64,63.40,63.50,1
64,63.41,63.50,1
64,63.42,63.51,1
64,63.43,63.51,1
63,63.43,63.51,1
64,63.44,63.51,1
64,63.45,63.52,1
64,63.46,63.52,1
63,63.45,63.52,1
62,63.42,63.50,1
64,63.43,63.51,1
64,63.44,63.51,1
65,63.48,63.53,1
64,63.49,63.53,1
62,63.46,63.51,1
64,63.47,63.52,1
65,63.50,63.53,1
64,63.51,63.54,1
64,63.52,63.54,1
64,63.53,63.55,1
64,63.54,63.55,1
62,63.51,63.54,1
64,63.52,63.54,1
64,63.53,63.55,1
62,63.49,63.53,1
62,63.46,63.52,1
64,63.48,63.52,1
63,63.47,63.52,1
64,63.48,63.52,1
62,63.45,63.50,1
64,63.46,63.51,1
64,63.47,63.51,1
66,63.52,63.54,1
65,63.55,63.55,1
64,63.56,63.56,1
64,63.57,63.56,1
63,63.56,63.56,1
64,63.56,63.56,1
64,63.57,63.57,1
64,63.58,63.57,1
66,63.63,63.59,1
67,63.70,63.63,1
66,63.74,63.65,1
65,63.77,63.67,1
66,63.81,63.69,1
64,63.82,63.69,1
64,63.82,63.70,1
64,63.82,63.70,1
65,63.85,63.71,1
66,63.89,63.73,1
65,63.91,63.75,1
65,63.93,63.76,1
68,64.02,63.80,1
68,64.10,63.84,1
64,64.09,63.85,1
68,64.17,63.89,1
68,64.25,63.93,1
66,64.28,63.95,1
66,64.32,63.97,1
66,64.35,63.99,1
65,64.36,64.00,1
65,64.38,64.01,1
66,64.41,64.03,1
66,64.44,64.05,1
65,64.45,64.06,1
65,64.46,64.07,1
65,64.47,64.08,1
65,64.48,64.09,1
65,64.50,64.10,1
65,64.51,64.11,1
64,64.50,64.10,1
66,64.53,64.12,1
64,64.51,64.12,1
64,64.50,64.12,1
64,64.49,64.12,1
66,64.52,64.14,1
68,64.59,64.18,1
66,64.62,64.20,1
66,64.65,64.21,1
66,64.68,64.23,1
69,64.76,64.28,1
68,64.83,64.32,1
66,64.85,64.33,1
67,64.89,64.36,1
68,64.96,64.40,1
66,64.98,64.41,1
66,65.00,64.43,1
67,65.04,64.45,1
65,65.04,64.46,1
66,65.06,64.47,1
66,65.08,64.49,1
68,65.13,64.52,1
68,65.19,64.56,1
67,65.23,64.58,1
66,65.24,64.60,1
66,65.26,64.61,1
67,65.29,64.64,1
65,65.29,64.64,1
66,65.30,64.65,1
64,65.28,64.65,1
68,65.33,64.68,1
66,65.34,64.69,1
66,65.36,64.71,1
66,65.37,64.72,1
66,65.38,64.73,1
66,65.39,64.74,1
66,65.41,64.76,1
66,65.42,64.77,1
66,65.43,64.78,1
66,65.44,64.79,1
66,65.45,64.81,1
66,65.46,64.82,1
66,65.47,64.83,1
66,65.48,64.84,1
66,65.49,64.85,1
67,65.52,64.87,1
66,65.53,64.89,1
66,65.54,64.90,1
66,65.55,64.91,1
66,65.56,64.92,1
65,65.55,64.92,1
66,65.56,64.93,1
66,65.57,64.94,1
66,65.58,64.95,1
66,65.59,64.96,1
66,65.59,64.97,1
66,65.60,64.98,1
67,65.63,65.00,1
68,65.68,65.03,1
66,65.68,65.04,1
66,65.69,65.05,1
68,65.74,65.08,1
68,65.78,65.11,1
67,65.81,65.13,1
66,65.81,65.14,1
66,65.81,65.15,1
68,65.86,65.18,1
65,65.84,65.17,1
67,65.86,65.19,1
67,65.89,65.21,1
66,65.89,65.22,1
65,65.87,65.22,1
68,65.91,65.24,1
66,65.91,65.25,1
68,65.96,65.28,1
66,65.96,65.29,1
65,65.94,65.28,1
66,65.94,65.29,1
65,65.92,65.29,1
66,65.92,65.30,1
66,65.92,65.30,1
66,65.93,65.31,1
65,65.91,65.31,1
68,65.95,65.33,1
65,65.93,65.33,1
65,65.91,65.33,1
67,65.93,65.34,1
66,65.93,65.35,1
66,65.94,65.36,1
68,65.98,65.38,1
65,65.96,65.38,1
64,65.92,65.36,1
66,65.92,65.37,1
66,65.92,65.38,1
65,65.90,65.37,1
65,65.89,65.37,1
66,65.89,65.38,1
67,65.91,65.39,1
65,65.89,65.39,1
66,65.89,65.39,1
66,65.90,65.40,1
68,65.94,65.43,1
69,66.00,65.46,1
67,66.02,65.48,1
66,66.02,65.48,1
65,66.00,65.48,1
65,65.98,65.47,1
65,65.96,65.47,1
64,65.92,65.45,1
65,65.90,65.45,1
68,65.94,65.48,1
66,65.94,65.48,1
66,65.95,65.49,1
66,65.95,65.49,1
66,65.95,65.50,1
66,65.95,65.50,1
66,65.95,65.51,1
68,65.99,65.53,1
65,65.97,65.53,1
66,65.97,65.53,1
66,65.97,65.53,1
66,65.97,65.54,1
66,65.97,65.54,1
66,65.97,65.55,1
66,65.97,65.55,1
66,65.97,65.56,1
66,65.98,65.56,1
66,65.98,65.57,1
66,65.98,65.57,1
65,65.96,65.57,1
65,65.94,65.56,1
66,65.94,65.56,1
66,65.94,65.57,1
65,65.92,65.56,1
66,65.92,65.57,1
64,65.88,65.55,1
63,65.83,65.53,1
65,65.81,65.52,1
65,65.79,65.52,1
68,65.84,65.54,1
64,65.80,65.52,1
66,65.81,65.53,1
66,65.81,65.53,1
66,65.81,65.54,1
68,65.86,65.56,1
67,65.88,65.58,1
67,65.90,65.59,1
66,65.90,65.60,1
66,65.91,65.60,1
65,65.89,65.59,1
66,65.89,65.60,1
66,65.89,65.60,1
66,65.89,65.61,1
68,65.94,65.63,1
70,66.02,65.67,1
66,66.02,65.68,1
66,66.02,65.68,1
66,66.02,65.68,1
66,66.02,65.69,1
68,66.06,65.71,1
68,66.09,65.73,1
66,66.09,65.74,1
66,66.09,65.74,1
65,66.07,65.73,1
68,66.11,65.75,1
68,66.15,65.78,1
70,66.22,65.82,1
65,66.20,65.81,1
67,66.21,65.82,1
68,66.25,65.84,1
67,66.27,65.86,1
69,66.32,65.89,1
70,66.39,65.93,1
70,66.47,65.97,1
69,66.52,66.00,1
69,66.57,66.03,1
68,66.59,66.05,1
70,66.66,66.09,1
70,66.73,66.13,1
70,66.79,66.17,1
73,66.92,66.23,1
70,66.98,66.27,1
72,67.08,66.33,1
74,67.22,66.41,1
72,67.32,66.46,1
72,67.41,66.52,1
73,67.52,66.58,1
70,67.57,66.62,1
70,67.62,66.65,1
72,67.71,66.70,1
72,67.79,66.76,1
71,67.86,66.80,1
75,68.00,66.88,1
74,68.12,66.95,1
76,68.28,67.04,1
74,68.39,67.11,1
72,68.46,67.16,1
71,68.51,67.20,1
72,68.58,67.25,1
73,68.67,67.31,1
72,68.74,67.35,1
73,68.82,67.41,1
72,68.89,67.45,1
72,68.95,67.50,1
72,69.01,67.54,1
72,69.07,67.59,1
72,69.13,67.63,1
74,69.23,67.70,1
74,69.32,67.76,1
73,69.40,67.81,1
77,69.55,67.90,1
73,69.62,67.96,1
74,69.70,68.02,1
77,69.85,68.11,1
81,70.07,68.23,1
81,70.29,68.36,1
76,70.41,68.44,1
74,70.48,68.49,1
75,70.57,68.56,1
76,70.68,68.63,1
74,70.74,68.69,1
76,70.85,68.76,1
75,70.93,68.82,1
76,71.03,68.89,1
74,71.09,68.95,1
76,71.19,69.02,1
75,71.27,69.08,1
74,71.32,69.13,1
74,71.37,69.17,1
76,71.47,69.24,1
78,71.60,69.33,1
74,71.65,69.38,1
74,71.69,69.42,1
76,71.78,69.49,1
75,71.84,69.54,1
80,72.01,69.65,1
76,72.09,69.71,1
78,72.21,69.79,1
79,72.34,69.89,1
78,72.45,69.97,1
76,72.53,70.03,1
78,72.63,70.11,1
76,72.70,70.17,1
76,72.77,70.23,1
76,72.83,70.28,1
78,72.94,70.36,1
78,73.04,70.44,1
76,73.10,70.49,1
78,73.19,70.57,1
79,73.31,70.65,1
76,73.36,70.71,1
76,73.42,70.76,1
78,73.51,70.83,1
83,73.70,70.95,1
80,73.82,71.04,1
78,73.91,71.11,1
81,74.05,71.21,1
81,74.19,71.31,1
78,74.27,71.38,1
78,74.34,71.44,1
81,74.47,71.54,1
82,74.62,71.64,1
84,74.81,71.77,1
82,74.95,71.87,1
82,75.10,71.97,1
81,75.21,72.06,1
80,75.31,72.14,1
80,75.40,72.22,1
80,75.50,72.30,1
82,75.63,72.39,1
83,75.77,72.50,1
83,75.92,72.60,1
81,76.02,72.69,1
82,76.14,72.78,1
83,76.28,72.88,1
82,76.39,72.97,1
84,76.54,73.08,1
87,76.75,73.22,1
86,76.94,73.35,1
86,77.12,73.48,1
82,77.22,73.56,1
82,77.31,73.65,1
82,77.41,73.73,1
83,77.52,73.82,1
84,77.65,73.93,1
83,77.75,74.02,1
84,77.88,74.12,1
86,78.04,74.23,1
82,78.12,74.31,1
85,78.26,74.42,1
89,78.47,74.57,1
84,78.58,74.66,1
84,78.69,74.75,1
84,78.80,74.85,1
85,78.92,74.95,1
87,79.08,75.07,1
83,79.16,75.15,1
84,79.26,75.24,1
89,79.45,75.37,1
86,79.58,75.48,1
84,79.67,75.56,1
85,79.78,75.66,1
87,79.92,75.77,1
86,80.05,75.87,1
90,80.24,76.02,1
91,80.46,76.17,1
87,80.59,76.27,1
90,80.78,76.41,1
92,81.00,76.57,1
93,81.24,76.73,1
89,81.40,76.85,1
89,81.55,76.98,1
90,81.72,77.11,1
90,81.88,77.23,1
89,82.03,77.35,1
88,82.15,77.46,1
90,82.30,77.58,1
95,82.56,77.76,1
89,82.69,77.87,1
97,82.97,78.06,1
98,83.27,78.26,1
95,83.51,78.43,1
94,83.72,78.58,1
92,83.88,78.72,1
92,84.05,78.85,1
92,84.20,78.98,1
96,84.44,79.15,1
94,84.63,79.30,1
92,84.78,79.43,1
96,85.00,79.59,1
96,85.22,79.76,1
95,85.42,79.91,1
100,85.71,80.11,1
97,85.94,80.28,1
98,86.18,80.46,1
97,86.39,80.62,1
100,86.67,80.82,1
100,86.93,81.01,1
96,87.11,81.16,1
98,87.33,81.33,1
96,87.51,81.47,1
96,87.68,81.62,1
100,87.92,81.80,1
100,88.16,81.99,1
99,88.38,82.16,1
97,88.55,82.30,1
97,88.72,82.45,1
100,88.95,82.63,1
99,89.15,82.79,1
98,89.32,82.94,1
97,89.48,83.08,1
100,89.69,83.25,1
100,89.90,83.42,1
95,90.00,83.54,1
102,90.24,83.72,1
97,90.37,83.85,1
102,90.61,84.03,1
111,91.01,84.30,1
108,91.35,84.54,1
102,91.57,84.72,1
103,91.79,84.90,1
105,92.06,85.10,1
108,92.38,85.33,1
112,92.77,85.59,1
113,93.17,85.87,1
113,93.57,86.14,1
114,93.98,86.42,1
123,94.56,86.78,1
124,95.15,87.16,1
112,95.49,87.41,1
117,95.92,87.70,1
118,96.36,88.00,1
116,96.75,88.28,1
112,97.06,88.52,1
116,97.43,88.80,1
113,97.75,89.04,1
119,98.17,89.34,1
117,98.55,89.61,1
120,98.98,89.92,1
120,99.40,90.22,1
119,99.79,90.51,1
117,100.13,90.77,1
123,100.59,91.09,1
117,100.92,91.35,1
124,101.38,91.68,1
118,101.71,91.94,1
126,102.20,92.28,1
125,102.65,92.61,1
119,102.98,92.87,1
121,103.34,93.16,1
127,103.81,93.49,1
124,104.22,93.80,1
122,104.57,94.08,1
132,105.12,94.46,1
126,105.54,94.78,1
122,105.87,95.05,1
121,106.17,95.31,1
124,106.53,95.59,1
130,107.00,95.94,1
124,107.34,96.22,1
128,107.75,96.54,1
126,108.12,96.83,1
124,108.43,97.10,1
122,108.71,97.35,1
126,109.05,97.64,1
127,109.41,97.93,1
125,109.72,98.20,1
124,110.01,98.46,1
132,110.45,98.80,1
138,111.00,99.19,1
125,111.28,99.45,1
130,111.65,99.75,1
131,112.04,100.06,1
134,112.48,100.40,1
128,112.79,100.68,1
129,113.11,100.96,1
130,113.45,101.25,1
135,113.88,101.59,1
131,114.22,101.88,1
129,114.52,102.16,1
129,114.81,102.42,1
135,115.21,102.75,1
131,115.53,103.03,1
132,115.86,103.32,1
129,116.12,103.58,1
130,116.40,103.84,1
133,116.73,104.13,1
135,117.10,104.44,1
131,117.37,104.71,1
131,117.65,104.97,1
129,117.87,105.21,1
129,118.10,105.45,1
131,118.35,105.71,1
132,118.63,105.97,1
132,118.90,106.23,1
137,119.26,106.54,1
131,119.49,106.78,1
136,119.82,107.07,1
134,120.11,107.34,1
137,120.44,107.64,1
132,120.67,107.88,1
136,120.98,108.16,1
135,121.26,108.43,1
135,121.54,108.70,1
132,121.75,108.93,1
134,121.99,109.18,1
137,122.29,109.46,1
140,122.65,109.77,1
139,122.97,110.06,1
140,123.31,110.36,1
137,123.59,110.62,1
135,123.81,110.87,1
149,124.32,111.25,1
144,124.71,111.58,1
138,124.98,111.84,1
137,125.22,112.09,1
138,125.47,112.35,1
138,125.72,112.61,1
141,126.03,112.89,1
144,126.39,113.20,1
140,126.66,113.47,1
137,126.87,113.71,1
140,127.13,113.97,1
138,127.35,114.21,1
140,127.60,114.47,1
137,127.79,114.69,1
137,127.97,114.92,1
137,128.15,115.14,1
139,128.37,115.38,1
138,128.56,115.60,1
136,128.71,115.81,1
137,128.88,116.02,1
138,129.06,116.24,1
140,129.28,116.47,1
136,129.41,116.67,1
140,129.63,116.90,1
137,129.77,117.10,1
136,129.90,117.29,1
135,130.00,117.47,1
136,130.12,117.66,1
135,130.22,117.83,1
137,130.35,118.02,1
135,130.45,118.19,1
137,130.58,118.38,1
133,130.63,118.52,1
135,130.71,118.69,1
135,130.80,118.85,1
134,130.86,119.00,1
135,130.95,119.16,1
134,131.01,119.31,1
137,131.13,119.49,1
142,131.34,119.71,1
135,131.42,119.87,1
136,131.51,120.03,1
136,131.60,120.19,1
136,131.69,120.35,1
137,131.79,120.51,1
134,131.84,120.65,1
136,131.92,120.80,1
137,132.02,120.96,1
137,132.12,121.12,1
136,132.20,121.27,1
136,132.28,121.42,1
136,132.35,121.57,1
135,132.40,121.70,1
135,132.45,121.83,1
135,132.51,121.96,1
135,132.56,122.09,1
136,132.62,122.23,1
136,132.69,122.37,1
134,132.72,122.49,1
134,132.74,122.60,1
135,132.79,122.73,1
136,132.85,122.86,1
134,132.88,122.97,1
135,132.92,123.09,1
133,132.92,123.19,1
136,132.98,123.32,1
133,132.98,123.42,1
133,132.98,123.51,1
133,132.98,123.61,1
131,132.94,123.68,1
132,132.92,123.76,1
131,132.89,123.84,1
132,132.87,123.92,1
131,132.83,123.99,1
131,132.79,124.06,1
131,132.76,124.13,1
131,132.72,124.20,1
130,132.67,124.25,1
132,132.66,124.33,1
129,132.58,124.38,1
129,132.51,124.42,1
128,132.42,124.46,1
130,132.37,124.52,1
129,132.30,124.56,1
129,132.24,124.61,1
129,132.17,124.65,1
131,132.15,124.71,1
131,132.13,124.78,1
131,132.10,124.84,1
129,132.04,124.88,1
131,132.02,124.94,1
133,132.04,125.02,1
129,131.98,125.06,1
131,131.96,125.12,1
129,131.90,125.16,1
130,131.86,125.21,1
129,131.81,125.25,1
129,131.75,125.28,1
129,131.70,125.32,1
127,131.60,125.34,1
129,131.55,125.37,1
129,131.50,125.41,1
129,131.45,125.45,1
128,131.38,125.47,1
128,131.31,125.50,1
129,131.27,125.53,1
127,131.18,125.55,1
128,131.12,125.57,1
128,131.05,125.60,1
128,130.99,125.62,1
127,130.91,125.63,1
127,130.83,125.65,1
126,130.74,125.65,1
125,130.62,125.64,1
127,130.55,125.66,1
125,130.44,125.65,1
126,130.35,125.65,1
125,130.24,125.65,1
126,130.16,125.65,1
125,130.06,125.64,1
123,129.92,125.62,1
125,129.82,125.61,1
125,129.72,125.61,1
124,129.61,125.59,1
124,129.49,125.57,1
125,129.40,125.57,1
123,129.28,125.54,1
125,129.19,125.54,1
123,129.07,125.51,1
123,128.95,125.49,1
123,128.83,125.46,1
124,128.73,125.45,1
123,128.62,125.42,1
123,128.50,125.40,1
123,128.39,125.37,1
123,128.29,125.35,1
123,128.18,125.33,1
123,128.08,125.30,1
122,127.95,125.27,1
122,127.84,125.24,1
121,127.70,125.20,1
121,127.56,125.15,1
123,127.47,125.13,1
121,127.34,125.09,1
121,127.22,125.05,1
121,127.09,125.01,1
120,126.95,124.96,1
120,126.81,124.91,1
120,126.68,124.86,1
119,126.52,124.80,1
119,126.37,124.74,1
120,126.24,124.70,1
119,126.10,124.64,1
120,125.98,124.59,1
119,125.84,124.54,1
119,125.70,124.48,1
120,125.59,124.44,1
118,125.44,124.37,1
119,125.31,124.32,1
121,125.22,124.29,1
117,125.06,124.21,1
117,124.89,124.14,1
117,124.74,124.07,1
119,124.62,124.02,1
117,124.47,123.95,1
117,124.32,123.88,1
116,124.15,123.80,1
116,123.99,123.72,1
117,123.85,123.66,1
117,123.71,123.59,1
116,123.56,123.51,1
115,123.39,123.43,1
116,123.24,123.35,1
115,123.08,123.27,1
116,122.93,123.20,1
113,122.74,123.10,1
116,122.60,123.02,1
115,122.45,122.94,1
114,122.28,122.85,1
114,122.11,122.77,1
114,121.95,122.68,1
114,121.79,122.59,1
113,121.62,122.50,1
113,121.44,122.40,1
113,121.28,122.31,1
114,121.13,122.22,1
113,120.97,122.13,1
113,120.81,122.04,1
113,120.65,121.95,1
113,120.50,121.86,1
112,120.33,121.76,1
113,120.18,121.67,1
111,120.00,121.57,1
111,119.82,121.46,1
111,119.64,121.36,1
112,119.49,121.26,1
111,119.32,121.16,1
111,119.15,121.06,1
111,118.99,120.96,1
111,118.83,120.86,1
111,118.67,120.76,1
111,118.52,120.66,1
111,118.37,120.57,1
110,118.20,120.46,1
109,118.02,120.35,1
110,117.86,120.24,1
109,117.68,120.13,1
109,117.51,120.02,1
109,117.34,119.91,1
109,117.17,119.80,1
109,117.01,119.69,1
109,116.85,119.58,1
109,116.69,119.48,1
109,116.54,119.37,1
109,116.39,119.27,1
108,116.22,119.16,1
108,116.05,119.05,1
108,115.89,118.94,1
107,115.71,118.82,1
108,115.56,118.71,1
107,115.39,118.59,1
107,115.22,118.47,1
107,115.06,118.36,1
108,114.92,118.26,1
107,114.76,118.14,1
107,114.60,118.03,1
107,114.45,117.92,1
106,114.28,117.80,1
106,114.12,117.68,1
107,113.97,117.58,1
104,113.77,117.44,1
105,113.60,117.32,1
105,113.43,117.19,1
105,113.26,117.07,1
106,113.11,116.96,1
105,112.95,116.84,1
104,112.77,116.71,1
105,112.62,116.60,1
105,112.46,116.48,1
104,112.29,116.36,1
105,112.15,116.24,1
104,111.99,116.12,1
103,111.81,115.99,1
104,111.65,115.87,1
103,111.48,115.74,1
103,111.31,115.61,1
104,111.16,115.50,1
103,111.00,115.37,1
103,110.84,115.25,1
101,110.64,115.11,1
103,110.49,114.98,1
103,110.34,114.86,1
102,110.17,114.74,1
101,109.99,114.60,1
102,109.83,114.47,1
102,109.67,114.35,1
102,109.52,114.22,1
101,109.35,114.09,1
101,109.18,113.96,1
101,109.02,113.83,1
101,108.86,113.70,1
102,108.72,113.59,1
101,108.57,113.46,1
101,108.41,113.34,1
101,108.27,113.21,1
101,108.12,113.09,1
101,107.98,112.97,1
101,107.84,112.85,1
100,107.68,112.72,1
99,107.51,112.58,1
99,107.34,112.45,1
100,107.19,112.32,1
99,107.03,112.19,1
100,106.89,112.07,1
98,106.71,111.93,1
99,106.56,111.80,1
99,106.40,111.67,1
98,106.24,111.53,1
99,106.09,111.41,1
98,105.93,111.27,1
98,105.77,111.14,1
98,105.62,111.01,1
98,105.46,110.88,1
97,105.29,110.74,1
98,105.15,110.61,1
97,104.99,110.48,1
98,104.85,110.35,1
96,104.67,110.21,1
98,104.54,110.09,1
96,104.36,109.95,1
97,104.22,109.82,1
96,104.05,109.68,1
97,103.91,109.55,1
100,103.83,109.46,1
96,103.68,109.32,1
95,103.50,109.18,1
96,103.35,109.05,1
95,103.19,108.91,1
95,103.02,108.77,1
98,102.92,108.66,1
96,102.78,108.53,1
96,102.65,108.41,1
95,102.49,108.27,1
94,102.33,108.13,1
94,102.16,107.99,1
94,102.00,107.85,1
94,101.84,107.71,1
94,101.68,107.57,1
94,101.53,107.44,1
94,101.37,107.30,1
93,101.21,107.16,1
94,101.06,107.03,1
94,100.92,106.90,1
95,100.80,106.78,1
94,100.67,106.65,1
93,100.51,106.52,1
92,100.34,106.37,1
94,100.22,106.25,1
94,100.09,106.12,1
94,99.97,106.00,1
94,99.85,105.88,1
93,99.71,105.75,1
93,99.58,105.63,1
92,99.43,105.49,1
93,99.30,105.37,1
93,99.17,105.24,1
92,99.03,105.11,1
91,98.87,104.97,1
93,98.75,104.85,1
93,98.64,104.73,1
92,98.50,104.60,1
92,98.37,104.48,1
92,98.25,104.35,1
91,98.10,104.22,1
92,97.98,104.10,1
92,97.86,103.98,1
91,97.72,103.85,1
91,97.59,103.72,1
91,97.46,103.59,1
91,97.33,103.46,1
93,97.24,103.36,1
90,97.10,103.23,1
90,96.95,103.09,1
91,96.84,102.97,1
92,96.74,102.86,1
92,96.64,102.75,1
90,96.51,102.63,1
89,96.36,102.49,1
89,96.21,102.36,1
92,96.13,102.25,1
91,96.03,102.14,1
90,95.91,102.02,1
90,95.79,101.90,1
90,95.67,101.78,1
91,95.58,101.67,1
89,95.45,101.54,1
89,95.32,101.42,1
89,95.19,101.30,1
89,95.07,101.17,1
90,94.97,101.06,1
89,94.85,100.94,1
89,94.73,100.82,1
89,94.62,100.70,1
89,94.50,100.59,1
89,94.39,100.47,1
86,94.23,100.32,1
89,94.12,100.21,1
89,94.02,100.10,1
90,93.94,100.00,1
88,93.82,99.88,1
88,93.70,99.76,1
88,93.59,99.64,1
88,93.48,99.53,1
87,93.35,99.40,1
88,93.24,99.29,1
90,93.18,99.19,1
88,93.07,99.08,1
87,92.95,98.96,1
87,92.83,98.84,1
89,92.76,98.74,1
88,92.66,98.64,1
87,92.55,98.52,1
86,92.42,98.39,1
88,92.33,98.29,1
86,92.20,98.17,1
87,92.10,98.06,1
86,91.98,97.93,1
87,91.88,97.83,1
86,91.76,97.71,1
86,91.64,97.59,1
86,91.53,97.47,1
86,91.42,97.36,1
85,91.29,97.24,1
86,91.19,97.12,1
86,91.08,97.01,1
86,90.98,96.90,1
86,90.88,96.79,1
86,90.78,96.69,1
88,90.73,96.60,1
84,90.59,96.47,1
84,90.46,96.35,1
85,90.35,96.23,1
85,90.24,96.12,1
86,90.16,96.02,1
84,90.04,95.90,1
85,89.94,95.79,1
84,89.82,95.67,1
84,89.70,95.56,1
85,89.61,95.45,1
84,89.49,95.34,1
85,89.40,95.23,1
84,89.30,95.12,1
84,89.19,95.01,1
84,89.09,94.90,1
84,88.99,94.79,1
84,88.89,94.68,1
84,88.79,94.58,1
82,88.65,94.45,1
85,88.58,94.36,1
83,88.47,94.24,1
84,88.38,94.14,1
88,88.37,94.08,1
83,88.26,93.97,1
83,88.16,93.86,1
82,88.03,93.74,1
83,87.93,93.63,1
83,87.84,93.53,1
82,87.72,93.41,1
82,87.60,93.30,1
87,87.59,93.23,1
84,87.52,93.14,1
82,87.41,93.03,1
84,87.34,92.94,1
84,87.27,92.85,1
82,87.17,92.74,1
82,87.07,92.63,1
82,86.96,92.53,1
80,86.83,92.40,1
82,86.73,92.30,1
82,86.63,92.20,1
81,86.52,92.08,1
79,86.37,91.95,1
82,86.28,91.85,1
80,86.16,91.73,1
80,86.03,91.62,1
80,85.91,91.50,1
82,85.84,91.41,1
80,85.72,91.29,1
80,85.60,91.18,1
81,85.51,91.08,1
80,85.40,90.97,1
80,85.29,90.86,1
82,85.23,90.77,1
81,85.14,90.67,1
80,85.04,90.56,1
80,84.94,90.46,1
80,84.84,90.35,1
79,84.72,90.24,1
80,84.63,90.14,1
80,84.54,90.04,1
79,84.43,89.93,1
80,84.34,89.83,1
80,84.25,89.73,1
80,84.17,89.63,1
79,84.06,89.52,1
80,83.98,89.43,1
80,83.90,89.34,1
80,83.82,89.24,1
79,83.73,89.14,1
80,83.65,89.05,1
80,83.58,88.96,1
80,83.51,88.87,1
80,83.44,88.78,1
80,83.37,88.69,1
80,83.30,88.60,1
79,83.22,88.51,1
78,83.11,88.40,1
79,83.03,88.31,1
79,82.95,88.22,1
78,82.85,88.11,1
78,82.75,88.01,1
79,82.68,87.92,1
78,82.58,87.82,1
79,82.51,87.74,1
78,82.42,87.64,1
79,82.35,87.55,1
81,82.33,87.49,1
78,82.24,87.39,1
78,82.16,87.30,1
78,82.07,87.20,1
79,82.01,87.12,1
78,81.93,87.03,1
78,81.85,86.94,1
78,81.78,86.85,1
79,81.72,86.77,1
77,81.63,86.68,1
78,81.55,86.59,1
77,81.46,86.49,1
77,81.37,86.40,1
76,81.27,86.29,1
76,81.16,86.19,1
78,81.10,86.11,1
77,81.01,86.02,1
76,80.91,85.92,1
76,80.82,85.82,1
78,80.76,85.74,1
77,80.68,85.65,1
76,80.59,85.56,1
76,80.50,85.46,1
76,80.41,85.37,1
77,80.34,85.28,1
76,80.25,85.19,1
76,80.17,85.10,1
77,80.11,85.02,1
76,80.02,84.93,1
75,79.92,84.83,1
76,79.84,84.74,1
74,79.73,84.63,1
76,79.65,84.55,1
75,79.56,84.45,1
76,79.49,84.37,1
74,79.38,84.26,1
75,79.29,84.17,1
76,79.23,84.09,1
74,79.12,83.99,1
74,79.02,83.89,1
76,78.96,83.81,1
74,78.86,83.71,1
74,78.76,83.61,1
76,78.71,83.54,1
74,78.61,83.44,1
74,78.52,83.35,1
74,78.43,83.25,1
75,78.36,83.17,1
74,78.27,83.08,1
74,78.19,82.99,1
76,78.14,82.92,1
75,78.08,82.84,1
74,78.00,82.75,1
74,77.92,82.66,1
74,77.84,82.58,1
76,77.81,82.51,1
75,77.75,82.44,1
74,77.67,82.35,1
74,77.60,82.27,1
74,77.53,82.19,1
74,77.46,82.10,1
74,77.39,82.02,1
76,77.36,81.96,1
76,77.33,81.90,1
75,77.29,81.83,1
74,77.22,81.76,1
70,77.08,81.64,1
75,77.04,81.57,1
75,76.99,81.51,1
74,76.93,81.43,1
76,76.92,81.38,1
75,76.88,81.31,1
74,76.82,81.24,1
74,76.76,81.17,1
74,76.71,81.10,1
75,76.67,81.03,1
74,76.62,80.96,1
73,76.55,80.88,1
74,76.50,80.82,1
73,76.43,80.74,1
73,76.36,80.66,1
74,76.31,80.59,1
74,76.27,80.53,1
73,76.20,80.45,1
72,76.12,80.37,1
73,76.05,80.29,1
74,76.01,80.23,1
73,75.95,80.16,1
72,75.87,80.08,1
73,75.82,80.01,1
73,75.76,79.94,1
72,75.68,79.86,1
72,75.61,79.78,1
72,75.54,79.70,1
72,75.47,79.62,1
72,75.40,79.55,1
72,75.33,79.47,1
72,75.26,79.40,1
72,75.20,79.32,1
71,75.11,79.24,1
71,75.03,79.16,1
70,74.93,79.07,1
72,74.87,79.00,1
70,74.78,78.91,1
72,74.72,78.84,1
71,74.65,78.76,1
71,74.57,78.68,1
71,74.50,78.60,1
70,74.41,78.52,1
70,74.32,78.43,1
70,74.24,78.35,1
71,74.17,78.27,1
71,74.11,78.20,1
69,74.01,78.11,1
70,73.93,78.03,1
70,73.85,77.95,1
71,73.79,77.88,1
70,73.71,77.80,1
70,73.64,77.72,1
70,73.57,77.64,1
72,73.54,77.59,1
69,73.45,77.50,1
70,73.38,77.43,1
70,73.31,77.35,1
69,73.22,77.27,1
70,73.16,77.20,1
70,73.10,77.13,1
70,73.03,77.05,1
69,72.95,76.97,1
69,72.87,76.89,1
70,72.82,76.82,1
68,72.72,76.74,1
69,72.65,76.66,1
68,72.55,76.57,1
68,72.46,76.49,1
69,72.39,76.41,1
68,72.30,76.33,1
68,72.22,76.24,1
67,72.11,76.15,1
69,72.05,76.08,1
68,71.97,76.00,1
68,71.89,75.92,1
66,71.77,75.82,1
68,71.70,75.74,1
68,71.62,75.66,1
67,71.53,75.58,1
66,71.42,75.48,1
70,71.39,75.43,1
68,71.32,75.35,1
68,71.26,75.28,1
66,71.15,75.19,1
68,71.09,75.12,1
68,71.03,75.04,1
67,70.95,74.96,1
68,70.89,74.89,1
69,70.85,74.83,1
67,70.77,74.76,1
68,70.72,74.69,1
66,70.62,74.60,1
67,70.55,74.53,1
67,70.48,74.45,1
66,70.39,74.37,1
68,70.34,74.30,1
68,70.30,74.24,1
67,70.23,74.17,1
66,70.15,74.09,1
68,70.10,74.02,1
68,70.06,73.96,1
68,70.02,73.90,1
68,69.98,73.85,1
69,69.96,73.80,1
67,69.90,73.73,1
66,69.82,73.65,1
68,69.79,73.60,1
68,69.75,73.54,1
67,69.70,73.47,1
67,69.64,73.41,1
66,69.57,73.34,1
66,69.50,73.26,1
66,69.43,73.19,1
66,69.36,73.12,1
63,69.23,73.02,1
66,69.17,72.95,1
66,69.10,72.88,1
66,69.04,72.81,1
66,68.98,72.74,1
65,68.90,72.66,1
67,68.86,72.61,1
66,68.81,72.54,1
64,68.71,72.45,1
66,68.66,72.39,1
66,68.60,72.33,1
65,68.53,72.25,1
67,68.50,72.20,1
65,68.43,72.13,1
66,68.38,72.07,1
66,68.33,72.01,1
66,68.29,71.95,1
65,68.22,71.88,1
65,68.16,71.81,1
66,68.11,71.75,1
66,68.07,71.69,1
64,67.99,71.62,1
65,67.93,71.55,1
66,67.89,71.49,1
64,67.81,71.42,1
64,67.74,71.34,1
64,67.66,71.27,1
65,67.61,71.21,1
64,67.54,71.14,1
64,67.47,71.07,1
64,67.40,70.99,1
64,67.33,70.92,1
64,67.26,70.86,1
64,67.20,70.79,1
64,67.13,70.72,1
64,67.07,70.65,1
64,67.01,70.59,1
64,66.95,70.52,1
64,66.89,70.45,1
64,66.83,70.39,1
64,66.78,70.33,1
64,66.72,70.26,1
62,66.63,70.18,1
63,66.55,70.11,1
63,66.48,70.04,1
62,66.39,69.96,1
62,66.30,69.88,1
63,66.24,69.81,1
62,66.15,69.73,1
62,66.07,69.65,1
62,65.99,69.58,1
62,65.91,69.50,1
62,65.83,69.43,1
62,65.75,69.35,1
61,65.66,69.27,1
62,65.59,69.20,1
62,65.51,69.12,1
62,65.44,69.05,1
62,65.38,68.98,1
64,65.35,68.93,1
61,65.26,68.85,1
62,65.20,68.78,1
61,65.11,68.71,1
61,65.03,68.63,1
61,64.95,68.55,1
60,64.85,68.47,1
61,64.77,68.39,1
62,64.72,68.33,1
62,64.66,68.27,1
62,64.61,68.20,1
61,64.54,68.13,1
61,64.47,68.06,1
60,64.38,67.98,1
60,64.29,67.90,1
61,64.22,67.83,1
61,64.16,67.76,1
60,64.08,67.68,1
60,64.00,67.61,1
61,63.94,67.54,1
60,63.86,67.47,1
60,63.78,67.39,1
60,63.70,67.32,1
61,63.65,67.25,1
60,63.58,67.18,1
60,63.51,67.11,1
61,63.46,67.05,1
60,63.39,66.98,1
60,63.32,66.91,1
60,63.25,66.84,1
60,63.19,66.77,1
60,63.12,66.70,1
59,63.04,66.63,1
60,62.98,66.56,1
60,62.92,66.49,1
59,62.84,66.42,1
60,62.79,66.35,1
62,62.77,66.31,1
60,62.71,66.25,1
59,62.64,66.18,1
60,62.59,66.11,1
58,62.50,66.03,1
58,62.41,65.95,1
59,62.34,65.88,1
60,62.29,65.82,1
60,62.24,65.77,1
58,62.16,65.69,1
59,62.10,65.62,1
63,62.11,65.60,1
60,62.07,65.54,1
58,61.99,65.46,1
57,61.89,65.38,1
58,61.81,65.31,1
59,61.76,65.24,1
58,61.68,65.17,1
59,61.63,65.11,1
55,61.50,65.01,1
57,61.41,64.93,1
58,61.34,64.86,1
58,61.27,64.79,1
58,61.21,64.72,1
58,61.14,64.65,1
58,61.08,64.59,1
58,61.02,64.52,1
58,60.96,64.46,1
58,60.90,64.39,1
57,60.82,64.32,1
57,60.74,64.24,1
57,60.67,64.17,1
56,60.57,64.09,1
56,60.48,64.01,1
56,60.39,63.93,1
57,60.33,63.86,1
56,60.24,63.78,1
57,60.17,63.71,1
57,60.11,63.65,1
57,60.05,63.58,1
56,59.97,63.50,1
56,59.89,63.43,1
56,59.81,63.36,1
57,59.75,63.29,1
56,59.68,63.22,1
56,59.61,63.15,1
56,59.53,63.08,1
56,59.46,63.00,1
57,59.41,62.94,1
56,59.35,62.87,1
56,59.28,62.81,1
56,59.21,62.74,1
56,59.15,62.67,1
56,59.09,62.60,1
56,59.02,62.54,1
57,58.98,62.48,1
56,58.92,62.42,1
55,58.85,62.34,1
56,58.79,62.28,1
56,58.73,62.22,1
55,58.66,62.15,1
54,58.56,62.06,1
56,58.51,62.00,1
56,58.46,61.94,1
55,58.39,61.87,1
56,58.35,61.81,1
57,58.32,61.77,1
55,58.25,61.70,1
54,58.17,61.62,1
54,58.08,61.55,1
55,58.02,61.48,1
55,57.96,61.42,1
54,57.88,61.34,1
54,57.81,61.27,1
55,57.75,61.21,1
55,57.69,61.14,1
54,57.62,61.07,1
54,57.55,61.00,1
54,57.48,60.93,1
55,57.43,60.87,1
54,57.36,60.80,1
54,57.29,60.74,1
55,57.25,60.68,1
54,57.18,60.61,1
53,57.10,60.53,1
54,57.04,60.47,1
54,56.97,60.40,1
54,56.92,60.34,1
54,56.86,60.28,1
54,56.80,60.21,1
55,56.76,60.16,1
54,56.71,60.10,1
54,56.65,60.04,1
56,56.64,60.00,1
53,56.57,59.93,1
54,56.52,59.87,1
54,56.47,59.81,1
54,56.42,59.75,1
54,56.37,59.70,1
54,56.32,59.64,1
52,56.24,59.56,1
54,56.19,59.51,1
54,56.15,59.45,1
54,56.10,59.40,1
54,56.06,59.34,1
54,56.02,59.29,1
53,55.96,59.23,1
52,55.88,59.15,1
53,55.82,59.09,1
54,55.79,59.04,1
53,55.73,58.98,1
54,55.70,58.93,1
53,55.64,58.87,1
54,55.61,58.82,1
53,55.56,58.77,1
52,55.49,58.70,1
53,55.44,58.64,1
53,55.39,58.58,1
57,55.42,58.57,1
55,55.41,58.53,1
53,55.36,58.48,1
53,55.32,58.42,1
54,55.29,58.38,1
53,55.24,58.32,1
54,55.22,58.28,1
53,55.17,58.23,1
54,55.15,58.19,1
52,55.09,58.12,1
54,55.07,58.08,1
52,55.01,58.02,1
54,54.99,57.98,1
56,55.01,57.96,1
52,54.95,57.90,1
52,54.89,57.84,1
54,54.87,57.81,1
53,54.83,57.76,1
52,54.77,57.70,1
52,54.72,57.64,1
53,54.68,57.60,1
53,54.65,57.55,1
52,54.60,57.49,1
52,54.55,57.44,1
52,54.50,57.39,1
53,54.47,57.34,1
52,54.42,57.29,1
53,54.39,57.25,1
53,54.36,57.20,1
53,54.33,57.16,1
53,54.31,57.12,1
52,54.26,57.07,1
52,54.21,57.02,1
53,54.19,56.98,1
53,54.17,56.94,1
52,54.12,56.89,1
53,54.10,56.85,1
54,54.10,56.82,1
52,54.06,56.77,1
52,54.02,56.72,1
52,53.98,56.68,1
52,53.94,56.63,1
51,53.88,56.57,1
52,53.84,56.53,1
53,53.82,56.49,1
53,53.81,56.46,1
52,53.77,56.41,1
52,53.73,56.37,1
53,53.72,56.34,1
53,53.71,56.30,1
54,53.71,56.28,1
53,53.70,56.25,1
54,53.70,56.22,1
54,53.71,56.20,1
54,53.72,56.18,1
52,53.68,56.14,1
52,53.65,56.10,1
52,53.61,56.06,1
52,53.58,56.02,1
54,53.59,56.00,1
54,53.60,55.98,1
53,53.59,55.95,1
54,53.59,55.93,1
52,53.56,55.89,1
53,53.55,55.86,1
54,53.56,55.84,1
54,53.57,55.82,1
52,53.54,55.78,1
54,53.55,55.77,1
54,53.56,55.75,1
54,53.57,55.73,1
52,53.53,55.69,1
53,53.52,55.67,1
52,53.49,55.63,1
52,53.46,55.59,1
52,53.43,55.56,1
53,53.43,55.53,1
54,53.44,55.52,1
54,53.45,55.50,1
54,53.46,55.49,1
52,53.43,55.45,1
54,53.44,55.44,1
54,53.45,55.42,1
54,53.46,55.41,1
55,53.49,55.40,1
54,53.50,55.39,1
54,53.51,55.38,1
54,53.52,55.36,1
53,53.51,55.34,1
54,53.52,55.33,1
54,53.53,55.31,1
52,53.50,55.28,1
52,53.47,55.25,1
52,53.44,55.21,1
52,53.41,55.18,1
54,53.43,55.17,1
55,53.46,55.17,1
54,53.47,55.16,1
56,53.52,55.16,1
54,53.53,55.15,1
54,53.54,55.14,1
54,53.55,55.13,1
54,53.56,55.12,1
54,53.56,55.11,1
54,53.57,55.10,1
53,53.56,55.08,1
54,53.57,55.06,1
54,53.58,55.05,1
53,53.57,55.03,1
53,53.56,55.01,1
54,53.57,55.00,1
53,53.55,54.98,1
54,53.56,54.97,1
53,53.55,54.95,1
52,53.52,54.92,1
57,53.59,54.94,1
53,53.58,54.93,1
53,53.57,54.91,1
53,53.56,54.89,1
53,53.54,54.87,1
54,53.55,54.86,1
53,53.54,54.84,1
52,53.51,54.81,1
55,53.54,54.81,1
53,53.53,54.80,1
53,53.52,54.78,1
53,53.51,54.76,1
54,53.52,54.75,1
55,53.55,54.76,1
56,53.60,54.77,1
56,53.65,54.78,1
55,53.67,54.78,1
52,53.64,54.75,1
56,53.69,54.77,1
57,53.75,54.79,1
56,53.80,54.80,1
57,53.86,54.82,1
58,53.94,54.86,1
56,53.99,54.87,1
54,53.99,54.86,1
55,54.01,54.86,1
55,54.03,54.86,1
56,54.07,54.87,1
54,54.06,54.86,1
56,54.10,54.87,1
57,54.16,54.90,1
56,54.20,54.91,1
56,54.23,54.92,1
56,54.27,54.93,1
56,54.30,54.94,1
56,54.34,54.95,1
56,54.37,54.96,1
55,54.38,54.96,1
56,54.42,54.97,1
58,54.49,55.00,1
58,54.56,55.03,1
57,54.61,55.05,1
56,54.63,55.06,1
56,54.66,55.07,1
58,54.73,55.10,1
57,54.77,55.12,1
59,54.86,55.16,1
56,54.88,55.17,1
56,54.90,55.17,1
58,54.97,55.20,1
56,54.99,55.21,1
57,55.03,55.23,1
58,55.09,55.26,1
57,55.12,55.27,1
58,55.18,55.30,1
56,55.20,55.31,1
56,55.21,55.31,1
57,55.25,55.33,1
58,55.31,55.36,1
56,55.32,55.36,1
56,55.33,55.37,1
57,55.37,55.39,1
57,55.40,55.40,1
58,55.45,55.43,1
57,55.48,55.45,1
57,55.51,55.46,1
58,55.56,55.49,1
56,55.57,55.49,1
58,55.62,55.52,1
57,55.65,55.53,1
56,55.65,55.54,1
56,55.66,55.54,1
58,55.71,55.56,1
57,55.73,55.58,1
56,55.74,55.58,1
56,55.74,55.59,1
58,55.79,55.61,1
56,55.79,55.62,1
56,55.80,55.62,1
56,55.80,55.62,1
58,55.85,55.65,1
58,55.89,55.67,1
56,55.89,55.67,1
56,55.89,55.68,1
56,55.90,55.68,1
57,55.92,55.69,1
58,55.96,55.72,1
57,55.98,55.73,1
56,55.98,55.73,1
56,55.98,55.73,1
56,55.98,55.74,1
61,56.08,55.79,1
56,56.08,55.79,1
56,56.08,55.79,1
60,56.16,55.84,1
56,56.15,55.84,1
56,56.15,55.84,1
55,56.13,55.83,1
56,56.12,55.83,1
56,56.12,55.83,1
56,56.12,55.84,1
56,56.12,55.84,1
56,56.12,55.84,1
57,56.13,55.85,1
55,56.11,55.84,1
55,56.09,55.83,1
57,56.11,55.85,1
55,56.08,55.84,1
56,56.08,55.84,1
57,56.10,55.85,1
56,56.10,55.85,1
56,56.10,55.85,1
58,56.13,55.88,1
58,56.17,55.90,1
56,56.17,55.90,1
58,56.21,55.92,1
55,56.18,55.91,1
56,56.18,55.91,1
56,56.17,55.91,1
56,56.17,55.91,1
56,56.17,55.91,1
57,56.18,55.92,1
56,56.18,55.92,1
58,56.22,55.95,1
56,56.21,55.95,1
57,56.23,55.96,1
57,56.24,55.97,1
55,56.22,55.96,1
56,56.21,55.96,1
55,56.19,55.95,1
55,56.17,55.94,1
55,56.14,55.93,1
54,56.10,55.91,1
57,56.12,55.92,1
54,56.08,55.90,1
54,56.03,55.88,1
54,55.99,55.86,1
54,55.95,55.85,1
55,55.93,55.84,1
51,55.84,55.79,1
54,55.80,55.77,1
55,55.78,55.76,1
56,55.79,55.76,1
54,55.75,55.75,1
54,55.72,55.73,1
56,55.72,55.73,1
55,55.71,55.73,1
56,55.71,55.73,1
54,55.68,55.71,1
55,55.67,55.70,1
55,55.65,55.70,1
54,55.62,55.68,1
56,55.63,55.68,1
55,55.61,55.68,1
55,55.60,55.67,1
54,55.57,55.65,1
54,55.54,55.64,1
54,55.51,55.62,1
56,55.52,55.62,1
54,55.49,55.61,1
55,55.48,55.60,1
56,55.49,55.61,1
54,55.46,55.59,1
54,55.43,55.57,1
55,55.42,55.57,1
55,55.41,55.56,1
53,55.36,55.54,1
54,55.34,55.52,1
54,55.31,55.51,1
53,55.26,55.48,1
54,55.24,55.47,1
54,55.21,55.45,1
56,55.23,55.46,1
55,55.22,55.45,1
56,55.24,55.46,1
55,55.24,55.45,1
54,55.21,55.44,1
55,55.21,55.43,1
56,55.22,55.44,1
56,55.24,55.45,1
54,55.21,55.43,1
54,55.19,55.42,1
55,55.19,55.41,1
56,55.20,55.42,1
56,55.22,55.42,1
57,55.25,55.44,1
58,55.31,55.47,1
56,55.32,55.47,1
58,55.38,55.50,1
58,55.43,55.52,1
56,55.44,55.53,1
57,55.47,55.54,1
55,55.46,55.54,1
57,55.49,55.55,1
55,55.48,55.54,1
56,55.49,55.55,1
56,55.50,55.55,1
56,55.51,55.56,1
56,55.52,55.56,1
56,55.53,55.57,1
55,55.52,55.56,1
54,55.49,55.55,1
56,55.50,55.55,1
56,55.51,55.55,1
58,55.56,55.58,1
58,55.61,55.60,1
56,55.62,55.61,1
57,55.65,55.62,1
56,55.65,55.62,1
58,55.70,55.65,1
61,55.81,55.70,1
58,55.85,55.73,1
58,55.89,55.75,1
56,55.89,55.75,1
56,55.90,55.75,1
57,55.92,55.77,1
58,55.96,55.79,1
58,56.00,55.81,1
57,56.02,55.82,1
57,56.04,55.83,1
56,56.04,55.84,1
57,56.06,55.85,1
58,56.10,55.87,1
56,56.10,55.87,1
56,56.09,55.87,1
57,56.11,55.88,1
56,56.11,55.88,1
56,56.11,55.88,1
56,56.11,55.89,1
60,56.18,55.93,1
63,56.32,56.00,1
60,56.39,56.04,1
58,56.43,56.06,1
58,56.46,56.08,1
64,56.61,56.16,1
64,56.76,56.23,1
62,56.86,56.29,1
62,56.96,56.35,1
66,57.14,56.45,1
62,57.24,56.50,1
60,57.30,56.54,1
58,57.31,56.55,1
60,57.36,56.59,1
62,57.46,56.64,1
62,57.55,56.69,1
60,57.60,56.73,1
60,57.64,56.76,1
60,57.69,56.79,1
60,57.74,56.82,1
60,57.78,56.86,1
60,57.83,56.89,1
59,57.85,56.91,1
60,57.89,56.94,1
62,57.98,56.99,1
57,57.96,56.99,1
64,58.08,57.06,1
62,58.16,57.11,1
61,58.21,57.15,1
61,58.27,57.19,1
62,58.34,57.23,1
64,58.46,57.30,1
61,58.51,57.34,1
60,58.54,57.37,1
62,58.61,57.41,1
62,58.67,57.46,1
61,58.72,57.49,1
62,58.79,57.54,1
60,58.81,57.56,1
60,58.83,57.59,1
61,58.88,57.62,1
62,58.94,57.67,1
60,58.96,57.69,1
60,58.98,57.71,1
61,59.02,57.74,1
60,59.04,57.77,1
62,59.10,57.81,1
62,59.16,57.85,1
61,59.20,57.88,1
64,59.29,57.94,1
62,59.35,57.98,1
60,59.36,58.00,1
60,59.37,58.02,1
63,59.44,58.07,1
61,59.48,58.10,1
64,59.57,58.16,1
61,59.59,58.19,1
63,59.66,58.24,1
64,59.75,58.30,1
61,59.77,58.32,1
62,59.82,58.36,1
64,59.90,58.42,1
64,59.98,58.47,1
61,60.01,58.50,1
61,60.03,58.52,1
64,60.10,58.58,1
64,60.18,58.63,1
61,60.20,58.66,1
61,60.21,58.68,1
63,60.27,58.72,1
62,60.31,58.76,1
64,60.38,58.81,1
62,60.41,58.84,1
63,60.46,58.88,1
62,60.49,58.91,1
61,60.50,58.93,1
62,60.53,58.96,1
61,60.54,58.98,1
62,60.57,59.01,1
62,60.60,59.04,1
62,60.63,59.07,1
62,60.66,59.10,1
63,60.70,59.14,1
62,60.73,59.17,1
64,60.79,59.22,1
63,60.84,59.26,1
61,60.84,59.27,1
66,60.95,59.34,1
65,61.03,59.40,1
63,61.07,59.43,1
62,61.08,59.46,1
64,61.14,59.51,1
65,61.22,59.56,1
65,61.30,59.61,1
65,61.37,59.67,1
64,61.42,59.71,1
63,61.45,59.74,1
64,61.50,59.79,1
65,61.57,59.84,1
64,61.62,59.88,1
64,61.67,59.92,1
65,61.74,59.97,1
65,61.80,60.02,1
64,61.85,60.06,1
63,61.87,60.09,1
67,61.97,60.16,1
64,62.01,60.20,1
64,62.05,60.24,1
65,62.11,60.29,1
66,62.19,60.34,1
66,62.27,60.40,1
66,62.34,60.46,1
66,62.41,60.51,1
66,62.48,60.57,1
64,62.52,60.60,1
64,62.54,60.63,1
65,62.59,60.68,1
65,62.64,60.72,1
64,62.67,60.75,1
65,62.72,60.80,1
65,62.76,60.84,1
64,62.79,60.87,1
64,62.81,60.90,1
64,62.83,60.93,1
69,62.96,61.01,1
67,63.04,61.07,1
64,63.06,61.10,1
66,63.12,61.15,1
68,63.21,61.22,1
68,63.31,61.29,1
66,63.36,61.33,1
66,63.42,61.38,1
63,63.41,61.40,1
65,63.44,61.43,1
65,63.47,61.47,1
66,63.52,61.51,1
67,63.59,61.57,1
64,63.60,61.59,1
66,63.65,61.64,1
72,63.81,61.74,1
64,63.82,61.76,1
70,63.94,61.85,1
70,64.06,61.93,1
68,64.14,61.99,1
69,64.24,62.06,1
70,64.35,62.14,1
66,64.39,62.18,1
69,64.48,62.24,1
73,64.65,62.35,1
72,64.80,62.45,1
72,64.94,62.54,1
72,65.08,62.64,1
73,65.24,62.74,1
72,65.38,62.83,1
73,65.53,62.94,1
76,65.74,63.07,1
76,65.94,63.20,1
74,66.10,63.30,1
73,66.24,63.40,1
73,66.38,63.50,1
78,66.61,63.64,1
84,66.96,63.85,1
82,67.26,64.03,1
76,67.43,64.15,1
74,67.56,64.25,1
74,67.69,64.34,1
74,67.82,64.44,1
74,67.94,64.54,1
75,68.08,64.64,1
80,68.32,64.79,1
76,68.48,64.91,1
77,68.65,65.03,1
84,68.95,65.22,1
87,69.31,65.43,1
94,69.81,65.72,1
84,70.09,65.90,1
86,70.41,66.10,1
93,70.86,66.37,1
96,71.36,66.67,1
95,71.84,66.95,1
95,72.30,67.23,1
88,72.61,67.44,1
89,72.94,67.66,1
92,73.32,67.90,1
94,73.74,68.16,1
96,74.18,68.44,1
94,74.58,68.69,1
88,74.85,68.89,1
89,75.13,69.09,1
96,75.55,69.36,1
95,75.94,69.61,1
90,76.22,69.82,1
91,76.51,70.03,1
90,76.78,70.23,1
91,77.07,70.44,1
90,77.33,70.63,1
90,77.58,70.83,1
90,77.83,71.02,1
90,78.07,71.21,1
90,78.31,71.40,1
89,78.52,71.57,1
95,78.85,71.81,1
92,79.12,72.01,1
94,79.41,72.23,1
98,79.79,72.49,1
97,80.13,72.73,1
94,80.41,72.94,1
102,80.84,73.23,1
97,81.16,73.47,1
94,81.42,73.68,1
96,81.71,73.90,1
98,82.04,74.14,1
94,82.28,74.34,1
94,82.51,74.54,1
95,82.76,74.74,1
96,83.02,74.95,1
96,83.28,75.16,1
94,83.50,75.35,1
95,83.73,75.55,1
100,84.05,75.79,1
95,84.27,75.99,1
95,84.49,76.18,1
96,84.72,76.37,1
97,84.96,76.58,1
95,85.16,76.76,1
95,85.36,76.95,1
94,85.53,77.12,1
95,85.72,77.30,1
99,85.99,77.51,1
95,86.17,77.69,1
95,86.35,77.86,1
100,86.62,78.08,1
96,86.81,78.26,1
102,87.11,78.50,1
97,87.31,78.68,1
100,87.56,78.90,1
96,87.73,79.07,1
96,87.90,79.24,1
104,88.22,79.49,1
98,88.41,79.67,1
102,88.69,79.89,1
103,88.97,80.12,1
104,89.27,80.36,1
104,89.57,80.60,1
100,89.78,80.79,1
105,90.08,81.04,1
105,90.38,81.28,1
101,90.59,81.47,1
108,90.94,81.74,1
105,91.22,81.97,1
107,91.54,82.22,1
108,91.87,82.48,1
103,92.09,82.68,1
103,92.31,82.89,1
106,92.58,83.12,1
107,92.87,83.36,1
103,93.07,83.55,1
103,93.27,83.75,1
107,93.54,83.98,1
108,93.83,84.22,1
105,94.06,84.43,1
114,94.46,84.72,1
115,94.87,85.03,1
111,95.19,85.29,1
107,95.43,85.50,1
108,95.68,85.73,1
109,95.94,85.96,1
113,96.28,86.23,1
119,96.74,86.56,1
123,97.26,86.92,1
113,97.58,87.18,1
113,97.89,87.44,1
117,98.27,87.74,1
115,98.60,88.01,1
112,98.87,88.25,1
111,99.11,88.48,1
112,99.37,88.71,1
113,99.64,88.96,1
115,99.95,89.22,1
115,100.25,89.47,1
115,100.55,89.73,1
113,100.80,89.96,1
114,101.06,90.20,1
114,101.32,90.44,1
119,101.67,90.73,1
118,102.00,91.00,1
116,102.28,91.25,1
114,102.51,91.48,1
116,102.78,91.72,1
117,103.07,91.98,1
116,103.33,92.22,1
115,103.56,92.44,1
114,103.77,92.66,1
114,103.97,92.87,1
114,104.17,93.08,1
114,104.37,93.29,1
114,104.56,93.50,1
114,104.75,93.70,1
120,105.06,93.97,1
118,105.32,94.21,1
113,105.47,94.40,1
116,105.68,94.61,1
116,105.89,94.83,1
116,106.09,95.04,1
115,106.27,95.24,1
116,106.46,95.44,1
114,106.61,95.63,1
120,106.88,95.87,1
116,107.06,96.08,1
114,107.20,96.25,1
114,107.34,96.43,1
114,107.47,96.61,1
118,107.68,96.82,1
114,107.81,96.99,1
113,107.91,97.15,1
111,107.97,97.29,1
113,108.07,97.45,1
114,108.19,97.61,1
114,108.31,97.78,1
115,108.44,97.95,1
114,108.55,98.11,1
112,108.62,98.25,1
113,108.71,98.40,1
111,108.76,98.52,1
112,108.82,98.66,1
115,108.94,98.82,1
114,109.05,98.97,1
112,109.10,99.10,1
111,109.14,99.22,1
111,109.18,99.34,1
115,109.30,99.50,1
116,109.43,99.66,1
115,109.54,99.82,1
114,109.63,99.96,1
112,109.68,100.08,1
114,109.76,100.22,1
114,109.85,100.35,1
114,109.93,100.49,1
114,110.01,100.63,1
113,110.07,100.75,1
113,110.13,100.87,1
113,110.19,100.99,1
113,110.25,101.11,1
114,110.32,101.24,1
112,110.35,101.35,1
113,110.41,101.47,1
116,110.52,101.61,1
113,110.57,101.73,1
113,110.62,101.84,1
111,110.62,101.93,1
114,110.69,102.05,1
113,110.74,102.16,1
112,110.76,102.26,1
111,110.77,102.35,1
112,110.79,102.44,1
111,110.80,102.53,1
111,110.80,102.61,1
112,110.83,102.71,1
111,110.83,102.79,1
111,110.83,102.87,1
111,110.84,102.95,1
111,110.84,103.03,1
111,110.84,103.11,1
111,110.85,103.19,1
111,110.85,103.27,1
109,110.81,103.33,1
110,110.80,103.39,1
109,110.76,103.45,1
109,110.72,103.51,1
109,110.69,103.56,1
110,110.68,103.63,1
110,110.66,103.69,1
109,110.63,103.74,1
111,110.64,103.81,1
109,110.60,103.87,1
109,110.57,103.92,1
109,110.54,103.97,1
111,110.55,104.04,1
109,110.52,104.09,1
109,110.49,104.14,1
109,110.46,104.19,1
115,110.55,104.29,1
114,110.62,104.39,1
109,110.59,104.44,1
111,110.59,104.50,1
111,110.60,104.57,1
110,110.59,104.62,1
109,110.56,104.67,1
110,110.55,104.72,1
109,110.52,104.76,1
109,110.49,104.80,1
109,110.46,104.85,1
109,110.43,104.89,1
108,110.38,104.92,1
108,110.33,104.95,1
109,110.30,104.99,1
107,110.24,105.01,1
109,110.21,105.05,1
108,110.17,105.08,1
108,110.13,105.11,1
108,110.08,105.14,1
107,110.02,105.16,1
108,109.98,105.19,1
108,109.94,105.21,1
107,109.88,105.23,1
107,109.83,105.25,1
107,109.77,105.27,1
105,109.67,105.26,1
106,109.60,105.27,1
106,109.53,105.28,1
106,109.46,105.29,1
105,109.37,105.28,1
105,109.28,105.28,1
108,109.26,105.31,1
106,109.19,105.31,1
105,109.11,105.31,1
105,109.02,105.31,1
105,108.94,105.31,1
105,108.86,105.30,1
104,108.77,105.29,1
105,108.69,105.29,1
104,108.60,105.27,1
105,108.53,105.27,1
104,108.44,105.26,1
103,108.33,105.24,1
104,108.24,105.22,1
103,108.14,105.20,1
103,108.03,105.18,1
103,107.93,105.16,1
103,107.83,105.14,1
103,107.74,105.11,1
102,107.62,105.08,1
101,107.49,105.04,1
101,107.36,105.00,1
102,107.25,104.97,1
102,107.15,104.94,1
101,107.02,104.90,1
101,106.90,104.86,1
101,106.79,104.82,1
101,106.67,104.79,1
99,106.52,104.73,1
102,106.43,104.70,1
100,106.30,104.65,1
100,106.17,104.61,1
99,106.03,104.55,1
100,105.91,104.51,1
100,105.79,104.46,1
100,105.67,104.42,1
101,105.58,104.38,1
99,105.45,104.33,1
99,105.32,104.28,1
99,105.19,104.22,1
100,105.09,104.18,1
99,104.97,104.13,1
99,104.85,104.08,1
99,104.73,104.03,1
100,104.64,103.99,1
99,104.52,103.94,1
99,104.41,103.89,1
99,104.31,103.84,1
101,104.24,103.81,1
99,104.13,103.76,1
99,104.03,103.71,1
99,103.93,103.67,1
98,103.81,103.61,1
98,103.70,103.55,1
98,103.58,103.50,1
97,103.45,103.43,1
97,103.32,103.37,1
98,103.22,103.32,1
98,103.11,103.26,1
97,102.99,103.20,1
98,102.89,103.15,1
97,102.77,103.09,1
97,102.66,103.03,1
96,102.52,102.96,1
97,102.41,102.90,1
98,102.32,102.85,1
96,102.20,102.78,1
96,102.07,102.71,1
96,101.95,102.64,1
96,101.83,102.58,1
96,101.72,102.51,1
96,101.60,102.45,1
96,101.49,102.38,1
95,101.36,102.31,1
96,101.25,102.24,1
95,101.13,102.17,1
94,100.99,102.09,1
95,100.87,102.02,1
95,100.75,101.95,1
95,100.63,101.88,1
95,100.52,101.81,1
94,100.39,101.73,1
94,100.26,101.66,1
96,100.18,101.60,1
94,100.05,101.52,1
95,99.95,101.46,1
94,99.83,101.38,1
95,99.74,101.32,1
96,99.66,101.27,1
93,99.53,101.18,1
95,99.44,101.12,1
93,99.31,101.04,1
93,99.18,100.96,1
94,99.08,100.89,1
95,99.00,100.83,1
92,98.86,100.74,1
93,98.74,100.67,1
93,98.63,100.59,1
93,98.51,100.51,1
91,98.36,100.42,1
93,98.26,100.34,1
92,98.13,100.26,1
92,98.01,100.18,1
93,97.91,100.11,1
92,97.79,100.03,1
92,97.67,99.94,1
91,97.54,99.86,1
92,97.43,99.78,1
92,97.32,99.70,1
92,97.22,99.62,1
91,97.09,99.54,1
90,96.95,99.44,1
92,96.85,99.37,1
90,96.71,99.27,1
92,96.62,99.20,1
90,96.49,99.11,1
90,96.36,99.02,1
90,96.23,98.93,1
90,96.10,98.84,1
96,96.10,98.81,1
90,95.98,98.72,1
89,95.84,98.62,1
90,95.72,98.54,1
90,95.61,98.45,1
90,95.50,98.37,1
90,95.39,98.28,1
88,95.24,98.18,1
87,95.08,98.07,1
89,94.95,97.98,1
88,94.81,97.88,1
90,94.72,97.80,1
89,94.60,97.71,1
88,94.47,97.61,1
88,94.34,97.52,1
88,94.22,97.42,1
87,94.07,97.32,1
89,93.97,97.24,1
90,93.89,97.16,1
88,93.77,97.07,1
88,93.66,96.98,1
88,93.54,96.89,1
88,93.43,96.80,1
88,93.32,96.71,1
88,93.22,96.63,1
87,93.09,96.53,1
87,92.97,96.44,1
87,92.85,96.34,1
88,92.76,96.26,1
87,92.64,96.17,1
87,92.53,96.07,1
87,92.42,95.98,1
86,92.29,95.88,1
86,92.16,95.78,1
86,92.04,95.69,1
87,91.94,95.60,1
88,91.86,95.52,1
86,91.74,95.43,1
88,91.67,95.35,1
87,91.57,95.27,1
86,91.46,95.18,1
86,91.35,95.09,1
86,91.25,95.00,1
86,91.14,94.91,1
86,91.04,94.82,1
86,90.94,94.73,1
86,90.84,94.64,1
85,90.72,94.54,1
86,90.63,94.46,1
86,90.54,94.37,1
86,90.44,94.29,1
85,90.34,94.20,1
85,90.23,94.11,1
84,90.10,94.00,1
86,90.02,93.92,1
85,89.92,93.84,1
84,89.80,93.74,1
84,89.69,93.64,1
84,89.57,93.54,1
83,89.44,93.44,1
84,89.33,93.34,1
84,89.23,93.25,1
84,89.12,93.16,1
84,89.02,93.07,1
83,88.90,92.97,1
82,88.76,92.86,1
85,88.69,92.78,1
88,88.67,92.73,1
87,88.64,92.67,1
84,88.55,92.59,1
84,88.46,92.50,1
83,88.35,92.40,1
84,88.26,92.32,1
84,88.17,92.24,1
85,88.11,92.16,1
83,88.01,92.07,1
82,87.89,91.97,1
84,87.81,91.89,1
82,87.69,91.79,1
82,87.58,91.70,1
82,87.47,91.60,1
82,87.36,91.50,1
82,87.25,91.41,1
84,87.19,91.33,1
82,87.08,91.24,1
83,87.00,91.16,1
82,86.90,91.07,1
83,86.82,90.99,1
84,86.77,90.92,1
84,86.71,90.85,1
82,86.62,90.76,1
82,86.53,90.67,1
82,86.43,90.58,1
84,86.39,90.52,1
81,86.28,90.42,1
82,86.19,90.34,1
82,86.11,90.26,1
82,86.03,90.17,1
82,85.95,90.09,1
82,85.87,90.01,1
82,85.79,89.93,1
80,85.67,89.83,1
82,85.60,89.75,1
82,85.53,89.67,1
84,85.50,89.62,1
82,85.43,89.54,1
80,85.32,89.45,1
81,85.23,89.36,1
81,85.15,89.28,1
80,85.05,89.19,1
81,84.96,89.10,1
82,84.91,89.03,1
81,84.83,88.95,1
80,84.73,88.86,1
80,84.64,88.77,1
84,84.62,88.73,1
79,84.51,88.63,1
80,84.42,88.54,1
81,84.35,88.47,1
81,84.29,88.39,1
83,84.26,88.34,1
82,84.21,88.28,1
81,84.15,88.20,1
80,84.07,88.12,1
82,84.03,88.06,1
82,83.99,88.00,1
82,83.95,87.94,1
81,83.89,87.87,1
81,83.83,87.80,1
80,83.75,87.72,1
80,83.68,87.65,1
81,83.62,87.58,1
81,83.57,87.51,1
80,83.50,87.44,1
80,83.43,87.36,1
81,83.38,87.30,1
80,83.31,87.23,1
80,83.25,87.16,1
78,83.14,87.06,1
80,83.08,86.99,1
80,83.02,86.92,1
80,82.96,86.85,1
78,82.86,86.77,1
81,82.82,86.71,1
81,82.78,86.65,1
80,82.73,86.58,1
80,82.67,86.52,1
81,82.64,86.46,1
80,82.59,86.40,1
80,82.54,86.33,1
78,82.45,86.25,1
79,82.38,86.18,1
80,82.33,86.12,1
80,82.28,86.06,1
80,82.24,86.00,1
81,82.21,85.95,1
81,82.19,85.90,1
80,82.14,85.84,1
79,82.08,85.77,1
80,82.04,85.71,1
80,82.00,85.65,1
78,81.92,85.58,1
81,81.90,85.53,1
79,81.84,85.47,1
79,81.79,85.40,1
78,81.71,85.33,1
78,81.64,85.25,1
79,81.58,85.19,1
79,81.53,85.13,1
78,81.46,85.06,1
79,81.41,85.00,1
79,81.36,84.94,1
78,81.30,84.87,1
78,81.23,84.80,1
78,81.17,84.73,1
78,81.10,84.66,1
78,81.04,84.60,1
78,80.98,84.53,1
78,80.92,84.47,1
78,80.86,84.40,1
78,80.80,84.34,1
79,80.77,84.28,1
76,80.67,84.20,1
78,80.62,84.14,1
78,80.57,84.08,1
78,80.52,84.02,1
78,80.47,83.96,1
77,80.40,83.89,1
76,80.31,83.81,1
77,80.24,83.74,1
77,80.18,83.67,1
76,80.09,83.60,1
78,80.05,83.54,1
76,79.97,83.47,1
77,79.91,83.40,1
77,79.85,83.34,1
76,79.78,83.26,1
76,79.70,83.19,1
75,79.61,83.11,1
76,79.53,83.04,1
79,79.52,83.00,1
74,79.41,82.91,1
76,79.34,82.84,1
76,79.28,82.77,1
77,79.23,82.71,1
76,79.17,82.64,1
77,79.12,82.59,1
78,79.10,82.54,1
76,79.04,82.48,1
76,78.98,82.41,1
77,78.94,82.36,1
78,78.92,82.31,1
76,78.86,82.25,1
76,78.81,82.19,1
76,78.75,82.13,1
76,78.69,82.07,1
76,78.64,82.01,1
76,78.59,81.95,1
76,78.54,81.89,1
77,78.50,81.84,1
76,78.45,81.78,1
76,78.41,81.72,1
76,78.36,81.66,1
77,78.33,81.62,1
76,78.28,81.56,1
74,78.20,81.49,1
75,78.13,81.42,1
76,78.09,81.37,1
77,78.07,81.32,1
76,78.03,81.27,1
76,77.99,81.22,1
77,77.97,81.17,1
75,77.91,81.11,1
76,77.87,81.06,1
74,77.79,80.99,1
73,77.70,80.91,1
75,77.64,80.85,1
74,77.57,80.78,1
77,77.56,80.75,1
73,77.47,80.67,1
74,77.40,80.60,1
74,77.33,80.54,1
74,77.26,80.47,1
74,77.20,80.41,1
74,77.13,80.34,1
74,77.07,80.28,1
72,76.97,80.19,1
73,76.89,80.12,1
74,76.83,80.06,1
74,76.78,80.00,1
72,76.68,79.92,1
74,76.63,79.86,1
73,76.55,79.79,1
72,76.46,79.72,1
74,76.41,79.66,1
73,76.35,79.59,1
73,76.28,79.53,1
72,76.19,79.45,1
72,76.11,79.38,1
74,76.07,79.32,1
75,76.05,79.28,1
74,76.01,79.23,1
73,75.95,79.16,1
73,75.89,79.10,1
74,75.85,79.05,1
74,75.81,79.00,1
74,75.78,78.95,1
75,75.76,78.91,1
73,75.70,78.85,1
72,75.63,78.78,1
74,75.60,78.74,1
72,75.53,78.67,1
72,75.46,78.60,1
72,75.39,78.54,1
74,75.36,78.49,1
73,75.31,78.44,1
72,75.25,78.37,1
74,75.22,78.33,1
74,75.20,78.28,1
72,75.13,78.22,1
72,75.07,78.16,1
72,75.01,78.10,1
72,74.95,78.04,1
73,74.91,77.99,1
73,74.87,77.94,1
72,74.81,77.88,1
72,74.76,77.82,1
72,74.70,77.76,1
72,74.65,77.70,1
72,74.59,77.65,1
72,74.54,77.59,1
72,74.49,77.53,1
72,74.44,77.48,1
72,74.39,77.42,1
72,74.35,77.37,1
72,74.30,77.32,1
71,74.23,77.25,1
72,74.19,77.20,1
72,74.14,77.15,1
71,74.08,77.09,1
72,74.04,77.04,1
72,74.00,76.98,1
71,73.94,76.92,1
71,73.88,76.87,1
71,73.82,76.81,1
72,73.79,76.76,1
71,73.73,76.70,1
73,73.72,76.66,1
72,73.68,76.62,1
71,73.63,76.56,1
70,73.56,76.50,1
70,73.48,76.43,1
72,73.45,76.39,1
70,73.39,76.32,1
70,73.32,76.26,1
73,73.31,76.23,1
70,73.25,76.16,1
70,73.18,76.10,1
70,73.12,76.04,1
71,73.07,75.99,1
69,72.99,75.92,1
69,72.91,75.85,1
70,72.85,75.79,1
69,72.78,75.73,1
70,72.72,75.67,1
70,72.67,75.61,1
70,72.61,75.56,1
69,72.54,75.49,1
70,72.49,75.44,1
68,72.40,75.36,1
68,72.31,75.29,1
69,72.25,75.22,1
72,72.24,75.19,1
68,72.16,75.12,1
69,72.09,75.06,1
68,72.01,74.99,1
68,71.93,74.92,1
69,71.87,74.86,1
68,71.80,74.79,1
69,71.74,74.73,1
68,71.67,74.67,1
68,71.59,74.60,1
70,71.56,74.55,1
70,71.53,74.51,1
69,71.48,74.45,1
72,71.49,74.43,1
68,71.42,74.36,1
69,71.37,74.31,1
71,71.36,74.28,1
70,71.34,74.23,1
68,71.27,74.17,1
68,71.20,74.11,1
69,71.16,74.06,1
70,71.14,74.02,1
68,71.07,73.96,1
68,71.01,73.90,1
67,70.93,73.83,1
68,70.87,73.77,1
68,70.82,73.71,1
69,70.78,73.67,1
68,70.72,73.61,1
66,70.63,73.53,1
68,70.58,73.48,1
69,70.55,73.43,1
68,70.49,73.38,1
68,70.44,73.33,1
70,70.44,73.29,1
67,70.37,73.23,1
68,70.32,73.18,1
68,70.27,73.13,1
70,70.27,73.09,1
67,70.20,73.03,1
68,70.16,72.98,1
68,70.12,72.93,1
68,70.07,72.88,1
68,70.03,72.83,1
67,69.97,72.78,1
66,69.89,72.71,1
68,69.85,72.66,1
66,69.78,72.59,1
66,69.70,72.53,1
66,69.63,72.46,1
68,69.59,72.42,1
67,69.54,72.36,1
66,69.47,72.30,1
66,69.40,72.24,1
67,69.35,72.19,1
66,69.29,72.12,1
67,69.24,72.07,1
68,69.22,72.03,1
68,69.19,71.99,1
66,69.13,71.93,1
66,69.07,71.87,1
66,69.00,71.81,1
66,68.94,71.76,1
66,68.89,71.70,1
66,68.83,71.64,1
66,68.77,71.58,1
66,68.72,71.53,1
67,68.68,71.48,1
66,68.63,71.43,1
66,68.58,71.37,1
66,68.52,71.32,1
68,68.51,71.29,1
66,68.46,71.23,1
66,68.41,71.18,1
67,68.39,71.14,1
67,68.36,71.10,1
69,68.37,71.08,1
65,68.30,71.02,1
66,68.26,70.97,1
66,68.21,70.92,1
66,68.17,70.87,1
65,68.10,70.81,1
66,68.06,70.76,1
68,68.06,70.73,1
65,68.00,70.68,1
65,67.94,70.62,1
65,67.88,70.56,1
65,67.82,70.51,1
66,67.79,70.46,1
65,67.73,70.41,1
64,67.66,70.34,1
65,67.60,70.29,1
68,67.61,70.27,1
64,67.54,70.21,1
66,67.51,70.16,1
65,67.46,70.11,1
65,67.41,70.06,1
66,67.38,70.02,1
64,67.31,69.96,1
64,67.25,69.90,1
65,67.20,69.85,1
64,67.14,69.79,1
64,67.08,69.73,1
65,67.03,69.69,1
64,66.97,69.63,1
64,66.91,69.57,1
64,66.86,69.52,1
65,66.82,69.47,1
64,66.76,69.42,1
64,66.71,69.36,1
66,66.69,69.33,1
65,66.66,69.29,1
66,66.65,69.25,1
64,66.59,69.20,1
64,66.54,69.15,1
64,66.49,69.10,1
65,66.46,69.06,1
66,66.45,69.03,1
66,66.44,69.00,1
67,66.45,68.98,1
64,66.40,68.93,1
64,66.36,68.88,1
64,66.31,68.83,1
65,66.28,68.79,1
66,66.28,68.76,1
64,66.23,68.71,1
66,66.23,68.69,1
65,66.20,68.65,1
66,66.20,68.62,1
64,66.15,68.58,1
64,66.11,68.53,1
64,66.07,68.49,1
65,66.05,68.45,1
66,66.05,68.43,1
66,66.05,68.40,1
66,66.04,68.38,1
63,65.98,68.33,1
64,65.94,68.28,1
66,65.95,68.26,1
66,65.95,68.24,1
66,65.95,68.21,1
64,65.91,68.17,1
64,65.87,68.13,1
65,65.85,68.10,1
64,65.82,68.06,1
66,65.82,68.04,1
64,65.78,68.00,1
65,65.77,67.97,1
64,65.73,67.93,1
64,65.70,67.89,1
64,65.66,67.85,1
64,65.63,67.81,1
62,65.56,67.75,1
65,65.55,67.73,1
65,65.54,67.70,1
64,65.50,67.66,1
64,65.47,67.62,1
64,65.45,67.59,1
64,65.42,67.55,1
64,65.39,67.52,1
64,65.36,67.48,1
64,65.33,67.45,1
64,65.31,67.41,1
64,65.28,67.38,1
63,65.23,67.33,1
64,65.21,67.30,1
64,65.19,67.27,1
64,65.16,67.24,1
63,65.12,67.19,1
62,65.06,67.14,1
63,65.02,67.10,1
63,64.98,67.06,1
62,64.92,67.01,1
62,64.86,66.96,1
62,64.80,66.91,1
66,64.82,66.90,1
64,64.81,66.87,1
62,64.75,66.82,1
62,64.70,66.77,1
62,64.64,66.73,1
61,64.57,66.67,1
62,64.52,66.62,1
62,64.47,66.58,1
62,64.42,66.53,1
61,64.35,66.47,1
62,64.30,66.43,1
63,64.28,66.40,1
64,64.27,66.37,1
62,64.23,66.33,1
62,64.18,66.28,1
63,64.16,66.25,1
63,64.13,66.22,1
65,64.15,66.21,1
64,64.15,66.19,1
64,64.15,66.16,1
63,64.12,66.13,1
63,64.10,66.10,1
64,64.10,66.08,1
64,64.10,66.06,1
63,64.07,66.03,1
62,64.03,65.99,1
64,64.03,65.97,1
64,64.03,65.95,1
63,64.01,65.92,1
64,64.01,65.90,1
64,64.01,65.88,1
62,63.97,65.84,1
64,63.97,65.82,1
63,63.95,65.79,1
62,63.91,65.76,1
64,63.91,65.74,1
64,63.92,65.72,1
63,63.90,65.69,1
62,63.86,65.66,1
64,63.86,65.64,1
64,63.87,65.62,1
63,63.85,65.60,1
64,63.85,65.58,1
62,63.81,65.55,1
63,63.80,65.52,1
62,63.76,65.49,1
62,63.73,65.45,1
62,63.69,65.42,1
64,63.70,65.40,1
63,63.68,65.38,1
62,63.65,65.34,1
62,63.62,65.31,1
63,63.61,65.29,1
62,63.57,65.26,1
62,63.54,65.22,1
62,63.51,65.19,1
63,63.50,65.17,1
63,63.49,65.15,1
62,63.46,65.12,1
63,63.45,65.09,1
64,63.46,65.08,1
64,63.47,65.07,1
62,63.44,65.04,1
64,63.46,65.03,1
64,63.47,65.02,1
64,63.48,65.01,1
62,63.45,64.98,1
64,63.46,64.97,1
64,63.47,64.96,1
63,63.46,64.94,1
64,63.47,64.93,1
63,63.46,64.91,1
62,63.43,64.88,1
63,63.42,64.86,1
62,63.39,64.84,1
64,63.41,64.83,1
62,63.38,64.80,1
62,63.35,64.77,1
62,63.32,64.74,1
63,63.32,64.73,1
63,63.31,64.71,1
62,63.29,64.68,1
62,63.26,64.66,1
61,63.21,64.62,1
59,63.13,64.56,1
64,63.15,64.56,1
62,63.12,64.53,1
62,63.10,64.51,1
62,63.08,64.48,1
62,63.06,64.46,1
62,63.04,64.43,1
61,63.00,64.40,1
62,62.98,64.37,1
60,62.92,64.33,1
62,62.90,64.31,1
63,62.90,64.29,1
64,62.92,64.29,1
63,62.92,64.28,1
62,62.91,64.25,1
62,62.89,64.23,1
62,62.87,64.21,1
63,62.87,64.20,1
64,62.89,64.20,1
64,62.92,64.19,1
62,62.90,64.17,1
61,62.86,64.14,1
62,62.84,64.12,1
61,62.81,64.09,1
63,62.81,64.08,1
61,62.77,64.05,1
61,62.74,64.02,1
64,62.76,64.02,1
63,62.77,64.01,1
62,62.75,63.99,1
62,62.74,63.97,1
62,62.72,63.95,1
61,62.69,63.92,1
62,62.68,63.90,1
62,62.66,63.88,1
62,62.65,63.86,1
64,62.68,63.86,1
62,62.66,63.84,1
62,62.65,63.82,1
62,62.64,63.81,1
63,62.64,63.80,1
61,62.61,63.77,1
62,62.60,63.75,1
62,62.59,63.73,1
61,62.55,63.71,1
61,62.52,63.68,1
62,62.51,63.66,1
62,62.50,63.65,1
64,62.53,63.65,1
64,62.56,63.65,1
62,62.55,63.64,1
64,62.58,63.64,1
65,62.63,63.65,1
64,62.66,63.66,1
64,62.68,63.66,1
62,62.67,63.64,1
64,62.70,63.65,1
64,62.72,63.65,1
62,62.71,63.63,1
62,62.69,63.62,1
64,62.72,63.62,1
64,62.74,63.63,1
64,62.77,63.63,1
62,62.75,63.61,1
64,62.78,63.62,1
63,62.78,63.61,1
64,62.81,63.62,1
64,62.83,63.62,1
63,62.84,63.61,1
64,62.86,63.62,1
63,62.86,63.61,1
63,62.86,63.60,1
63,62.87,63.60,1
64,62.89,63.60,1
61,62.85,63.58,1
62,62.83,63.56,1
62,62.82,63.54,1
63,62.82,63.54,1
62,62.81,63.52,1
64,62.83,63.53,1
63,62.83,63.52,1
63,62.84,63.52,1
62,62.82,63.50,1
64,62.84,63.51,1
64,62.87,63.51,1
62,62.85,63.50,1
62,62.83,63.48,1
64,62.86,63.49,1
66,62.92,63.51,1
64,62.94,63.52,1
62,62.92,63.50,1
64,62.94,63.51,1
63,62.94,63.50,1
64,62.96,63.51,1
64,62.99,63.51,1
65,63.03,63.53,1
64,63.05,63.53,1
64,63.06,63.54,1
64,63.08,63.54,1
68,63.18,63.59,1
62,63.16,63.57,1
64,63.17,63.57,1
64,63.19,63.58,1
65,63.23,63.59,1
66,63.28,63.62,1
68,63.38,63.66,1
68,63.47,63.70,1
63,63.46,63.70,1
66,63.51,63.72,1
70,63.64,63.78,1
68,63.73,63.83,1
65,63.75,63.84,1
66,63.80,63.86,1
64,63.80,63.86,1
64,63.81,63.86,1
65,63.83,63.87,1
66,63.87,63.89,1
65,63.90,63.91,1
64,63.90,63.91,1
64,63.90,63.91,1
66,63.94,63.93,1
65,63.96,63.94,1
64,63.96,63.94,1
64,63.96,63.94,1
64,63.97,63.94,1
65,63.99,63.95,1
66,64.03,63.97,1
66,64.07,63.99,1
65,64.08,64.00,1
68,64.16,64.04,1
64,64.16,64.04,1
65,64.18,64.05,1
67,64.23,64.08,1
64,64.23,64.08,1
66,64.26,64.10,1
66,64.30,64.12,1
65,64.31,64.13,1
65,64.33,64.14,1
65,64.34,64.14,1
64,64.33,64.14,1
66,64.37,64.16,1
65,64.38,64.17,1
66,64.41,64.19,1
66,64.44,64.21,1
67,64.49,64.23,1
67,64.54,64.26,1
66,64.57,64.28,1
66,64.60,64.30,1
67,64.65,64.32,1
66,64.68,64.34,1
66,64.70,64.36,1
66,64.73,64.37,1
65,64.73,64.38,1
66,64.76,64.40,1
66,64.78,64.41,1
66,64.81,64.43,1
66,64.83,64.44,1
65,64.84,64.45,1
66,64.86,64.46,1
65,64.86,64.47,1
65,64.87,64.48,1
65,64.87,64.48,1
64,64.85,64.48,1
64,64.83,64.47,1
67,64.88,64.50,1
66,64.90,64.51,1
66,64.92,64.53,1
64,64.90,64.52,1
65,64.90,64.53,1
64,64.89,64.52,1
66,64.91,64.54,1
66,64.93,64.55,1
65,64.93,64.55,1
66,64.95,64.57,1
63,64.91,64.55,1
64,64.90,64.55,1
65,64.90,64.55,1
64,64.88,64.55,1
64,64.86,64.54,1
68,64.93,64.58,1
65,64.93,64.58,1
68,64.99,64.61,1
68,65.05,64.65,1
66,65.07,64.66,1
66,65.09,64.67,1
66,65.10,64.69,1
66,65.12,64.70,1
66,65.14,64.71,1
66,65.16,64.73,1
66,65.17,64.74,1
64,65.15,64.73,1
66,65.17,64.75,1
65,65.16,64.75,1
66,65.18,64.76,1
69,65.26,64.80,1
68,65.31,64.83,1
69,65.39,64.88,1
70,65.48,64.93,1
68,65.53,64.96,1
71,65.64,65.02,1
71,65.75,65.08,1
70,65.83,65.13,1
66,65.83,65.14,1
70,65.92,65.19,1
70,66.00,65.23,1
74,66.16,65.32,1
70,66.24,65.37,1
68,66.27,65.39,1
71,66.37,65.45,1
76,66.56,65.56,1
78,66.79,65.68,1
74,66.93,65.76,1
72,67.03,65.83,1
73,67.15,65.90,1
75,67.31,65.99,1
75,67.46,66.08,1
75,67.61,66.17,1
76,67.78,66.27,1
76,67.95,66.36,1
73,68.05,66.43,1
76,68.21,66.53,1
77,68.38,66.63,1
76,68.53,66.72,1
75,68.66,66.81,1
78,68.85,66.92,1
74,68.95,66.99,1
76,69.09,67.08,1
76,69.23,67.17,1
74,69.33,67.24,1
76,69.46,67.32,1
72,69.51,67.37,1
76,69.64,67.46,1
77,69.79,67.55,1
76,69.91,67.64,1
74,69.99,67.70,1
76,70.11,67.78,1
79,70.29,67.90,1
77,70.43,67.99,1
75,70.52,68.06,1
74,70.59,68.12,1
77,70.72,68.21,1
77,70.84,68.29,1
76,70.94,68.37,1
74,71.01,68.43,1
76,71.11,68.50,1
76,71.20,68.58,1
75,71.28,68.64,1
74,71.33,68.70,1
77,71.45,68.78,1
76,71.54,68.85,1
75,71.61,68.91,1
74,71.66,68.96,1
76,71.74,69.03,1
76,71.83,69.10,1
74,71.87,69.15,1
76,71.95,69.22,1
77,72.05,69.30,1
80,72.21,69.41,1
80,72.37,69.51,1
76,72.44,69.58,1
81,72.61,69.69,1
83,72.82,69.82,1
82,73.00,69.95,1
78,73.10,70.03,1
82,73.28,70.15,1
78,73.38,70.22,1
78,73.47,70.30,1
79,73.58,70.39,1
82,73.75,70.51,1
82,73.91,70.62,1
78,73.99,70.69,1
82,74.15,70.81,1
81,74.29,70.91,1
81,74.43,71.01,1
80,74.54,71.10,1
84,74.73,71.23,1
83,74.89,71.35,1
80,74.99,71.43,1
82,75.13,71.54,1
79,75.21,71.61,1
81,75.33,71.71,1
84,75.50,71.83,1
82,75.63,71.93,1
84,75.80,72.05,1
85,75.98,72.18,1
82,76.10,72.28,1
82,76.22,72.38,1
82,76.34,72.47,1
82,76.45,72.57,1
82,76.56,72.66,1
84,76.71,72.78,1
84,76.86,72.89,1
82,76.96,72.98,1
82,77.06,73.07,1
86,77.24,73.20,1
84,77.37,73.31,1
82,77.47,73.39,1
82,77.56,73.48,1
86,77.73,73.61,1
89,77.95,73.76,1
89,78.17,73.91,1
88,78.37,74.05,1
88,78.56,74.19,1
88,78.75,74.33,1
86,78.89,74.45,1
88,79.08,74.58,1
94,79.38,74.78,1
91,79.61,74.94,1
92,79.86,75.11,1
94,80.14,75.30,1
92,80.38,75.47,1
88,80.53,75.59,1
88,80.68,75.71,1
88,80.82,75.84,1
93,81.07,76.01,1
93,81.31,76.18,1
92,81.52,76.34,1
93,81.75,76.50,1
90,81.91,76.64,1
93,82.14,76.80,1
