Teste de posicionamento 4(EMG tendao-inervacao (Vermelho A, Verde C) + Ref no cotovelo) - 16/09/2024 - teste4 - 5 contrações
long frequencia = 1000;                 //frequência de aquisição do sinal, neste caso, 1000 sinais por segundo
float fator1 = 0.02, fator2 = 0.01;
float incerteza = 0.13;
float pico_basal = 130; // Mínimo para ser considerado um pico de contração
int filtro_horizontal=200000; //intervalo de 200ms valores não pode ter mais de 1 contração

Biceps_D,mediaMovel_1,mediaMovel_2,Contracao
32,0.64,0.32,0
30,1.23,0.62,0
30,1.80,0.91,0
32,2.41,1.22,0
30,2.96,1.51,0
30,3.50,1.79,0
32,4.07,2.10,0
31,4.61,2.39,0
31,5.14,2.67,0
31,5.65,2.95,0
32,6.18,3.25,0
33,6.72,3.54,0
31,7.20,3.82,0
33,7.72,4.11,0
31,8.18,4.38,0
33,8.68,4.66,0
31,9.13,4.93,0
32,9.58,5.20,0
31,10.01,5.46,0
30,10.41,5.70,0
30,10.80,5.94,0
31,11.21,6.20,0
30,11.58,6.43,0
30,11.95,6.67,0
31,12.33,6.91,0
31,12.71,7.15,0
31,13.07,7.39,0
31,13.43,7.63,0
31,13.78,7.86,0
31,14.13,8.09,0
31,14.46,8.32,0
31,14.79,8.55,0
31,15.12,8.77,0
30,15.42,8.99,0
29,15.69,9.19,0
31,15.99,9.40,0
30,16.27,9.61,0
30,16.55,9.81,0
30,16.82,10.02,0
30,17.08,10.22,0
32,17.38,10.43,0
30,17.63,10.63,0
30,17.88,10.82,0
28,18.08,10.99,0
31,18.34,11.19,0
30,18.57,11.38,0
29,18.78,11.56,0
33,19.07,11.77,0
29,19.27,11.95,0
30,19.48,12.13,0
30,19.69,12.30,0
30,19.90,12.48,0
32,20.14,12.68,0
30,20.34,12.85,0
30,20.53,13.02,0
31,20.74,13.20,0
29,20.90,13.36,0
30,21.09,13.53,0
30,21.26,13.69,0
29,21.42,13.84,0
30,21.59,14.01,0
30,21.76,14.17,0
30,21.92,14.32,0
31,22.10,14.49,0
32,22.30,14.67,0
30,22.46,14.82,0
28,22.57,14.95,0
29,22.70,15.09,0
29,22.82,15.23,0
30,22.97,15.38,0
30,23.11,15.52,0
29,23.22,15.66,0
29,23.34,15.79,0
30,23.47,15.93,0
30,23.60,16.07,0
31,23.75,16.22,0
29,23.86,16.35,0
28,23.94,16.47,0
28,24.02,16.58,0
29,24.12,16.71,0
29,24.22,16.83,0
30,24.33,16.96,0
30,24.45,17.09,0
29,24.54,17.21,0
29,24.63,17.33,0
28,24.69,17.44,0
30,24.80,17.56,0
29,24.88,17.68,0
28,24.95,17.78,0
28,25.01,17.88,0
30,25.11,18.00,0
30,25.21,18.12,0
28,25.26,18.22,0
28,25.32,18.32,0
29,25.39,18.43,0
29,25.46,18.53,0
28,25.51,18.63,0
28,25.56,18.72,0
28,25.61,18.81,0
28,25.66,18.91,0
28,25.71,19.00,0
28,25.75,19.09,0
28,25.80,19.18,0
27,25.82,19.25,0
28,25.86,19.34,0
27,25.89,19.42,0
29,25.95,19.51,0
27,25.97,19.59,0
28,26.01,19.67,0
28,26.05,19.76,0
29,26.11,19.85,0
27,26.13,19.92,0
28,26.17,20.00,0
27,26.18,20.07,0
28,26.22,20.15,0
28,26.25,20.23,0
28,26.29,20.31,0
30,26.36,20.40,0
28,26.40,20.48,0
28,26.43,20.55,0
30,26.50,20.65,0
28,26.53,20.72,0
28,26.56,20.79,0
28,26.59,20.87,0
28,26.62,20.94,0
28,26.64,21.01,0
28,26.67,21.08,0
28,26.70,21.15,0
28,26.72,21.22,0
28,26.75,21.28,0
28,26.77,21.35,0
28,26.80,21.42,0
28,26.82,21.48,0
28,26.85,21.55,0
28,26.87,21.61,0
28,26.89,21.68,0
28,26.91,21.74,0
28,26.94,21.80,0
28,26.96,21.87,0
30,27.02,21.95,0
28,27.04,22.01,0
28,27.06,22.07,0
32,27.16,22.17,0
27,27.15,22.21,0
28,27.17,22.27,0
27,27.17,22.32,0
28,27.18,22.38,0
28,27.20,22.43,0
28,27.21,22.49,0
28,27.23,22.54,0
28,27.25,22.60,0
29,27.28,22.66,0
28,27.30,22.72,0
28,27.31,22.77,0
27,27.30,22.81,0
28,27.32,22.86,0
27,27.31,22.90,0
28,27.32,22.95,0
24,27.26,22.97,0
28,27.27,23.02,0
28,27.29,23.07,0
28,27.30,23.11,0
27,27.30,23.15,0
27,27.29,23.19,0
29,27.32,23.25,0
26,27.30,23.28,0
26,27.27,23.31,0
29,27.31,23.36,0
28,27.32,23.41,0
26,27.29,23.43,0
26,27.27,23.46,0
28,27.28,23.51,0
27,27.28,23.54,0
26,27.25,23.56,0
26,27.23,23.59,0
28,27.24,23.63,0
27,27.24,23.67,0
27,27.23,23.70,0
26,27.21,23.72,0
27,27.20,23.76,0
26,27.18,23.78,0
26,27.16,23.80,0
26,27.13,23.82,0
27,27.13,23.85,0
27,27.13,23.89,0
28,27.14,23.93,0
26,27.12,23.95,0
27,27.12,23.98,0
28,27.14,24.02,0
26,27.11,24.04,0
26,27.09,24.06,0
27,27.09,24.09,0
26,27.07,24.11,0
26,27.05,24.13,0
26,27.03,24.14,0
28,27.05,24.18,0
26,27.02,24.20,0
26,27.00,24.22,0
26,26.98,24.24,0
27,26.98,24.26,0
26,26.96,24.28,0
26,26.95,24.30,0
26,26.93,24.32,0
27,26.93,24.34,0
26,26.91,24.36,0
26,26.89,24.38,0
26,26.87,24.39,0
26,26.86,24.41,0
26,26.84,24.42,0
26,26.82,24.44,0
26,26.81,24.46,0
26,26.79,24.47,0
26,26.77,24.49,0
26,26.76,24.50,0
26,26.74,24.52,0
27,26.75,24.54,0
26,26.73,24.56,0
26,26.72,24.57,0
26,26.70,24.58,0
26,26.69,24.60,0
28,26.72,24.63,0
26,26.70,24.65,0
25,26.67,24.65,0
27,26.67,24.67,0
26,26.66,24.69,0
26,26.65,24.70,0
27,26.65,24.72,0
26,26.64,24.74,0
25,26.61,24.74,0
26,26.60,24.75,0
25,26.56,24.75,0
26,26.55,24.77,0
28,26.58,24.80,0
26,26.57,24.81,0
26,26.56,24.82,0
26,26.55,24.83,0
29,26.60,24.88,0
26,26.59,24.89,0
26,26.57,24.90,0
26,26.56,24.91,0
27,26.57,24.93,0
26,26.56,24.94,0
26,26.55,24.95,0
26,26.54,24.96,0
26,26.53,24.97,0
26,26.52,24.98,0
26,26.51,24.99,0
26,26.50,25.00,0
28,26.53,25.03,0
26,26.52,25.04,0
26,26.50,25.05,0
28,26.53,25.08,0
26,26.52,25.09,0
26,26.51,25.10,0
26,26.50,25.11,0
28,26.53,25.14,0
26,26.52,25.15,0
30,26.59,25.19,0
26,26.58,25.20,0
28,26.61,25.23,0
28,26.64,25.26,0
26,26.62,25.27,0
26,26.61,25.27,0
25,26.58,25.27,0
26,26.57,25.28,0
26,26.56,25.28,0
26,26.55,25.29,0
27,26.55,25.31,0
26,26.54,25.32,0
26,26.53,25.32,0
26,26.52,25.33,0
25,26.49,25.33,0
25,26.46,25.32,0
23,26.39,25.30,0
26,26.38,25.31,0
28,26.42,25.33,0
26,26.41,25.34,0
26,26.40,25.35,0
26,26.39,25.35,0
26,26.38,25.36,0
26,26.38,25.37,0
26,26.37,25.37,0
26,26.36,25.38,0
28,26.39,25.41,0
28,26.43,25.43,0
26,26.42,25.44,0
26,26.41,25.44,0
28,26.44,25.47,0
27,26.45,25.48,0
28,26.48,25.51,0
28,26.51,25.53,0
28,26.54,25.56,0
28,26.57,25.58,0
28,26.60,25.61,0
28,26.63,25.63,0
28,26.66,25.65,0
28,26.68,25.68,0
30,26.75,25.72,0
30,26.81,25.76,0
29,26.86,25.80,0
28,26.88,25.82,0
28,26.90,25.84,0
28,26.93,25.86,0
29,26.97,25.89,0
30,27.03,25.93,0
29,27.07,25.96,0
28,27.09,25.99,0
27,27.08,26.00,0
28,27.10,26.02,0
28,27.12,26.04,0
28,27.14,26.05,0
29,27.18,26.08,0
28,27.19,26.10,0
28,27.21,26.12,0
30,27.26,26.16,0
30,27.32,26.20,0
32,27.41,26.26,0
31,27.48,26.30,0
30,27.53,26.34,0
29,27.56,26.37,0
30,27.61,26.40,0
30,27.66,26.44,0
29,27.69,26.47,0
30,27.73,26.50,0
32,27.82,26.56,0
32,27.90,26.61,0
31,27.96,26.66,0
30,28.00,26.69,0
30,28.04,26.72,0
30,28.08,26.75,0
29,28.10,26.78,0
30,28.14,26.81,0
30,28.18,26.84,0
30,28.21,26.87,0
29,28.23,26.89,0
30,28.26,26.92,0
33,28.36,26.99,0
30,28.39,27.02,0
29,28.40,27.04,0
29,28.42,27.06,0
29,28.43,27.07,0
31,28.48,27.11,0
31,28.53,27.15,0
31,28.58,27.19,0
32,28.65,27.24,0
30,28.67,27.27,0
30,28.70,27.29,0
33,28.79,27.35,0
31,28.83,27.39,0
30,28.85,27.41,0
32,28.92,27.46,0
34,29.02,27.53,0
32,29.08,27.57,0
31,29.12,27.60,0
32,29.18,27.65,0
31,29.21,27.68,0
31,29.25,27.71,0
31,29.28,27.75,0
31,29.32,27.78,0
31,29.35,27.81,0
32,29.40,27.85,0
30,29.42,27.88,0
30,29.43,27.90,0
31,29.46,27.93,0
32,29.51,27.97,0
31,29.54,28.00,0
32,29.59,28.04,0
30,29.60,28.06,0
31,29.62,28.09,0
31,29.65,28.12,0
30,29.66,28.14,0
31,29.69,28.16,0
32,29.73,28.20,0
30,29.74,28.22,0
30,29.74,28.24,0
32,29.79,28.28,0
31,29.81,28.30,0
30,29.82,28.32,0
30,29.82,28.34,0
31,29.84,28.36,0
30,29.85,28.38,0
30,29.85,28.40,0
30,29.85,28.41,0
31,29.88,28.44,0
32,29.92,28.47,0
32,29.96,28.51,0
32,30.00,28.54,0
31,30.02,28.57,0
31,30.04,28.59,0
32,30.08,28.63,0
35,30.18,28.69,0
34,30.25,28.74,0
33,30.31,28.79,0
32,30.34,28.82,0
35,30.44,28.88,0
31,30.45,28.90,0
32,30.48,28.93,0
32,30.51,28.96,0
32,30.54,28.99,0
31,30.55,29.01,0
33,30.60,29.05,0
32,30.62,29.08,0
34,30.69,29.13,0
32,30.72,29.16,0
32,30.74,29.19,0
32,30.77,29.22,0
34,30.83,29.27,0
33,30.88,29.30,0
32,30.90,29.33,0
32,30.92,29.36,0
32,30.94,29.38,0
35,31.02,29.44,0
34,31.08,29.48,0
32,31.10,29.51,0
34,31.16,29.55,0
36,31.26,29.62,0
38,31.39,29.70,0
38,31.52,29.79,0
36,31.61,29.85,0
35,31.68,29.90,0
38,31.81,29.98,0
36,31.89,30.04,0
36,31.97,30.10,0
38,32.09,30.18,0
34,32.13,30.22,0
34,32.17,30.26,0
35,32.23,30.30,0
36,32.30,30.36,0
36,32.38,30.42,0
36,32.45,30.47,0
35,32.50,30.52,0
36,32.57,30.57,0
38,32.68,30.65,0
34,32.70,30.68,0
35,32.75,30.72,0
34,32.78,30.76,0
38,32.88,30.83,0
34,32.90,30.86,0
35,32.94,30.90,0
38,33.05,30.97,0
36,33.10,31.02,0
34,33.12,31.05,0
36,33.18,31.10,0
35,33.22,31.14,0
36,33.27,31.19,0
36,33.33,31.24,0
37,33.40,31.30,0
36,33.45,31.34,0
33,33.44,31.36,0
36,33.49,31.41,0
36,33.54,31.45,0
37,33.61,31.51,0
37,33.68,31.56,0
38,33.77,31.63,0
38,33.85,31.69,0
37,33.91,31.74,0
38,34.00,31.81,0
36,34.04,31.85,0
39,34.14,31.92,0
41,34.27,32.01,0
41,34.41,32.10,0
40,34.52,32.18,0
39,34.61,32.25,0
38,34.68,32.30,0
39,34.76,32.37,0
40,34.87,32.45,0
40,34.97,32.52,0
41,35.09,32.61,0
39,35.17,32.67,0
40,35.27,32.75,0
38,35.32,32.80,0
41,35.43,32.88,0
38,35.49,32.93,0
39,35.56,32.99,0
41,35.66,33.07,0
40,35.75,33.14,0
40,35.84,33.21,0
38,35.88,33.26,0
38,35.92,33.30,0
39,35.98,33.36,0
38,36.02,33.41,0
40,36.10,33.47,0
38,36.14,33.52,0
40,36.22,33.58,0
42,36.33,33.67,0
40,36.41,33.73,0
40,36.48,33.79,0
41,36.57,33.87,0
39,36.62,33.92,0
40,36.69,33.98,0
40,36.75,34.04,0
40,36.82,34.10,0
40,36.88,34.16,0
40,36.94,34.22,0
42,37.04,34.29,0
41,37.12,34.36,0
40,37.18,34.42,0
42,37.28,34.49,0
43,37.39,34.58,0
41,37.46,34.64,0
43,37.57,34.73,0
42,37.66,34.80,0
40,37.71,34.85,0
40,37.76,34.90,0
42,37.84,34.97,0
42,37.92,35.04,0
42,38.01,35.11,0
43,38.11,35.19,0
42,38.18,35.26,0
40,38.22,35.31,0
42,38.30,35.37,0
42,38.37,35.44,0
44,38.48,35.53,0
42,38.55,35.59,0
43,38.64,35.66,0
43,38.73,35.74,0
44,38.83,35.82,0
44,38.94,35.90,0
44,39.04,35.98,0
43,39.12,36.05,0
42,39.18,36.11,0
44,39.27,36.19,0
45,39.39,36.28,0
44,39.48,36.36,0
46,39.61,36.45,0
42,39.66,36.51,0
45,39.76,36.59,0
47,39.91,36.70,0
47,40.05,36.80,0
47,40.19,36.90,0
47,40.33,37.00,0
44,40.40,37.07,0
48,40.55,37.18,0
46,40.66,37.27,0
45,40.75,37.35,0
44,40.81,37.42,0
46,40.92,37.50,0
46,41.02,37.59,0
48,41.16,37.69,0
52,41.37,37.83,0
48,41.51,37.94,0
50,41.68,38.06,0
46,41.76,38.14,0
50,41.93,38.25,0
52,42.13,38.39,0
52,42.33,38.53,0
50,42.48,38.64,0
50,42.63,38.76,0
48,42.74,38.85,0
52,42.92,38.98,0
50,43.06,39.09,0
50,43.20,39.20,0
49,43.32,39.30,0
48,43.41,39.38,0
49,43.52,39.48,0
51,43.67,39.60,0
49,43.78,39.69,0
50,43.90,39.79,0
54,44.11,39.93,0
53,44.28,40.07,0
52,44.44,40.18,0
50,44.55,40.28,0
53,44.72,40.41,0
53,44.88,40.54,0
55,45.09,40.68,0
54,45.27,40.81,0
50,45.36,40.91,0
53,45.51,41.03,0
58,45.76,41.20,0
52,45.89,41.30,0
52,46.01,41.41,0
55,46.19,41.55,0
52,46.31,41.65,0
51,46.40,41.75,0
54,46.55,41.87,0
55,46.72,42.00,0
54,46.87,42.12,0
52,46.97,42.22,0
57,47.17,42.37,0
59,47.41,42.53,0
56,47.58,42.67,0
54,47.71,42.78,0
54,47.83,42.89,0
57,48.02,43.03,0
64,48.34,43.24,0
58,48.53,43.39,0
56,48.68,43.52,0
61,48.92,43.69,0
62,49.19,43.87,0
58,49.36,44.02,0
60,49.57,44.18,0
62,49.82,44.35,0
59,50.01,44.50,0
62,50.25,44.68,0
62,50.48,44.85,0
64,50.75,45.04,0
65,51.04,45.24,0
60,51.22,45.39,0
64,51.47,45.57,0
65,51.74,45.77,0
66,52.03,45.97,0
64,52.27,46.15,0
68,52.58,46.37,0
62,52.77,46.53,0
62,52.95,46.68,0
68,53.26,46.89,0
72,53.63,47.14,0
69,53.94,47.36,0
66,54.18,47.55,0
66,54.42,47.73,0
63,54.59,47.89,0
67,54.84,48.08,0
70,55.14,48.30,0
70,55.44,48.51,0
69,55.71,48.72,0
70,55.99,48.93,0
70,56.27,49.14,0
68,56.51,49.33,0
67,56.72,49.51,0
70,56.98,49.71,0
66,57.16,49.88,0
68,57.38,50.06,0
68,57.59,50.24,0
68,57.80,50.41,0
70,58.05,50.61,0
72,58.32,50.82,0
71,58.58,51.02,0
72,58.85,51.23,0
70,59.07,51.42,0
70,59.29,51.61,0
69,59.48,51.78,0
68,59.65,51.94,0
70,59.86,52.12,0
72,60.10,52.32,0
71,60.32,52.51,0
74,60.59,52.73,0
71,60.80,52.91,0
74,61.07,53.12,0
74,61.32,53.33,0
79,61.68,53.58,0
76,61.96,53.81,0
73,62.19,54.00,0
77,62.48,54.23,0
78,62.79,54.47,0
74,63.02,54.66,0
76,63.28,54.88,0
73,63.47,55.06,0
80,63.80,55.31,0
81,64.14,55.56,0
77,64.40,55.78,0
76,64.63,55.98,0
79,64.92,56.21,0
81,65.24,56.46,0
78,65.50,56.67,0
77,65.73,56.88,0
78,65.97,57.09,0
79,66.23,57.31,0
80,66.51,57.54,0
78,66.74,57.74,0
78,66.96,57.94,0
80,67.22,58.16,0
84,67.56,58.42,0
84,67.89,58.68,0
81,68.15,58.90,0
79,68.37,59.10,0
84,68.68,59.35,0
86,69.03,59.62,0
83,69.31,59.85,0
80,69.52,60.05,0
84,69.81,60.29,0
80,70.01,60.49,0
83,70.27,60.71,0
82,70.51,60.93,0
82,70.74,61.14,0
86,71.04,61.39,0
93,71.48,61.70,0
87,71.79,61.96,0
84,72.04,62.18,0
90,72.40,62.45,0
93,72.81,62.76,0
93,73.21,63.06,0
94,73.63,63.37,0
88,73.92,63.62,0
89,74.22,63.87,0
94,74.61,64.17,0
96,75.04,64.49,0
96,75.46,64.81,0
94,75.83,65.10,0
91,76.13,65.36,0
92,76.45,65.62,0
92,76.76,65.89,0
93,77.09,66.16,0
92,77.39,66.42,0
94,77.72,66.69,0
92,78.00,66.95,0
92,78.28,67.20,0
92,78.56,67.44,0
90,78.79,67.67,0
94,79.09,67.93,0
95,79.41,68.20,0
94,79.70,68.46,0
94,79.99,68.72,0
90,80.19,68.93,0
91,80.40,69.15,0
92,80.64,69.38,0
92,80.86,69.61,0
92,81.09,69.83,0
99,81.44,70.12,0
96,81.73,70.38,0
96,82.02,70.64,0
100,82.38,70.93,0
97,82.67,71.19,0
96,82.94,71.44,0
94,83.16,71.66,0
94,83.38,71.89,0
94,83.59,72.11,0
94,83.80,72.33,0
95,84.02,72.55,0
102,84.38,72.85,0
105,84.79,73.17,0
101,85.12,73.45,0
100,85.41,73.71,0
105,85.81,74.03,0
105,86.19,74.34,0
107,86.61,74.66,0
107,87.01,74.99,0
101,87.29,75.25,0
101,87.57,75.50,0
105,87.92,75.80,0
116,88.48,76.20,0
115,89.01,76.59,0
109,89.41,76.91,0
106,89.74,77.20,0
109,90.13,77.52,0
105,90.42,77.80,0
111,90.83,78.13,0
105,91.12,78.40,0
108,91.46,78.69,0
107,91.77,78.98,0
107,92.07,79.26,0
109,92.41,79.55,0
112,92.80,79.88,0
116,93.27,80.24,0
116,93.72,80.60,0
113,94.11,80.92,0
111,94.44,81.22,0
114,94.84,81.55,0
123,95.40,81.96,0
121,95.91,82.35,0
113,96.25,82.66,0
113,96.59,82.96,0
116,96.98,83.30,0
117,97.38,83.63,0
113,97.69,83.93,0
120,98.13,84.29,0
124,98.65,84.68,0
113,98.94,84.97,0
113,99.22,85.25,0
113,99.50,85.52,0
114,99.79,85.81,0
115,100.09,86.10,0
116,100.41,86.40,0
119,100.78,86.73,0
118,101.12,87.04,0
116,101.42,87.33,0
118,101.75,87.64,0
121,102.14,87.97,0
116,102.42,88.25,0
118,102.73,88.55,0
118,103.03,88.84,0
122,103.41,89.17,0
116,103.66,89.44,0
117,103.93,89.72,0
116,104.17,89.98,0
121,104.51,90.29,0
121,104.84,90.60,0
118,105.10,90.87,0
122,105.44,91.18,0
126,105.85,91.53,0
122,106.17,91.84,0
118,106.41,92.10,0
120,106.68,92.38,0
118,106.91,92.63,0
124,107.25,92.95,0
123,107.57,93.25,0
118,107.77,93.49,0
123,108.08,93.79,0
129,108.50,94.14,0
123,108.79,94.43,0
124,109.09,94.73,0
123,109.37,95.01,0
122,109.62,95.28,0
122,109.87,95.55,0
120,110.07,95.79,0
122,110.31,96.05,0
122,110.54,96.31,0
121,110.75,96.56,0
122,110.98,96.81,0
120,111.16,97.04,0
120,111.34,97.27,0
120,111.51,97.50,0
120,111.68,97.73,0
119,111.83,97.94,0
119,111.97,98.15,0
119,112.11,98.36,0
121,112.29,98.58,0
119,112.42,98.79,0
122,112.61,99.02,0
121,112.78,99.24,0
120,112.93,99.45,0
123,113.13,99.68,0
122,113.30,99.91,0
129,113.62,100.20,0
123,113.81,100.43,0
122,113.97,100.64,0
124,114.17,100.88,0
121,114.31,101.08,0
127,114.56,101.34,0
124,114.75,101.56,0
121,114.87,101.76,0
122,115.02,101.96,0
121,115.14,102.15,0
125,115.33,102.38,0
124,115.51,102.59,0
125,115.70,102.82,0
122,115.82,103.01,0
123,115.97,103.21,0
123,116.11,103.41,0
123,116.25,103.60,0
127,116.46,103.84,0
121,116.55,104.01,0
123,116.68,104.20,0
121,116.77,104.37,0
121,116.85,104.53,0
122,116.95,104.71,0
122,117.06,104.88,0
121,117.13,105.04,0
122,117.23,105.21,0
121,117.31,105.37,0
121,117.38,105.53,0
121,117.45,105.68,0
121,117.52,105.83,0
120,117.57,105.98,0
120,117.62,106.12,0
121,117.69,106.26,0
120,117.74,106.40,0
118,117.74,106.52,0
120,117.79,106.65,0
120,117.83,106.79,0
117,117.81,106.89,0
119,117.84,107.01,0
118,117.84,107.12,0
119,117.86,107.24,0
119,117.89,107.36,0
117,117.87,107.45,0
119,117.89,107.57,0
119,117.91,107.68,0
118,117.92,107.79,0
119,117.94,107.90,0
117,117.92,107.99,0
119,117.94,108.10,0
120,117.98,108.22,0
117,117.96,108.31,0
120,118.00,108.42,0
117,117.98,108.51,0
118,117.98,108.60,0
115,117.92,108.67,0
117,117.90,108.75,0
118,117.91,108.84,0
117,117.89,108.92,0
117,117.87,109.01,0
117,117.85,109.09,0
118,117.86,109.17,0
116,117.82,109.24,0
117,117.80,109.32,0
117,117.79,109.40,0
117,117.77,109.47,0
115,117.72,109.53,0
117,117.70,109.60,0
116,117.67,109.67,0
115,117.61,109.72,0
117,117.60,109.79,0
115,117.55,109.85,0
115,117.50,109.90,0
116,117.47,109.96,0
114,117.40,110.00,0
115,117.35,110.05,0
113,117.26,110.08,0
113,117.18,110.11,0
114,117.12,110.15,0
114,117.05,110.18,0
115,117.01,110.23,0
113,116.93,110.26,0
113,116.85,110.29,0
113,116.78,110.31,0
113,116.70,110.34,0
113,116.63,110.37,0
116,116.61,110.42,0
113,116.54,110.45,0
115,116.51,110.50,0
113,116.44,110.52,0
114,116.39,110.56,0
113,116.32,110.58,0
113,116.26,110.60,0
113,116.19,110.63,0
114,116.15,110.66,0
114,116.11,110.70,0
113,116.04,110.72,0
113,115.98,110.74,0
113,115.92,110.76,0
113,115.86,110.79,0
112,115.79,110.80,0
113,115.73,110.82,0
113,115.68,110.84,0
114,115.64,110.87,0
111,115.55,110.88,0
112,115.48,110.89,0
112,115.41,110.90,0
111,115.32,110.90,0
111,115.24,110.90,0
112,115.17,110.91,0
111,115.09,110.91,0
110,114.99,110.90,0
115,114.99,110.94,0
110,114.89,110.93,0
109,114.77,110.91,0
110,114.67,110.91,0
111,114.60,110.91,0
111,114.53,110.91,0
109,114.42,110.89,0
110,114.33,110.88,0
110,114.24,110.87,0
110,114.16,110.86,0
110,114.07,110.85,0
109,113.97,110.83,0
109,113.87,110.82,0
109,113.78,110.80,0
109,113.68,110.78,0
109,113.59,110.76,0
103,113.37,110.68,0
108,113.27,110.66,0
107,113.14,110.62,0
108,113.04,110.60,0
107,112.92,110.56,0
108,112.82,110.53,0
107,112.70,110.50,0
107,112.59,110.46,0
107,112.48,110.43,0
108,112.39,110.40,0
107,112.28,110.37,0
107,112.17,110.34,0
107,112.07,110.30,0
105,111.93,110.25,0
106,111.81,110.21,0
106,111.70,110.17,0
105,111.56,110.11,0
105,111.43,110.06,0
105,111.30,110.01,0
105,111.18,109.96,0
105,111.05,109.91,0
105,110.93,109.86,0
105,110.81,109.81,0
104,110.68,109.76,0
105,110.56,109.71,0
103,110.41,109.64,0
105,110.30,109.60,0
103,110.16,109.53,0
103,110.01,109.46,0
101,109.83,109.38,0
103,109.70,109.32,0
103,109.56,109.25,0
103,109.43,109.19,0
103,109.30,109.13,0
102,109.16,109.06,0
103,109.03,109.00,0
102,108.89,108.93,0
101,108.74,108.85,0
101,108.58,108.77,0
105,108.51,108.73,0
102,108.38,108.66,0
103,108.27,108.61,0
101,108.13,108.53,0
101,107.98,108.46,0
101,107.84,108.38,0
101,107.71,108.31,0
101,107.57,108.23,0
99,107.40,108.14,0
100,107.25,108.06,0
100,107.11,107.98,0
99,106.95,107.89,0
99,106.79,107.80,0
100,106.65,107.72,0
100,106.52,107.65,0
100,106.39,107.57,0
99,106.24,107.48,0
99,106.10,107.40,0
98,105.93,107.30,0
98,105.77,107.21,0
100,105.66,107.14,0
98,105.51,107.05,0
99,105.38,106.97,0
98,105.23,106.88,0
98,105.08,106.79,0
98,104.94,106.70,0
98,104.80,106.61,0
98,104.67,106.53,0
97,104.51,106.43,0
97,104.36,106.34,0
96,104.20,106.24,0
96,104.03,106.13,0
96,103.87,106.03,0
97,103.73,105.94,0
96,103.58,105.84,0
97,103.45,105.75,0
96,103.30,105.66,0
96,103.15,105.56,0
95,102.99,105.45,0
95,102.83,105.35,0
96,102.69,105.26,0
95,102.54,105.15,0
95,102.39,105.05,0
95,102.24,104.95,0
96,102.12,104.86,0
96,101.99,104.77,0
94,101.83,104.67,0
95,101.70,104.57,0
94,101.54,104.46,0
95,101.41,104.37,0
94,101.26,104.26,0
93,101.10,104.15,0
94,100.96,104.05,0
94,100.82,103.95,0
94,100.68,103.85,0
94,100.55,103.75,0
94,100.42,103.65,0
94,100.29,103.56,0
94,100.16,103.46,0
94,100.04,103.37,0
94,99.92,103.27,0
93,99.78,103.17,0
98,99.74,103.12,0
93,99.61,103.02,0
95,99.52,102.94,0
94,99.41,102.85,0
93,99.28,102.75,0
93,99.15,102.65,0
92,99.01,102.55,0
93,98.89,102.45,0
93,98.77,102.36,0
92,98.64,102.25,0
92,98.50,102.15,0
93,98.39,102.06,0
92,98.27,101.96,0
92,98.14,101.86,0
93,98.04,101.77,0
93,97.94,101.68,0
91,97.80,101.58,0
92,97.68,101.48,0
92,97.57,101.38,0
91,97.44,101.28,0
92,97.33,101.19,0
91,97.20,101.09,0
92,97.10,101.00,0
92,97.00,100.91,0
91,96.88,100.81,0
91,96.76,100.71,0
92,96.66,100.62,0
92,96.57,100.54,0
92,96.48,100.45,0
92,96.39,100.37,0
91,96.28,100.27,0
90,96.16,100.17,0
91,96.05,100.08,0
92,95.97,100.00,0
91,95.87,99.91,0
90,95.76,99.81,0
90,95.64,99.71,0
90,95.53,99.61,0
90,95.42,99.52,0
90,95.31,99.42,0
90,95.20,99.33,0
90,95.10,99.23,0
90,95.00,99.14,0
90,94.90,99.05,0
90,94.80,98.96,0
90,94.70,98.87,0
90,94.61,98.78,0
90,94.52,98.69,0
88,94.39,98.59,0
90,94.30,98.50,0
90,94.21,98.42,0
90,94.13,98.33,0
89,94.03,98.24,0
89,93.92,98.15,0
90,93.85,98.06,0
90,93.77,97.98,0
88,93.65,97.88,0
88,93.54,97.78,0
88,93.43,97.69,0
89,93.34,97.60,0
88,93.23,97.50,0
88,93.13,97.41,0
89,93.05,97.33,0
89,92.97,97.24,0
88,92.87,97.15,0
88,92.77,97.06,0
87,92.65,96.96,0
88,92.56,96.87,0
88,92.47,96.78,0
88,92.38,96.69,0
88,92.29,96.60,0
88,92.21,96.52,0
88,92.12,96.43,0
88,92.04,96.35,0
90,92.00,96.29,0
88,91.92,96.20,0
88,91.84,96.12,0
87,91.74,96.03,0
88,91.67,95.95,0
86,91.56,95.85,0
87,91.47,95.76,0
87,91.38,95.67,0
85,91.25,95.57,0
86,91.14,95.47,0
86,91.04,95.38,0
89,91.00,95.31,0
88,90.94,95.24,0
87,90.86,95.16,0
86,90.76,95.07,0
87,90.69,94.98,0
87,90.61,94.90,0
87,90.54,94.83,0
87,90.47,94.75,0
86,90.38,94.66,0
86,90.29,94.57,0
86,90.21,94.49,0
88,90.16,94.42,0
86,90.08,94.34,0
88,90.04,94.28,0
86,89.96,94.19,0
86,89.88,94.11,0
87,89.82,94.04,0
86,89.75,93.96,0
86,89.67,93.88,0
84,89.56,93.78,0
85,89.47,93.69,0
85,89.38,93.61,0
85,89.29,93.52,0
84,89.18,93.42,0
84,89.08,93.33,0
86,89.02,93.26,0
85,88.94,93.17,0
84,88.84,93.08,0
86,88.78,93.01,0
86,88.73,92.94,0
86,88.67,92.87,0
84,88.58,92.78,0
86,88.53,92.72,0
84,88.44,92.63,0
84,88.35,92.54,0
84,88.26,92.46,0
84,88.18,92.37,0
84,88.09,92.29,0
84,88.01,92.21,0
84,87.93,92.12,0
86,87.89,92.06,0
85,87.83,91.99,0
84,87.76,91.91,0
84,87.68,91.83,0
84,87.61,91.75,0
84,87.54,91.68,0
86,87.51,91.62,0
83,87.42,91.53,0
84,87.35,91.46,0
84,87.28,91.38,0
82,87.17,91.29,0
83,87.09,91.21,0
83,87.01,91.13,0
84,86.95,91.05,0
82,86.85,90.96,0
82,86.75,90.87,0
84,86.70,90.81,0
82,86.60,90.72,0
82,86.51,90.63,0
81,86.40,90.53,0
82,86.31,90.45,0
85,86.29,90.39,0
82,86.20,90.31,0
82,86.12,90.23,0
82,86.04,90.14,0
82,85.95,90.06,0
82,85.88,89.98,0
82,85.80,89.90,0
81,85.70,89.81,0
82,85.63,89.74,0
84,85.60,89.68,0
82,85.52,89.60,0
83,85.47,89.54,0
82,85.40,89.46,0
82,85.34,89.39,0
83,85.29,89.32,0
82,85.22,89.25,0
84,85.20,89.20,0
84,85.17,89.14,0
82,85.11,89.07,0
82,85.05,89.00,0
84,85.03,88.95,0
82,84.97,88.88,0
81,84.89,88.80,0
82,84.83,88.74,0
82,84.77,88.67,0
82,84.72,88.60,0
81,84.64,88.53,0
82,84.59,88.46,0
81,84.52,88.39,0
80,84.43,88.30,0
81,84.36,88.23,0
82,84.31,88.17,0
81,84.25,88.09,0
81,84.18,88.02,0
82,84.14,87.96,0
80,84.06,87.88,0
80,83.97,87.80,0
81,83.91,87.74,0
80,83.84,87.66,0
80,83.76,87.58,0
81,83.70,87.52,0
80,83.63,87.44,0
81,83.58,87.38,0
80,83.51,87.30,0
80,83.44,87.23,0
79,83.35,87.15,0
80,83.28,87.08,0
81,83.23,87.02,0
80,83.17,86.95,0
79,83.09,86.87,0
78,82.99,86.78,0
78,82.89,86.69,0
79,82.81,86.61,0
79,82.73,86.54,0
78,82.64,86.45,0
78,82.54,86.37,0
79,82.47,86.29,0
78,82.38,86.21,0
78,82.30,86.13,0
79,82.23,86.06,0
78,82.15,85.98,0
80,82.10,85.92,0
78,82.02,85.84,0
79,81.96,85.77,0
78,81.88,85.69,0
78,81.80,85.61,0
78,81.73,85.54,0
79,81.67,85.47,0
79,81.62,85.41,0
78,81.55,85.33,0
78,81.48,85.26,0
77,81.39,85.18,0
79,81.34,85.12,0
78,81.27,85.05,0
78,81.21,84.97,0
78,81.14,84.91,0
77,81.06,84.83,0
78,81.00,84.76,0
76,80.90,84.67,0
78,80.84,84.60,0
77,80.76,84.53,0
76,80.67,84.44,0
78,80.61,84.38,0
77,80.54,84.30,0
77,80.47,84.23,0
77,80.40,84.16,0
78,80.35,84.10,0
77,80.29,84.03,0
77,80.22,83.96,0
76,80.14,83.88,0
78,80.09,83.82,0
77,80.03,83.75,0
75,79.93,83.66,0
76,79.85,83.59,0
76,79.78,83.51,0
75,79.68,83.42,0
76,79.61,83.35,0
76,79.53,83.28,0
78,79.50,83.22,0
76,79.43,83.15,0
75,79.35,83.07,0
76,79.28,83.00,0
76,79.21,82.93,0
75,79.13,82.85,0
74,79.03,82.76,0
78,79.01,82.71,0
76,78.95,82.65,0
75,78.87,82.57,0
74,78.77,82.48,0
74,78.67,82.40,0
76,78.62,82.34,0
75,78.55,82.26,0
75,78.48,82.19,0
73,78.37,82.10,0
75,78.30,82.03,0
74,78.21,81.95,0
76,78.17,81.89,0
74,78.09,81.81,0
73,77.98,81.72,0
75,77.93,81.65,0
74,77.85,81.58,0
76,77.81,81.52,0
73,77.71,81.44,0
73,77.62,81.35,0
73,77.53,81.27,0
74,77.46,81.20,0
73,77.37,81.11,0
74,77.30,81.04,0
72,77.19,80.95,0
74,77.13,80.88,0
73,77.05,80.80,0
72,76.95,80.72,0
76,76.93,80.67,0
72,76.83,80.58,0
73,76.75,80.51,0
73,76.68,80.43,0
72,76.58,80.35,0
72,76.49,80.26,0
72,76.40,80.18,0
72,76.31,80.10,0
73,76.25,80.03,0
72,76.16,79.95,0
72,76.08,79.87,0
73,76.02,79.80,0
72,75.94,79.72,0
72,75.86,79.64,0
72,75.78,79.57,0
70,75.67,79.47,0
72,75.59,79.40,0
72,75.52,79.32,0
72,75.45,79.25,0
73,75.40,79.19,0
74,75.37,79.14,0
71,75.29,79.05,0
72,75.22,78.98,0
72,75.16,78.91,0
71,75.07,78.83,0
72,75.01,78.77,0
70,74.91,78.68,0
70,74.81,78.59,0
70,74.72,78.51,0
71,74.64,78.43,0
70,74.55,78.35,0
70,74.46,78.26,0
71,74.39,78.19,0
71,74.32,78.12,0
70,74.24,78.04,0
70,74.15,77.96,0
71,74.09,77.89,0
70,74.01,77.81,0
69,73.91,77.72,0
69,73.81,77.63,0
70,73.73,77.56,0
67,73.60,77.45,0
70,73.52,77.38,0
69,73.43,77.29,0
71,73.39,77.23,0
70,73.32,77.16,0
70,73.25,77.09,0
70,73.19,77.02,0
70,73.12,76.95,0
67,73.00,76.85,0
70,72.94,76.78,0
69,72.86,76.70,0
69,72.78,76.62,0
68,72.69,76.54,0
70,72.63,76.47,0
70,72.58,76.41,0
70,72.53,76.34,0
68,72.44,76.26,0
68,72.35,76.18,0
70,72.30,76.11,0
69,72.24,76.04,0
68,72.15,75.96,0
68,72.07,75.88,0
67,71.97,75.79,0
68,71.89,75.72,0
68,71.81,75.64,0
68,71.74,75.56,0
68,71.66,75.49,0
69,71.61,75.42,0
66,71.50,75.33,0
68,71.43,75.25,0
67,71.34,75.17,0
68,71.27,75.10,0
68,71.20,75.03,0
68,71.14,74.96,0
68,71.08,74.89,0
68,71.02,74.82,0
68,70.96,74.75,0
68,70.90,74.69,0
67,70.82,74.61,0
66,70.72,74.52,0
68,70.67,74.46,0
66,70.57,74.37,0
66,70.48,74.29,0
66,70.39,74.21,0
66,70.31,74.12,0
67,70.24,74.05,0
67,70.17,73.98,0
70,70.17,73.94,0
66,70.09,73.86,0
66,70.01,73.78,0
66,69.93,73.71,0
66,69.85,73.63,0
67,69.79,73.56,0
66,69.71,73.49,0
65,69.62,73.40,0
66,69.55,73.33,0
66,69.48,73.26,0
66,69.41,73.18,0
66,69.34,73.11,0
65,69.25,73.03,0
66,69.19,72.96,0
65,69.10,72.88,0
66,69.04,72.81,0
65,68.96,72.73,0
68,68.94,72.69,0
65,68.86,72.61,0
66,68.81,72.54,0
66,68.75,72.48,0
65,68.67,72.40,0
66,68.62,72.34,0
68,68.61,72.29,0
65,68.54,72.22,0
64,68.45,72.14,0
65,68.38,72.07,0
64,68.29,71.99,0
65,68.22,71.92,0
66,68.18,71.86,0
64,68.10,71.78,0
65,68.03,71.71,0
65,67.97,71.65,0
64,67.89,71.57,0
64,67.82,71.49,0
65,67.76,71.43,0
65,67.70,71.36,0
65,67.65,71.30,0
64,67.58,71.23,0
64,67.51,71.15,0
64,67.44,71.08,0
66,67.41,71.03,0
66,67.38,70.98,0
64,67.31,70.91,0
64,67.24,70.84,0
64,67.18,70.77,0
66,67.16,70.73,0
64,67.09,70.66,0
64,67.03,70.59,0
64,66.97,70.53,0
64,66.91,70.46,0
66,66.89,70.42,0
65,66.86,70.36,0
64,66.80,70.30,0
64,66.74,70.24,0
65,66.71,70.18,0
64,66.65,70.12,0
64,66.60,70.06,0
64,66.55,70.00,0
65,66.52,69.95,0
68,66.55,69.93,0
64,66.50,69.87,0
64,66.45,69.81,0
64,66.40,69.75,0
66,66.39,69.72,0
64,66.34,69.66,0
64,66.29,69.60,0
64,66.25,69.55,0
66,66.24,69.51,0
66,66.24,69.48,0
66,66.23,69.44,0
65,66.21,69.40,0
64,66.17,69.34,0
64,66.12,69.29,0
64,66.08,69.24,0
66,66.08,69.21,0
64,66.04,69.15,0
64,66.00,69.10,0
66,66.00,69.07,0
65,65.98,69.03,0
64,65.94,68.98,0
66,65.94,68.95,0
64,65.90,68.90,0
65,65.88,68.86,0
65,65.86,68.82,0
66,65.87,68.79,0
65,65.85,68.76,0
65,65.83,68.72,0
64,65.79,68.67,0
64,65.76,68.62,0
64,65.72,68.58,0
64,65.69,68.53,0
66,65.70,68.51,0
64,65.66,68.46,0
64,65.63,68.42,0
64,65.60,68.37,0
64,65.56,68.33,0
65,65.55,68.30,0
64,65.52,68.25,0
64,65.49,68.21,0
64,65.46,68.17,0
64,65.43,68.13,0
64,65.40,68.09,0
64,65.38,68.05,0
63,65.33,67.99,0
64,65.30,67.95,0
64,65.28,67.92,0
64,65.25,67.88,0
65,65.24,67.85,0
65,65.24,67.82,0
64,65.22,67.78,0
64,65.19,67.74,0
63,65.15,67.70,0
66,65.16,67.68,0
68,65.22,67.68,0
70,65.32,67.70,0
69,65.39,67.72,0
67,65.42,67.71,0
64,65.39,67.67,0
68,65.45,67.68,0
69,65.52,67.69,0
68,65.57,67.69,0
69,65.64,67.71,0
71,65.74,67.74,0
69,65.81,67.75,0
68,65.85,67.75,0
66,65.85,67.74,0
69,65.92,67.75,0
69,65.98,67.76,0
69,66.04,67.77,0
67,66.06,67.77,0
69,66.12,67.78,0
68,66.16,67.78,0
68,66.19,67.78,0
67,66.21,67.78,0
67,66.22,67.77,0
66,66.22,67.75,0
68,66.26,67.75,0
68,66.29,67.75,0
68,66.32,67.76,0
69,66.38,67.77,0
66,66.37,67.75,0
66,66.36,67.73,0
67,66.38,67.73,0
68,66.41,67.73,0
68,66.44,67.73,0
68,66.47,67.74,0
69,66.52,67.75,0
70,66.59,67.77,0
70,66.66,67.79,0
70,66.73,67.81,0
69,66.77,67.83,0
69,66.82,67.84,0
70,66.88,67.86,0
70,66.94,67.88,0
71,67.02,67.91,0
71,67.10,67.94,0
70,67.16,67.96,0
70,67.22,67.98,0
70,67.27,68.00,0
70,67.33,68.02,0
72,67.42,68.06,0
70,67.47,68.08,0
69,67.50,68.09,0
71,67.57,68.12,0
70,67.62,68.14,0
70,67.67,68.16,0
71,67.74,68.19,0
70,67.78,68.21,0
70,67.83,68.22,0
70,67.87,68.24,0
70,67.91,68.26,0
70,67.95,68.28,0
70,67.99,68.29,0
70,68.03,68.31,0
74,68.15,68.37,0
68,68.15,68.36,0
70,68.19,68.38,0
70,68.22,68.40,0
71,68.28,68.42,0
70,68.31,68.44,0
72,68.39,68.47,0
68,68.38,68.47,0
67,68.35,68.45,0
70,68.39,68.47,0
73,68.48,68.52,0
70,68.51,68.53,0
69,68.52,68.53,0
70,68.55,68.55,0
72,68.62,68.58,0
70,68.64,68.60,0
68,68.63,68.59,0
68,68.62,68.59,0
69,68.63,68.59,0
68,68.61,68.58,0
69,68.62,68.59,0
69,68.63,68.59,0
68,68.62,68.59,0
69,68.62,68.59,0
69,68.63,68.60,0
69,68.64,68.60,0
68,68.63,68.59,0
68,68.61,68.59,0
69,68.62,68.59,0
70,68.65,68.61,0
69,68.66,68.61,0
69,68.66,68.61,0
68,68.65,68.61,0
68,68.64,68.60,0
68,68.62,68.60,0
68,68.61,68.59,0
69,68.62,68.59,0
69,68.63,68.60,0
68,68.61,68.59,0
68,68.60,68.59,0
68,68.59,68.58,0
69,68.60,68.58,0
68,68.59,68.58,0
68,68.57,68.57,0
71,68.62,68.60,0
69,68.63,68.60,0
70,68.66,68.61,0
68,68.64,68.61,0
68,68.63,68.60,0
68,68.62,68.60,0
68,68.61,68.59,0
68,68.59,68.58,0
69,68.60,68.59,0
70,68.63,68.60,0
70,68.66,68.62,0
70,68.69,68.63,0
69,68.69,68.63,0
69,68.70,68.64,0
68,68.68,68.63,0
68,68.67,68.63,0
69,68.68,68.63,0
69,68.68,68.63,0
70,68.71,68.65,0
70,68.74,68.66,0
72,68.80,68.69,0
71,68.84,68.72,0
70,68.87,68.73,0
72,68.93,68.76,0
70,68.95,68.77,0
71,68.99,68.80,0
70,69.01,68.81,0
70,69.03,68.82,0
70,69.05,68.83,0
70,69.07,68.84,0
72,69.13,68.88,0
72,69.19,68.91,0
71,69.22,68.93,0
70,69.24,68.94,0
71,69.27,68.96,0
72,69.33,68.99,0
70,69.34,69.00,0
70,69.36,69.01,0
70,69.37,69.02,0
70,69.38,69.03,0
70,69.39,69.04,0
71,69.43,69.06,0
70,69.44,69.07,0
70,69.45,69.08,0
69,69.44,69.08,0
70,69.45,69.09,0
70,69.46,69.09,0
70,69.47,69.10,0
71,69.50,69.12,0
72,69.55,69.15,0
70,69.56,69.16,0
70,69.57,69.17,0
73,69.64,69.21,0
72,69.69,69.23,0
70,69.69,69.24,0
72,69.74,69.27,0
71,69.76,69.29,0
74,69.85,69.33,0
71,69.87,69.35,0
70,69.87,69.36,0
72,69.92,69.38,0
70,69.92,69.39,0
70,69.92,69.40,0
74,70.00,69.44,0
71,70.02,69.46,0
70,70.02,69.46,0
70,70.02,69.47,0
72,70.06,69.49,0
72,70.10,69.52,0
70,70.10,69.52,0
70,70.10,69.53,0
79,70.27,69.62,0
72,70.31,69.65,0
70,70.30,69.65,0
71,70.32,69.66,0
74,70.39,69.71,0
72,70.42,69.73,0
73,70.47,69.76,0
76,70.58,69.83,0
71,70.59,69.84,0
71,70.60,69.85,0
75,70.69,69.90,0
74,70.75,69.94,0
73,70.80,69.97,0
74,70.86,70.01,0
76,70.97,70.07,0
78,71.11,70.15,0
72,71.12,70.17,0
73,71.16,70.20,0
76,71.26,70.26,0
80,71.43,70.35,0
80,71.60,70.45,0
76,71.69,70.51,0
79,71.84,70.59,0
82,72.04,70.70,0
82,72.24,70.82,0
79,72.38,70.90,0
77,72.47,70.96,0
78,72.58,71.03,0
78,72.69,71.10,0
79,72.81,71.18,0
77,72.90,71.24,0
76,72.96,71.29,0
79,73.08,71.36,0
78,73.18,71.43,0
77,73.26,71.48,0
79,73.37,71.56,0
81,73.52,71.65,0
84,73.73,71.78,0
79,73.84,71.85,0
78,73.92,71.91,0
78,74.00,71.97,0
79,74.10,72.04,0
81,74.24,72.13,0
82,74.40,72.23,0
78,74.47,72.29,0
78,74.54,72.35,0
78,74.61,72.40,0
80,74.72,72.48,0
84,74.90,72.59,0
83,75.06,72.70,0
80,75.16,72.77,0
82,75.30,72.86,0
82,75.43,72.95,0
85,75.62,73.07,0
83,75.77,73.17,0
82,75.90,73.26,0
84,76.06,73.37,0
85,76.24,73.49,0
82,76.35,73.57,0
82,76.47,73.66,0
86,76.66,73.78,0
94,77.00,73.98,0
88,77.22,74.12,0
84,77.36,74.22,0
84,77.49,74.32,0
85,77.64,74.42,0
87,77.83,74.55,0
88,78.03,74.68,0
88,78.23,74.82,0
86,78.39,74.93,0
86,78.54,75.04,0
84,78.65,75.13,0
84,78.76,75.22,0
86,78.90,75.33,0
84,79.00,75.41,0
84,79.10,75.50,0
86,79.24,75.60,0
85,79.36,75.70,0
85,79.47,75.79,0
84,79.56,75.87,0
86,79.69,75.97,0
85,79.79,76.06,0
85,79.90,76.15,0
85,80.00,76.24,0
86,80.12,76.34,0
89,80.30,76.47,0
92,80.53,76.62,0
93,80.78,76.79,0
92,81.01,76.94,0
88,81.15,77.05,0
90,81.32,77.18,0
93,81.56,77.34,0
88,81.68,77.44,0
90,81.85,77.57,0
89,81.99,77.68,0
92,82.19,77.83,0
100,82.55,78.05,0
97,82.84,78.24,0
98,83.14,78.43,0
92,83.32,78.57,0
94,83.53,78.72,0
101,83.88,78.95,0
105,84.31,79.21,0
99,84.60,79.41,0
97,84.85,79.58,0
96,85.07,79.75,0
101,85.39,79.96,0
102,85.72,80.18,0
101,86.03,80.39,0
97,86.25,80.55,0
95,86.42,80.70,0
98,86.65,80.87,0
102,86.96,81.08,0
101,87.24,81.28,0
101,87.52,81.48,0
98,87.73,81.64,0
99,87.95,81.82,0
97,88.13,81.97,0
97,88.31,82.12,0
96,88.46,82.26,0
96,88.61,82.40,0
97,88.78,82.54,0
98,88.97,82.70,0
99,89.17,82.86,0
99,89.36,83.02,0
95,89.48,83.14,0
96,89.61,83.27,0
100,89.81,83.44,0
100,90.02,83.60,0
99,90.20,83.76,0
100,90.39,83.92,0
95,90.49,84.03,0
103,90.74,84.22,0
109,91.10,84.47,0
102,91.32,84.64,0
104,91.57,84.84,0
108,91.90,85.07,0
105,92.16,85.27,0
103,92.38,85.44,0
101,92.55,85.60,0
101,92.72,85.75,0
102,92.91,85.92,0
104,93.13,86.10,0
104,93.35,86.28,0
105,93.58,86.46,0
105,93.81,86.65,0
103,93.99,86.81,0
105,94.21,86.99,0
103,94.39,87.15,0
102,94.54,87.30,0
103,94.71,87.46,0
104,94.89,87.62,0
105,95.10,87.80,0
105,95.30,87.97,0
104,95.47,88.13,0
105,95.66,88.30,0
108,95.91,88.50,0
115,96.29,88.76,0
108,96.52,88.95,0
107,96.73,89.13,0
113,97.06,89.37,0
109,97.30,89.57,0
109,97.53,89.76,0
110,97.78,89.97,0
110,98.02,90.17,0
113,98.32,90.39,0
114,98.64,90.63,0
109,98.84,90.81,0
107,99.01,90.98,0
113,99.29,91.20,0
107,99.44,91.35,0
111,99.67,91.55,0
109,99.86,91.73,0
110,100.06,91.91,0
111,100.28,92.10,0
110,100.48,92.28,0
110,100.67,92.46,0
113,100.91,92.66,0
111,101.11,92.84,0
109,101.27,93.01,0
111,101.47,93.19,0
111,101.66,93.36,0
114,101.90,93.57,0
113,102.13,93.76,0
110,102.28,93.93,0
115,102.54,94.14,0
112,102.73,94.32,0
110,102.87,94.47,0
110,103.02,94.63,0
116,103.27,94.84,0
114,103.49,95.03,0
111,103.64,95.19,0
110,103.77,95.34,0
110,103.89,95.49,0
114,104.09,95.67,0
117,104.35,95.89,0
114,104.54,96.07,0
116,104.77,96.27,0
117,105.02,96.47,0
115,105.22,96.66,0
114,105.39,96.83,0
112,105.53,96.98,0
114,105.70,97.15,0
115,105.88,97.33,0
112,106.00,97.48,0
112,106.12,97.63,0
114,106.28,97.79,0
113,106.42,97.94,0
115,106.59,98.11,0
121,106.88,98.34,0
116,107.06,98.52,0
113,107.18,98.66,0
116,107.35,98.84,0
115,107.51,99.00,0
116,107.68,99.17,0
116,107.84,99.34,0
117,108.03,99.51,0
117,108.21,99.69,0
116,108.36,99.85,0
116,108.51,100.01,0
116,108.66,100.17,0
118,108.85,100.35,0
125,109.17,100.60,0
123,109.45,100.82,0
121,109.68,101.02,0
119,109.87,101.20,0
117,110.01,101.36,0
117,110.15,101.52,0
119,110.33,101.69,0
117,110.46,101.84,0
124,110.73,102.07,0
124,111.00,102.28,0
121,111.20,102.47,0
125,111.47,102.70,0
121,111.66,102.88,0
121,111.85,103.06,0
119,111.99,103.22,0
125,112.25,103.44,0
126,112.53,103.66,0
121,112.70,103.84,0
121,112.86,104.01,0
129,113.19,104.26,0
129,113.50,104.51,0
127,113.77,104.73,0
125,114.00,104.93,0
124,114.20,105.12,0
124,114.39,105.31,0
123,114.57,105.49,0
124,114.75,105.68,0
121,114.88,105.83,0
123,115.04,106.00,0
122,115.18,106.16,0
123,115.34,106.33,0
123,115.49,106.50,0
127,115.72,106.70,0
123,115.87,106.86,0
124,116.03,107.04,0
125,116.21,107.21,0
123,116.34,107.37,0
131,116.64,107.61,0
129,116.88,107.82,0
126,117.07,108.00,0
127,117.27,108.19,0
129,117.50,108.40,0
130,117.75,108.62,0
128,117.95,108.81,0
132,118.24,109.04,0
131,118.49,109.26,0
127,118.66,109.44,0
128,118.85,109.63,0
127,119.01,109.80,0
127,119.17,109.97,0
130,119.39,110.17,0
126,119.52,110.33,0
127,119.67,110.50,0
127,119.82,110.66,0
126,119.94,110.82,0
128,120.10,110.99,0
128,120.26,111.16,0
129,120.43,111.34,0
125,120.52,111.47,0
127,120.65,111.63,0
127,120.78,111.78,0
132,121.01,111.98,0
133,121.25,112.19,0
128,121.38,112.35,0
128,121.51,112.51,0
128,121.64,112.66,0
127,121.75,112.81,0
127,121.86,112.95,0
127,121.96,113.09,0
127,122.06,113.23,0
127,122.16,113.37,0
127,122.25,113.50,0
126,122.33,113.63,0
128,122.44,113.77,0
128,122.55,113.91,0
125,122.60,114.02,0
126,122.67,114.14,0
126,122.74,114.26,0
125,122.78,114.37,0
125,122.83,114.48,0
125,122.87,114.58,0
125,122.91,114.69,0
125,122.95,114.79,0
125,123.00,114.89,0
125,123.04,114.99,0
125,123.08,115.09,0
125,123.11,115.19,0
125,123.15,115.29,0
123,123.15,115.37,0
124,123.17,115.45,0
124,123.18,115.54,0
123,123.18,115.61,0
124,123.19,115.70,0
124,123.21,115.78,0
124,123.23,115.86,0
123,123.22,115.93,0
122,123.20,115.99,0
123,123.19,116.06,0
123,123.19,116.13,0
123,123.19,116.20,0
121,123.14,116.25,0
121,123.10,116.30,0
121,123.06,116.34,0
121,123.02,116.39,0
122,123.00,116.45,0
121,122.96,116.49,0
120,122.90,116.53,0
120,122.84,116.56,0
120,122.78,116.60,0
120,122.73,116.63,0
120,122.67,116.66,0
120,122.62,116.70,0
120,122.57,116.73,0
121,122.54,116.77,0
119,122.46,116.80,0
120,122.42,116.83,0
120,122.37,116.86,0
119,122.30,116.88,0
121,122.27,116.92,0
119,122.21,116.94,0
119,122.14,116.96,0
119,122.08,116.98,0
119,122.02,117.00,0
118,121.94,117.01,0
119,121.88,117.03,0
119,121.82,117.05,0
119,121.77,117.07,0
117,121.67,117.07,0
117,121.58,117.07,0
118,121.51,117.08,0
117,121.42,117.08,0
117,121.33,117.08,0
118,121.26,117.09,0
117,121.18,117.09,0
117,121.09,117.09,0
117,121.01,117.09,0
119,120.97,117.11,0
117,120.89,117.10,0
116,120.79,117.09,0
117,120.72,117.09,0
116,120.62,117.08,0
117,120.55,117.08,0
117,120.48,117.08,0
116,120.39,117.07,0
115,120.28,117.05,0
116,120.20,117.04,0
116,120.11,117.03,0
117,120.05,117.03,0
116,119.97,117.02,0
115,119.87,117.00,0
116,119.79,116.99,0
115,119.70,116.97,0
115,119.60,116.95,0
116,119.53,116.94,0
113,119.40,116.90,0
114,119.29,116.87,0
114,119.19,116.84,0
113,119.06,116.80,0
113,118.94,116.76,0
113,118.82,116.73,0
113,118.71,116.69,0
113,118.59,116.65,0
113,118.48,116.62,0
113,118.37,116.58,0
113,118.26,116.54,0
113,118.16,116.51,0
113,118.05,116.47,0
113,117.95,116.44,0
113,117.85,116.40,0
111,117.72,116.35,0
113,117.62,116.32,0
111,117.49,116.26,0
111,117.36,116.21,0
111,117.23,116.16,0
111,117.11,116.11,0
111,116.99,116.06,0
110,116.85,116.00,0
109,116.69,115.93,0
111,116.58,115.88,0
111,116.46,115.83,0
110,116.34,115.77,0
111,116.23,115.72,0
110,116.10,115.66,0
109,115.96,115.60,0
109,115.82,115.53,0
109,115.69,115.47,0
109,115.55,115.40,0
109,115.42,115.34,0
109,115.29,115.27,0
109,115.17,115.21,0
107,115.00,115.13,0
109,114.88,115.07,0
109,114.77,115.01,0
109,114.65,114.95,0
108,114.52,114.88,0
107,114.37,114.80,0
109,114.26,114.74,0
108,114.13,114.67,0
108,114.01,114.61,0
107,113.87,114.53,0
108,113.75,114.47,0
107,113.62,114.39,0
108,113.51,114.33,0
107,113.38,114.25,0
106,113.23,114.17,0
107,113.10,114.10,0
107,112.98,114.03,0
107,112.86,113.96,0
107,112.75,113.89,0
106,112.61,113.81,0
105,112.46,113.72,0
106,112.33,113.64,0
105,112.18,113.56,0
105,112.04,113.47,0
105,111.90,113.39,0
109,111.84,113.34,0
105,111.70,113.26,0
105,111.57,113.18,0
104,111.42,113.09,0
104,111.27,113.00,0
104,111.12,112.91,0
105,111.00,112.83,0
104,110.86,112.74,0
105,110.74,112.66,0
103,110.59,112.56,0
104,110.46,112.48,0
104,110.33,112.39,0
103,110.18,112.30,0
103,110.04,112.21,0
103,109.90,112.11,0
104,109.78,112.03,0
103,109.64,111.94,0
101,109.47,111.83,0
102,109.32,111.74,0
103,109.20,111.65,0
102,109.05,111.55,0
103,108.93,111.47,0
102,108.79,111.37,0
101,108.64,111.27,0
101,108.48,111.16,0
102,108.35,111.07,0
101,108.21,110.97,0
101,108.06,110.87,0
101,107.92,110.77,0
101,107.78,110.68,0
100,107.63,110.57,0
101,107.49,110.47,0
101,107.36,110.38,0
100,107.22,110.28,0
101,107.09,110.18,0
99,106.93,110.07,0
99,106.77,109.96,0
100,106.64,109.86,0
100,106.50,109.76,0
99,106.35,109.65,0
99,106.21,109.55,0
99,106.06,109.44,0
98,105.90,109.33,0
97,105.72,109.20,0
98,105.57,109.09,0
98,105.42,108.98,0
97,105.25,108.86,0
99,105.12,108.76,0
100,105.02,108.68,0
98,104.88,108.57,0
98,104.74,108.46,0
98,104.61,108.36,0
100,104.52,108.27,0
98,104.39,108.17,0
98,104.26,108.07,0
98,104.13,107.97,0
98,104.01,107.87,0
96,103.85,107.75,0
96,103.69,107.63,0
96,103.54,107.52,0
98,103.43,107.42,0
98,103.32,107.33,0
96,103.17,107.21,0
97,103.05,107.11,0
98,102.95,107.02,0
99,102.87,106.94,0
98,102.77,106.85,0
97,102.66,106.75,0
96,102.52,106.65,0
96,102.39,106.54,0
95,102.25,106.42,0
96,102.12,106.32,0
95,101.98,106.21,0
96,101.86,106.10,0
94,101.70,105.98,0
96,101.59,105.88,0
96,101.48,105.78,0
96,101.37,105.69,0
95,101.24,105.58,0
96,101.13,105.48,0
94,100.99,105.37,0
95,100.87,105.27,0
94,100.73,105.15,0
95,100.62,105.05,0
94,100.49,104.94,0
94,100.36,104.83,0
94,100.23,104.72,0
94,100.11,104.62,0
94,99.98,104.51,0
94,99.86,104.40,0
94,99.75,104.30,0
94,99.63,104.20,0
93,99.50,104.09,0
93,99.37,103.97,0
94,99.26,103.88,0
93,99.14,103.77,0
95,99.05,103.68,0
95,98.97,103.59,0
95,98.89,103.51,0
93,98.78,103.40,0
94,98.68,103.31,0
94,98.59,103.21,0
93,98.47,103.11,0
93,98.37,103.01,0
93,98.26,102.91,0
93,98.15,102.81,0
94,98.07,102.72,0
93,97.97,102.63,0
93,97.87,102.53,0
93,97.77,102.43,0
93,97.68,102.34,0
92,97.56,102.24,0
93,97.47,102.14,0
93,97.38,102.05,0
92,97.27,101.95,0
93,97.19,101.86,0
93,97.11,101.77,0
92,97.00,101.68,0
92,96.90,101.58,0
93,96.82,101.49,0
92,96.73,101.40,0
93,96.65,101.32,0
93,96.58,101.23,0
93,96.51,101.15,0
91,96.40,101.05,0
93,96.33,100.97,0
93,96.26,100.89,0
93,96.20,100.81,0
93,96.14,100.73,0
92,96.05,100.64,0
91,95.95,100.55,0
91,95.85,100.45,0
93,95.80,100.38,0
91,95.70,100.28,0
92,95.63,100.20,0
91,95.53,100.11,0
89,95.40,100.00,0
91,95.31,99.91,0
92,95.25,99.83,0
92,95.18,99.75,0
91,95.10,99.66,0
90,95.00,99.57,0
91,94.92,99.48,0
93,94.88,99.42,0
92,94.82,99.34,0
90,94.73,99.25,0
92,94.67,99.18,0
92,94.62,99.10,0
92,94.56,99.03,0
91,94.49,98.95,0
90,94.40,98.86,0
89,94.30,98.76,0
89,94.19,98.67,0
89,94.09,98.57,0
90,94.00,98.48,0
89,93.90,98.39,0
90,93.83,98.31,0
90,93.75,98.22,0
89,93.65,98.13,0
91,93.60,98.06,0
92,93.57,98.00,0
89,93.48,97.91,0
90,93.41,97.83,0
89,93.32,97.74,0
89,93.23,97.65,0
90,93.17,97.58,0
88,93.07,97.48,0
88,92.96,97.39,0
89,92.89,97.30,0
88,92.79,97.21,0
88,92.69,97.12,0
88,92.60,97.03,0
89,92.53,96.95,0
88,92.44,96.86,0
88,92.35,96.77,0
88,92.26,96.68,0
88,92.17,96.59,0
86,92.05,96.49,0
87,91.95,96.39,0
87,91.85,96.30,0
87,91.75,96.21,0
86,91.64,96.10,0
86,91.53,96.00,0
86,91.42,95.90,0
86,91.31,95.80,0
86,91.20,95.71,0
86,91.10,95.61,0
86,91.00,95.51,0
86,90.90,95.42,0
86,90.80,95.32,0
86,90.70,95.23,0
86,90.61,95.14,0
86,90.52,95.05,0
86,90.43,94.96,0
86,90.34,94.87,0
86,90.25,94.78,0
86,90.16,94.69,0
84,90.04,94.58,0
86,89.96,94.50,0
85,89.86,94.40,0
84,89.74,94.30,0
84,89.63,94.20,0
85,89.54,94.10,0
85,89.45,94.01,0
85,89.36,93.92,0
84,89.25,93.82,0
86,89.18,93.74,0
86,89.12,93.67,0
86,89.06,93.59,0
84,88.96,93.49,0
88,88.94,93.44,0
86,88.88,93.37,0
86,88.82,93.29,0
86,88.77,93.22,0
86,88.71,93.15,0
85,88.64,93.07,0
84,88.54,92.97,0
85,88.47,92.89,0
84,88.38,92.81,0
84,88.30,92.72,0
84,88.21,92.63,0
84,88.13,92.54,0
84,88.04,92.46,0
83,87.94,92.36,0
84,87.86,92.28,0
84,87.79,92.20,0
81,87.65,92.09,0
84,87.58,92.00,0
82,87.47,91.90,0
82,87.36,91.81,0
84,87.29,91.73,0
84,87.22,91.65,0
83,87.14,91.56,0
84,87.08,91.49,0
80,86.93,91.37,0
82,86.84,91.28,0
83,86.76,91.20,0
82,86.66,91.10,0
82,86.57,91.01,0
82,86.48,90.92,0
82,86.39,90.83,0
84,86.34,90.77,0
82,86.26,90.68,0
84,86.21,90.61,0
84,86.17,90.55,0
82,86.08,90.46,0
82,86.00,90.38,0
84,85.96,90.31,0
82,85.88,90.23,0
81,85.78,90.14,0
82,85.71,90.05,0
81,85.61,89.96,0
82,85.54,89.88,0
82,85.47,89.81,0
81,85.38,89.72,0
84,85.35,89.66,0
82,85.29,89.58,0
81,85.20,89.50,0
80,85.10,89.40,0
81,85.02,89.32,0
83,84.97,89.26,0
84,84.96,89.20,0
80,84.86,89.11,0
81,84.78,89.03,0
81,84.70,88.95,0
80,84.61,88.86,0
80,84.52,88.77,0
81,84.45,88.69,0
81,84.38,88.62,0
80,84.29,88.53,0
80,84.20,88.45,0
80,84.12,88.36,0
80,84.04,88.28,0
80,83.96,88.19,0
78,83.84,88.09,0
81,83.78,88.02,0
79,83.69,87.93,0
80,83.61,87.85,0
78,83.50,87.75,0
80,83.43,87.68,0
82,83.40,87.62,0
79,83.31,87.53,0
78,83.21,87.44,0
79,83.12,87.35,0
79,83.04,87.27,0
78,82.94,87.18,0
78,82.84,87.09,0
80,82.78,87.01,0
80,82.73,86.94,0
80,82.67,86.88,0
80,82.62,86.81,0
79,82.55,86.73,0
80,82.50,86.66,0
80,82.45,86.59,0
82,82.44,86.55,0
81,82.41,86.49,0
80,82.36,86.43,0
78,82.27,86.34,0
79,82.21,86.27,0
79,82.14,86.20,0
79,82.08,86.13,0
80,82.04,86.06,0
78,81.96,85.98,0
79,81.90,85.91,0
80,81.86,85.86,0
78,81.78,85.78,0
79,81.73,85.71,0
78,81.65,85.63,0
78,81.58,85.56,0
78,81.51,85.48,0
78,81.44,85.40,0
78,81.37,85.33,0
79,81.32,85.27,0
78,81.26,85.19,0
78,81.19,85.12,0
77,81.11,85.04,0
78,81.05,84.97,0
78,80.98,84.90,0
78,80.93,84.83,0
77,80.85,84.75,0
78,80.79,84.69,0
78,80.73,84.62,0
78,80.68,84.55,0
78,80.63,84.49,0
80,80.61,84.44,0
80,80.60,84.40,0
77,80.53,84.32,0
78,80.48,84.26,0
78,80.43,84.20,0
77,80.36,84.13,0
77,80.29,84.06,0
78,80.25,84.00,0
77,80.18,83.93,0
80,80.18,83.89,0
78,80.13,83.83,0
77,80.07,83.76,0
78,80.03,83.70,0
76,79.95,83.62,0
76,79.87,83.55,0
76,79.79,83.47,0
77,79.74,83.41,0
75,79.64,83.32,0
76,79.57,83.25,0
78,79.54,83.20,0
76,79.47,83.13,0
76,79.40,83.05,0
76,79.33,82.98,0
76,79.26,82.91,0
76,79.20,82.85,0
76,79.13,82.78,0
76,79.07,82.71,0
76,79.01,82.64,0
76,78.95,82.58,0
77,78.91,82.52,0
76,78.85,82.45,0
76,78.80,82.39,0
76,78.74,82.33,0
76,78.69,82.26,0
75,78.61,82.19,0
77,78.58,82.14,0
76,78.53,82.08,0
76,78.48,82.02,0
75,78.41,81.95,0
76,78.36,81.89,0
76,78.31,81.83,0
74,78.23,81.75,0
74,78.14,81.67,0
75,78.08,81.61,0
76,78.04,81.55,0
74,77.96,81.47,0
74,77.88,81.40,0
75,77.82,81.33,0
75,77.76,81.27,0
74,77.69,81.20,0
73,77.59,81.12,0
75,77.54,81.06,0
74,77.47,80.99,0
74,77.40,80.92,0
74,77.33,80.85,0
73,77.25,80.77,0
73,77.16,80.69,0
74,77.10,80.62,0
72,77.00,80.54,0
73,76.92,80.46,0
72,76.82,80.38,0
72,76.72,80.29,0
72,76.63,80.21,0
73,76.56,80.14,0
74,76.50,80.08,0
72,76.41,80.00,0
72,76.33,79.92,0
73,76.26,79.85,0
74,76.21,79.79,0
72,76.13,79.71,0
72,76.05,79.63,0
73,75.99,79.57,0
74,75.95,79.51,0
74,75.91,79.46,0
74,75.87,79.40,0
74,75.83,79.35,0
72,75.76,79.27,0
74,75.72,79.22,0
76,75.73,79.19,0
75,75.71,79.15,0
74,75.68,79.10,0
74,75.64,79.04,0
74,75.61,78.99,0
72,75.54,78.92,0
74,75.51,78.88,0
74,75.48,78.83,0
74,75.45,78.78,0
73,75.40,78.72,0
74,75.37,78.67,0
74,75.34,78.63,0
74,75.32,78.58,0
72,75.25,78.51,0
72,75.19,78.45,0
72,75.12,78.38,0
72,75.06,78.32,0
72,75.00,78.26,0
74,74.98,78.22,0
72,74.92,78.15,0
72,74.86,78.09,0
72,74.80,78.03,0
74,74.79,77.99,0
72,74.73,77.93,0
72,74.68,77.87,0
72,74.62,77.81,0
74,74.61,77.77,0
70,74.52,77.70,0
71,74.45,77.63,0
72,74.40,77.57,0
71,74.33,77.51,0
72,74.28,77.45,0
71,74.22,77.39,0
70,74.13,77.31,0
72,74.09,77.26,0
70,74.01,77.19,0
70,73.93,77.12,0
71,73.87,77.06,0
72,73.83,77.00,0
70,73.76,76.93,0
70,73.68,76.87,0
70,73.61,76.80,0
69,73.52,76.72,0
70,73.45,76.65,0
70,73.38,76.58,0
71,73.33,76.53,0
76,73.38,76.52,0
69,73.30,76.45,0
70,73.23,76.38,0
70,73.16,76.32,0
70,73.10,76.26,0
69,73.02,76.18,0
70,72.96,76.12,0
70,72.90,76.06,0
69,72.82,75.99,0
72,72.81,75.95,0
70,72.75,75.89,0
70,72.69,75.83,0
72,72.68,75.79,0
72,72.67,75.76,0
72,72.65,75.72,0
75,72.70,75.71,0
72,72.69,75.67,0
70,72.63,75.62,0
70,72.58,75.56,0
70,72.53,75.51,0
72,72.52,75.47,0
71,72.49,75.43,0
72,72.48,75.39,0
72,72.47,75.36,0
72,72.46,75.32,0
71,72.43,75.28,0
70,72.38,75.23,0
70,72.33,75.18,0
71,72.31,75.13,0
72,72.30,75.10,0
72,72.29,75.07,0
73,72.31,75.05,0
72,72.30,75.02,0
70,72.26,74.97,0
70,72.21,74.92,0
72,72.21,74.89,0
71,72.18,74.85,0
70,72.14,74.80,0
71,72.12,74.77,0
72,72.11,74.74,0
72,72.11,74.71,0
72,72.11,74.68,0
70,72.07,74.64,0
71,72.05,74.60,0
70,72.01,74.55,0
70,71.97,74.51,0
70,71.93,74.46,0
71,71.91,74.43,0
72,71.91,74.41,0
74,71.95,74.40,0
72,71.95,74.38,0
71,71.93,74.34,0
70,71.89,74.30,0
70,71.86,74.26,0
70,71.82,74.21,0
71,71.80,74.18,0
72,71.81,74.16,0
70,71.77,74.12,0
72,71.78,74.10,0
73,71.80,74.09,0
72,71.80,74.07,0
72,71.81,74.05,0
72,71.81,74.02,0
72,71.82,74.00,0
72,71.82,73.98,0
74,71.86,73.98,0
74,71.91,73.98,0
74,71.95,73.98,0
72,71.95,73.96,0
73,71.97,73.96,0
72,71.97,73.94,0
72,71.97,73.92,0
71,71.95,73.89,0
71,71.93,73.86,0
72,71.93,73.84,0
71,71.91,73.81,0
72,71.92,73.79,0
72,71.92,73.78,0
73,71.94,73.77,0
74,71.98,73.77,0
72,71.98,73.75,0
74,72.02,73.75,0
73,72.04,73.75,0
72,72.04,73.73,0
76,72.12,73.75,0
74,72.16,73.75,0
74,72.19,73.76,0
74,72.23,73.76,0
72,72.23,73.74,0
72,72.22,73.72,0
72,72.22,73.71,0
72,72.21,73.69,0
73,72.23,73.68,0
72,72.22,73.67,0
72,72.22,73.65,0
72,72.21,73.63,0
72,72.21,73.62,0
71,72.19,73.59,0
72,72.18,73.58,0
72,72.18,73.56,0
72,72.18,73.54,0
72,72.17,73.53,0
70,72.13,73.49,0
73,72.15,73.49,0
72,72.14,73.47,0
72,72.14,73.46,0
71,72.12,73.43,0
72,72.11,73.42,0
72,72.11,73.41,0
72,72.11,73.39,0
71,72.09,73.37,0
72,72.09,73.35,0
72,72.08,73.34,0
70,72.04,73.31,0
71,72.02,73.28,0
75,72.08,73.30,0
73,72.10,73.30,0
72,72.10,73.28,0
72,72.10,73.27,0
73,72.11,73.27,0
72,72.11,73.26,0
72,72.11,73.24,0
72,72.11,73.23,0
69,72.05,73.19,0
71,72.02,73.17,0
72,72.02,73.16,0
72,72.02,73.14,0
73,72.04,73.14,0
72,72.04,73.13,0
72,72.04,73.12,0
72,72.04,73.11,0
72,72.04,73.10,0
71,72.02,73.08,0
70,71.98,73.05,0
70,71.94,73.02,0
71,71.92,73.00,0
71,71.90,72.98,0
70,71.86,72.95,0
70,71.83,72.92,0
71,71.81,72.90,0
72,71.81,72.89,0
72,71.82,72.88,0
71,71.80,72.86,0
71,71.79,72.84,0
70,71.75,72.81,0
70,71.71,72.79,0
72,71.72,72.78,0
72,71.73,72.77,0
72,71.73,72.76,0
72,71.74,72.75,0
72,71.74,72.75,0
71,71.73,72.73,0
70,71.69,72.70,0
70,71.66,72.67,0
72,71.67,72.67,0
73,71.69,72.67,0
72,71.70,72.66,0
70,71.66,72.64,0
72,71.67,72.63,0
73,71.70,72.64,0
72,71.70,72.63,0
71,71.69,72.61,0
70,71.66,72.59,0
71,71.64,72.57,0
70,71.61,72.55,0
70,71.58,72.52,0
70,71.55,72.49,0
71,71.54,72.48,0
70,71.50,72.45,0
72,71.51,72.45,0
72,71.52,72.45,0
71,71.51,72.43,0
70,71.48,72.41,0
71,71.47,72.39,0
72,71.48,72.39,0
74,71.53,72.41,0
76,71.62,72.44,0
73,71.65,72.45,0
71,71.64,72.43,0
72,71.65,72.43,0
74,71.69,72.44,0
73,71.72,72.45,0
76,71.80,72.48,0
74,71.85,72.50,0
74,71.89,72.51,0
74,71.93,72.53,0
72,71.93,72.52,0
71,71.92,72.51,0
74,71.96,72.52,0
72,71.96,72.52,0
71,71.94,72.50,0
71,71.92,72.49,0
72,71.92,72.48,0
72,71.92,72.48,0
73,71.95,72.48,0
72,71.95,72.48,0
73,71.97,72.48,0
71,71.95,72.47,0
72,71.95,72.46,0
71,71.93,72.45,0
72,71.93,72.45,0
72,71.93,72.44,0
71,71.91,72.43,0
72,71.92,72.42,0
72,71.92,72.42,0
72,71.92,72.41,0
72,71.92,72.41,0
73,71.94,72.42,0
72,71.94,72.41,0
71,71.92,72.40,0
70,71.89,72.37,0
71,71.87,72.36,0
72,71.87,72.36,0
72,71.87,72.35,0
72,71.88,72.35,0
71,71.86,72.34,0
72,71.86,72.33,0
72,71.86,72.33,0
72,71.87,72.33,0
71,71.85,72.31,0
71,71.83,72.30,0
70,71.80,72.28,0
71,71.78,72.26,0
71,71.76,72.25,0
72,71.77,72.25,0
70,71.73,72.23,0
70,71.70,72.20,0
71,71.69,72.19,0
70,71.65,72.17,0
70,71.62,72.15,0
70,71.59,72.13,0
72,71.59,72.13,0
71,71.58,72.11,0
70,71.55,72.09,0
70,71.52,72.07,0
72,71.53,72.07,0
71,71.52,72.06,0
72,71.53,72.06,0
71,71.52,72.05,0
74,71.57,72.07,0
72,71.58,72.07,0
72,71.58,72.07,0
70,71.55,72.05,0
72,71.56,72.05,0
72,71.57,72.05,0
72,71.58,72.05,0
74,71.63,72.07,0
73,71.66,72.07,0
72,71.66,72.07,0
71,71.65,72.06,0
72,71.66,72.06,0
71,71.64,72.05,0
72,71.65,72.05,0
72,71.66,72.05,0
72,71.66,72.05,0
71,71.65,72.04,0
72,71.66,72.04,0
73,71.68,72.05,0
74,71.73,72.07,0
72,71.74,72.07,0
72,71.74,72.07,0
72,71.75,72.07,0
72,71.75,72.07,0
71,71.74,72.05,0
70,71.70,72.03,0
72,71.71,72.03,0
72,71.71,72.03,0
71,71.70,72.02,0
73,71.73,72.03,0
72,71.73,72.03,0
72,71.74,72.03,0
70,71.70,72.01,0
70,71.67,71.99,0
72,71.67,71.99,0
72,71.68,71.99,0
72,71.69,71.99,0
71,71.67,71.98,0
71,71.66,71.97,0
71,71.65,71.96,0
72,71.65,71.96,0
72,71.66,71.96,0
72,71.67,71.96,0
72,71.67,71.96,0
72,71.68,71.96,0
74,71.73,71.99,0
74,71.77,72.01,0
73,71.80,72.02,0
76,71.88,72.05,0
74,71.92,72.07,0
72,71.93,72.07,0
71,71.91,72.06,0
73,71.93,72.07,0
72,71.93,72.07,0
72,71.93,72.07,0
72,71.93,72.07,0
74,71.97,72.09,0
72,71.97,72.09,0
72,71.98,72.09,0
71,71.96,72.08,0
71,71.94,72.07,0
71,71.92,72.06,0
72,71.92,72.05,0
72,71.92,72.05,0
72,71.92,72.05,0
70,71.88,72.03,0
70,71.85,72.01,0
74,71.89,72.03,0
72,71.89,72.03,0
76,71.97,72.07,0
72,71.97,72.07,0
72,71.97,72.07,0
73,72.00,72.08,0
72,72.00,72.08,0
73,72.02,72.09,0
71,72.00,72.08,0
73,72.02,72.09,0
71,72.00,72.08,0
74,72.04,72.10,0
74,72.07,72.11,0
73,72.09,72.12,0
73,72.11,72.13,0
76,72.19,72.17,0
74,72.23,72.19,0
73,72.24,72.20,0
74,72.28,72.21,0
72,72.27,72.21,0
72,72.26,72.21,0
73,72.28,72.22,0
73,72.29,72.23,0
72,72.29,72.22,0
72,72.28,72.22,0
74,72.32,72.24,0
76,72.39,72.28,0
72,72.38,72.27,0
74,72.41,72.29,0
74,72.45,72.31,0
74,72.48,72.33,0
74,72.51,72.34,0
74,72.54,72.36,0
73,72.55,72.37,0
74,72.58,72.38,0
74,72.60,72.40,0
76,72.67,72.43,0
76,72.74,72.47,0
74,72.76,72.48,0
78,72.87,72.54,0
74,72.89,72.55,0
76,72.95,72.59,0
76,73.01,72.62,0
74,73.03,72.64,0
74,73.05,72.65,0
74,73.07,72.66,0
76,73.13,72.70,0
77,73.21,72.74,0
78,73.30,72.79,0
79,73.42,72.86,0
78,73.51,72.91,0
78,73.60,72.96,0
76,73.65,72.99,0
78,73.73,73.04,0
78,73.82,73.09,0
76,73.86,73.12,0
84,74.07,73.23,0
83,74.25,73.32,0
77,74.30,73.36,0
79,74.39,73.42,0
79,74.49,73.47,0
78,74.56,73.52,0
76,74.59,73.54,0
79,74.67,73.60,0
81,74.80,73.67,0
82,74.94,73.75,0
80,75.05,73.82,0
79,75.12,73.87,0
79,75.20,73.92,0
79,75.28,73.97,0
80,75.37,74.03,0
79,75.45,74.08,0
80,75.54,74.14,0
80,75.63,74.20,0
82,75.75,74.28,0
80,75.84,74.33,0
79,75.90,74.38,0
82,76.02,74.46,0
86,76.22,74.57,0
84,76.38,74.67,0
85,76.55,74.77,0
87,76.76,74.89,0
83,76.88,74.97,0
81,76.97,75.03,0
82,77.07,75.10,0
82,77.17,75.17,0
84,77.30,75.26,0
82,77.40,75.33,0
85,77.55,75.42,0
83,77.66,75.50,0
88,77.86,75.63,0
92,78.15,75.79,0
86,78.30,75.89,0
83,78.40,75.96,0
84,78.51,76.04,0
84,78.62,76.12,0
85,78.75,76.21,0
90,78.97,76.35,0
86,79.11,76.45,0
87,79.27,76.55,0
87,79.43,76.66,0
85,79.54,76.74,0
87,79.69,76.84,0
85,79.79,76.92,0
86,79.92,77.01,0
85,80.02,77.09,0
85,80.12,77.17,0
87,80.26,77.27,0
84,80.33,77.34,0
87,80.46,77.43,0
85,80.55,77.51,0
89,80.72,77.63,0
92,80.95,77.77,0
90,81.13,77.89,0
86,81.23,77.97,0
88,81.36,78.07,0
90,81.54,78.19,0
89,81.69,78.30,0
90,81.85,78.42,0
88,81.97,78.51,0
88,82.09,78.61,0
92,82.29,78.74,0
92,82.49,78.87,0
92,82.68,79.01,0
88,82.78,79.10,0
93,82.99,79.23,0
90,83.13,79.34,0
91,83.29,79.46,0
96,83.54,79.62,0
95,83.77,79.78,0
91,83.91,79.89,0
92,84.08,80.01,0
93,84.25,80.14,0
97,84.51,80.31,0
94,84.70,80.45,0
92,84.84,80.56,0
90,84.95,80.66,0
95,85.15,80.80,0
94,85.33,80.93,0
94,85.50,81.06,0
94,85.67,81.19,0
95,85.86,81.33,0
92,85.98,81.44,0
94,86.14,81.56,0
102,86.46,81.77,0
104,86.81,81.99,0
101,87.09,82.18,0
96,87.27,82.32,0
100,87.52,82.49,0
106,87.89,82.73,0
102,88.18,82.92,0
105,88.51,83.14,0
101,88.76,83.32,0
103,89.05,83.52,0
104,89.35,83.72,0
99,89.54,83.88,0
102,89.79,84.06,0
99,89.97,84.21,0
101,90.19,84.37,0
105,90.49,84.58,0
104,90.76,84.77,0
102,90.98,84.95,0
101,91.18,85.11,0
105,91.46,85.31,0
102,91.67,85.47,0
104,91.92,85.66,0
104,92.16,85.84,0
101,92.34,85.99,0
106,92.61,86.19,0
108,92.92,86.41,0
105,93.16,86.60,0
103,93.36,86.76,0
105,93.59,86.94,0
101,93.74,87.08,0
108,94.02,87.29,0
106,94.26,87.48,0
106,94.50,87.67,0
106,94.73,87.85,0
103,94.89,88.00,0
104,95.07,88.16,0
106,95.29,88.34,0
105,95.49,88.51,0
105,95.68,88.67,0
107,95.90,88.85,0
109,96.17,89.06,0
116,96.56,89.33,0
113,96.89,89.56,0
111,97.17,89.78,0
111,97.45,89.99,0
114,97.78,90.23,0
110,98.03,90.43,0
114,98.34,90.66,0
118,98.74,90.94,0
113,99.02,91.16,0
113,99.30,91.37,0
112,99.56,91.58,0
117,99.91,91.84,0
128,100.47,92.20,0
131,101.08,92.58,0
127,101.60,92.93,0
122,102.00,93.22,0
128,102.52,93.57,0
129,103.05,93.92,0
124,103.47,94.22,0
122,103.84,94.50,0
123,104.23,94.79,0
122,104.58,95.06,0
120,104.89,95.31,0
123,105.25,95.58,0
123,105.61,95.86,0
120,105.90,96.10,0
124,106.26,96.38,0
127,106.67,96.68,0
125,107.04,96.97,0
126,107.42,97.26,0
124,107.75,97.53,0
128,108.15,97.83,0
135,108.69,98.20,0
136,109.24,98.58,0
127,109.59,98.86,0
134,110.08,99.22,0
133,110.54,99.55,0
128,110.89,99.84,0
126,111.19,100.10,0
126,111.49,100.36,0
129,111.84,100.64,0
128,112.16,100.92,0
128,112.48,101.19,0
128,112.79,101.46,0
129,113.11,101.73,0
129,113.43,102.01,0
137,113.90,102.36,0
141,114.44,102.74,0
133,114.81,103.04,0
137,115.26,103.38,0
141,115.77,103.76,0
141,116.28,104.13,0
140,116.75,104.49,0
137,117.16,104.82,0
139,117.59,105.16,0
135,117.94,105.46,0
136,118.30,105.76,0
139,118.72,106.09,0
137,119.08,106.40,0
137,119.44,106.71,0
141,119.87,107.05,0
135,120.17,107.33,0
137,120.51,107.63,0
138,120.86,107.93,0
137,121.18,108.22,0
137,121.50,108.51,0
139,121.85,108.82,0
135,122.11,109.08,0
135,122.37,109.34,0
135,122.62,109.59,0
135,122.87,109.85,0
137,123.15,110.12,0
137,123.43,110.39,0
136,123.68,110.64,0
137,123.95,110.91,0
139,124.25,111.19,0
136,124.48,111.44,0
137,124.73,111.69,0
146,125.16,112.04,0
145,125.56,112.36,0
141,125.87,112.65,0
140,126.15,112.92,0
143,126.49,113.23,0
141,126.78,113.50,0
135,126.94,113.72,0
138,127.16,113.96,0
140,127.42,114.22,0
139,127.65,114.47,0
140,127.90,114.72,0
142,128.18,115.00,0
137,128.36,115.22,0
141,128.61,115.47,0
141,128.86,115.73,0
142,129.12,115.99,0
141,129.36,116.24,0
143,129.63,116.51,0
150,130.04,116.85,0
143,130.30,117.11,0
141,130.51,117.35,0
139,130.68,117.56,0
144,130.95,117.83,0
141,131.15,118.06,0
140,131.32,118.28,0
141,131.52,118.51,0
143,131.75,118.75,0
139,131.89,118.95,0
142,132.09,119.18,0
143,132.31,119.42,0
143,132.53,119.66,0
141,132.70,119.87,0
142,132.88,120.09,0
145,133.12,120.34,0
147,133.40,120.61,0
141,133.55,120.81,0
141,133.70,121.01,0
142,133.87,121.22,0
143,134.05,121.44,0
142,134.21,121.65,0
143,134.39,121.86,0
145,134.60,122.09,0
143,134.77,122.30,0
141,134.89,122.49,0
143,135.05,122.69,0
155,135.45,123.02,0
148,135.70,123.27,0
142,135.83,123.45,0
143,135.97,123.65,0
142,136.09,123.83,0
143,136.23,124.02,0
142,136.35,124.20,0
142,136.46,124.38,0
141,136.55,124.55,0
142,136.66,124.72,0
143,136.79,124.90,0
142,136.89,125.08,0
141,136.97,125.24,0
141,137.05,125.39,0
140,137.11,125.54,0
139,137.15,125.67,0
138,137.17,125.80,0
140,137.22,125.94,0
141,137.30,126.09,0
141,137.37,126.24,0
141,137.45,126.39,0
140,137.50,126.52,0
141,137.57,126.67,0
140,137.62,126.80,0
139,137.64,126.92,0
138,137.65,127.03,0
139,137.68,127.15,0
139,137.70,127.27,0
137,137.69,127.37,0
137,137.68,127.46,0
139,137.70,127.58,0
138,137.71,127.68,0
139,137.73,127.80,0
137,137.72,127.89,0
139,137.75,128.00,0
139,137.77,128.11,0
138,137.77,128.21,0
137,137.76,128.30,0
137,137.74,128.38,0
137,137.73,128.47,0
138,137.73,128.57,0
141,137.80,128.69,0
139,137.82,128.79,0
140,137.87,128.91,0
137,137.85,128.99,0
141,137.91,129.11,0
144,138.04,129.26,0
139,138.05,129.35,0
140,138.09,129.46,0
137,138.07,129.53,0
137,138.05,129.61,0
137,138.03,129.68,0
137,138.01,129.76,0
137,137.99,129.83,0
137,137.97,129.90,0
135,137.91,129.95,0
136,137.87,130.01,0
135,137.81,130.06,0
137,137.80,130.13,0
136,137.76,130.19,0
137,137.75,130.26,0
135,137.69,130.31,0
136,137.66,130.36,0
136,137.62,130.42,0
135,137.57,130.46,0
134,137.50,130.50,0
135,137.45,130.55,0
133,137.36,130.57,0
133,137.27,130.59,0
133,137.19,130.62,0
133,137.10,130.64,0
134,137.04,130.68,0
133,136.96,130.70,0
133,136.88,130.72,0
131,136.77,130.72,0
133,136.69,130.75,0
131,136.58,130.75,0
132,136.48,130.76,0
132,136.39,130.77,0
131,136.29,130.78,0
132,136.20,130.79,0
132,136.12,130.80,0
131,136.01,130.80,0
131,135.91,130.81,0
129,135.78,130.79,0
129,135.64,130.77,0
132,135.57,130.78,0
130,135.46,130.77,0
130,135.35,130.77,0
129,135.22,130.75,0
129,135.10,130.73,0
129,134.97,130.71,0
131,134.89,130.72,0
129,134.78,130.70,0
131,134.70,130.70,0
129,134.59,130.69,0
129,134.48,130.67,0
128,134.35,130.64,0
128,134.22,130.62,0
129,134.11,130.60,0
127,133.97,130.56,0
127,133.83,130.53,0
127,133.70,130.49,0
127,133.56,130.46,0
127,133.43,130.42,0
127,133.30,130.39,0
127,133.18,130.35,0
127,133.05,130.32,0
127,132.93,130.29,0
127,132.81,130.26,0
125,132.66,130.20,0
126,132.52,130.16,0
125,132.37,130.11,0
126,132.25,130.07,0
126,132.12,130.03,0
126,132.00,129.99,0
125,131.86,129.94,0
125,131.72,129.89,0
125,131.59,129.84,0
127,131.50,129.81,0
127,131.41,129.78,0
125,131.28,129.73,0
124,131.13,129.68,0
124,130.99,129.62,0
123,130.83,129.55,0
124,130.69,129.50,0
124,130.56,129.44,0
125,130.45,129.40,0
123,130.30,129.34,0
124,130.17,129.28,0
124,130.05,129.23,0
123,129.91,129.17,0
123,129.77,129.11,0
123,129.63,129.04,0
123,129.50,128.98,0
123,129.37,128.92,0
122,129.22,128.85,0
123,129.10,128.80,0
122,128.96,128.73,0
123,128.84,128.67,0
121,128.68,128.59,0
123,128.57,128.54,0
121,128.42,128.46,0
121,128.27,128.39,0
121,128.12,128.31,0
120,127.96,128.23,0
121,127.82,128.16,0
120,127.67,128.08,0
120,127.51,128.00,0
119,127.34,127.91,0
120,127.19,127.83,0
119,127.03,127.74,0
120,126.89,127.66,0
119,126.73,127.58,0
119,126.58,127.49,0
118,126.41,127.39,0
119,126.26,127.31,0
118,126.09,127.22,0
119,125.95,127.14,0
117,125.77,127.03,0
117,125.60,126.93,0
117,125.42,126.83,0
118,125.28,126.75,0
117,125.11,126.65,0
117,124.95,126.55,0
116,124.77,126.45,0
115,124.57,126.33,0
117,124.42,126.24,0
117,124.27,126.15,0
116,124.11,126.04,0
116,123.95,125.94,0
116,123.79,125.84,0
115,123.61,125.74,0
117,123.48,125.65,0
115,123.31,125.54,0
115,123.14,125.44,0
116,123.00,125.34,0
116,122.86,125.25,0
114,122.68,125.14,0
114,122.51,125.03,0
113,122.32,124.91,0
113,122.13,124.79,0
113,121.95,124.67,0
113,121.77,124.55,0
111,121.56,124.42,0
113,121.39,124.30,0
113,121.22,124.19,0
113,121.05,124.08,0
113,120.89,123.97,0
113,120.73,123.86,0
113,120.58,123.75,0
113,120.43,123.64,0
111,120.24,123.51,0
112,120.07,123.40,0
113,119.93,123.30,0
111,119.75,123.17,0
111,119.58,123.05,0
110,119.39,122.92,0
111,119.22,122.80,0
111,119.06,122.68,0
111,118.89,122.57,0
111,118.74,122.45,0
110,118.56,122.33,0
111,118.41,122.21,0
107,118.18,122.06,0
109,118.00,121.93,0
109,117.82,121.80,0
109,117.64,121.67,0
109,117.47,121.55,0
110,117.32,121.43,0
109,117.15,121.31,0
109,116.99,121.18,0
109,116.83,121.06,0
109,116.67,120.94,0
109,116.52,120.82,0
109,116.37,120.70,0
108,116.20,120.58,0
109,116.06,120.46,0
109,115.92,120.35,0
108,115.76,120.22,0
108,115.60,120.10,0
107,115.43,119.97,0
109,115.30,119.86,0
108,115.16,119.74,0
107,114.99,119.61,0
107,114.83,119.49,0
108,114.70,119.37,0
107,114.54,119.25,0
107,114.39,119.13,0
105,114.21,118.98,0
107,114.06,118.86,0
108,113.94,118.76,0
106,113.78,118.63,0
105,113.61,118.49,0
106,113.45,118.37,0
105,113.28,118.23,0
105,113.12,118.10,0
105,112.96,117.97,0
105,112.80,117.84,0
105,112.64,117.71,0
105,112.49,117.59,0
107,112.38,117.48,0
105,112.23,117.35,0
109,112.17,117.27,0
105,112.02,117.15,0
105,111.88,117.03,0
105,111.74,116.91,0
104,111.59,116.78,0
104,111.44,116.65,0
103,111.27,116.51,0
103,111.10,116.38,0
103,110.94,116.24,0
103,110.78,116.11,0
103,110.63,115.98,0
104,110.49,115.86,0
104,110.37,115.74,0
104,110.24,115.62,0
102,110.07,115.49,0
103,109.93,115.36,0
99,109.71,115.20,0
103,109.58,115.08,0
102,109.43,114.95,0
102,109.28,114.82,0
105,109.19,114.72,0
104,109.09,114.61,0
104,108.99,114.51,0
103,108.87,114.39,0
101,108.71,114.26,0
105,108.64,114.16,0
103,108.52,114.05,0
103,108.41,113.94,0
102,108.28,113.82,0
101,108.14,113.69,0
102,108.02,113.58,0
101,107.88,113.45,0
103,107.78,113.35,0
101,107.64,113.22,0
102,107.53,113.11,0
101,107.40,112.99,0
101,107.27,112.87,0
101,107.15,112.75,0
102,107.04,112.64,0
103,106.96,112.55,0
101,106.84,112.43,0
101,106.73,112.32,0
102,106.63,112.22,0
101,106.52,112.10,0
101,106.41,111.99,0
101,106.30,111.88,0
101,106.19,111.77,0
100,106.07,111.66,0
101,105.97,111.55,0
101,105.87,111.44,0
100,105.75,111.33,0
99,105.62,111.21,0
99,105.48,111.08,0
101,105.40,110.98,0
100,105.29,110.87,0
99,105.16,110.75,0
99,105.04,110.64,0
98,104.90,110.51,0
98,104.76,110.39,0
100,104.66,110.28,0
100,104.57,110.18,0
99,104.46,110.07,0
101,104.39,109.98,0
99,104.28,109.87,0
99,104.18,109.76,0
99,104.07,109.65,0
98,103.95,109.53,0
97,103.81,109.41,0
100,103.74,109.31,0
100,103.66,109.22,0
98,103.55,109.11,0
99,103.46,109.01,0
100,103.39,108.92,0
98,103.28,108.81,0
99,103.20,108.71,0
98,103.09,108.60,0
97,102.97,108.49,0
98,102.87,108.38,0
98,102.77,108.28,0
98,102.68,108.18,0
98,102.58,108.07,0
100,102.53,107.99,0
98,102.44,107.89,0
98,102.35,107.79,0
97,102.25,107.69,0
97,102.14,107.58,0
98,102.06,107.48,0
97,101.96,107.38,0
98,101.88,107.29,0
96,101.76,107.17,0
98,101.68,107.08,0
96,101.57,106.97,0
100,101.54,106.90,0
96,101.43,106.79,0
96,101.32,106.68,0
96,101.21,106.58,0
96,101.11,106.47,0
98,101.05,106.39,0
96,100.95,106.28,0
96,100.85,106.18,0
96,100.75,106.08,0
98,100.70,106.00,0
94,100.56,105.88,0
96,100.47,105.78,0
97,100.40,105.69,0
95,100.29,105.58,0
96,100.21,105.49,0
95,100.10,105.38,0
95,100.00,105.28,0
95,99.90,105.18,0
95,99.80,105.07,0
95,99.71,104.97,0
95,99.61,104.87,0
95,99.52,104.78,0
94,99.41,104.67,0
93,99.28,104.55,0
96,99.22,104.47,0
97,99.17,104.39,0
97,99.13,104.32,0
95,99.05,104.22,0
94,98.95,104.12,0
93,98.83,104.01,0
97,98.79,103.94,0
97,98.75,103.87,0
97,98.72,103.80,0
96,98.66,103.72,0
95,98.59,103.64,0
95,98.52,103.55,0
95,98.45,103.46,0
95,98.38,103.38,0
93,98.27,103.28,0
95,98.21,103.19,0
94,98.12,103.10,0
96,98.08,103.03,0
96,98.04,102.96,0
94,97.96,102.87,0
93,97.86,102.77,0
94,97.78,102.68,0
89,97.61,102.55,0
93,97.51,102.45,0
93,97.42,102.36,0
93,97.34,102.26,0
93,97.25,102.17,0
93,97.16,102.08,0
93,97.08,101.99,0
93,97.00,101.90,0
93,96.92,101.81,0
92,96.82,101.71,0
95,96.78,101.64,0
95,96.75,101.58,0
93,96.67,101.49,0
93,96.60,101.41,0
92,96.51,101.31,0
93,96.44,101.23,0
93,96.37,101.15,0
92,96.28,101.06,0
94,96.24,100.99,0
93,96.17,100.91,0
93,96.11,100.83,0
91,96.01,100.73,0
93,95.95,100.65,0
92,95.87,100.56,0
92,95.79,100.48,0
92,95.71,100.39,0
93,95.66,100.32,0
91,95.57,100.23,0
92,95.49,100.15,0
93,95.44,100.07,0
91,95.36,99.98,0
92,95.29,99.90,0
92,95.22,99.82,0
91,95.14,99.74,0
90,95.04,99.64,0
94,95.02,99.58,0
89,94.89,99.48,0
90,94.80,99.38,0
90,94.70,99.29,0
90,94.61,99.19,0
92,94.55,99.12,0
90,94.46,99.03,0
90,94.37,98.94,0
90,94.29,98.85,0
90,94.20,98.76,0
90,94.12,98.68,0
90,94.03,98.59,0
93,94.01,98.53,0
90,93.93,98.45,0
89,93.84,98.35,0
90,93.76,98.27,0
91,93.70,98.20,0
89,93.61,98.11,0
89,93.52,98.01,0
90,93.45,97.93,0
91,93.40,97.86,0
90,93.33,97.79,0
90,93.26,97.71,0
89,93.18,97.62,0
89,93.09,97.53,0
89,93.01,97.45,0
89,92.93,97.36,0
88,92.83,97.27,0
91,92.80,97.21,0
89,92.72,97.13,0
88,92.63,97.04,0
89,92.55,96.95,0
89,92.48,96.88,0
88,92.39,96.79,0
88,92.31,96.70,0
89,92.24,96.62,0
90,92.19,96.56,0
88,92.11,96.47,0
88,92.03,96.39,0
89,91.97,96.31,0
89,91.91,96.24,0
88,91.83,96.16,0
88,91.75,96.07,0
88,91.68,95.99,0
88,91.61,95.91,0
89,91.55,95.84,0
88,91.48,95.77,0
89,91.43,95.70,0
88,91.36,95.62,0
87,91.28,95.54,0
86,91.17,95.44,0
89,91.13,95.38,0
87,91.04,95.29,0
88,90.98,95.22,0
86,90.88,95.13,0
87,90.81,95.05,0
86,90.71,94.95,0
87,90.64,94.88,0
86,90.54,94.79,0
86,90.45,94.70,0
87,90.38,94.62,0
86,90.30,94.54,0
86,90.21,94.45,0
87,90.15,94.38,0
86,90.06,94.29,0
86,89.98,94.21,0
88,89.94,94.15,0
89,89.92,94.10,0
86,89.84,94.01,0
86,89.77,93.93,0
86,89.69,93.85,0
86,89.62,93.78,0
86,89.55,93.70,0
86,89.48,93.62,0
86,89.41,93.55,0
86,89.34,93.47,0
86,89.27,93.40,0
86,89.21,93.32,0
86,89.14,93.25,0
86,89.08,93.18,0
86,89.02,93.10,0
84,88.92,93.01,0
86,88.86,92.94,0
85,88.78,92.86,0
85,88.71,92.78,0
84,88.61,92.70,0
86,88.56,92.63,0
84,88.47,92.54,0
84,88.38,92.46,0
86,88.33,92.39,0
84,88.24,92.31,0
83,88.14,92.22,0
85,88.08,92.14,0
84,88.00,92.06,0
84,87.92,91.98,0
84,87.84,91.90,0
86,87.80,91.84,0
84,87.72,91.76,0
84,87.65,91.69,0
84,87.58,91.61,0
83,87.49,91.52,0
84,87.42,91.45,0
84,87.35,91.37,0
83,87.26,91.29,0
85,87.22,91.23,0
84,87.15,91.16,0
84,87.09,91.08,0
83,87.01,91.00,0
84,86.95,90.93,0
84,86.89,90.86,0
83,86.81,90.79,0
84,86.75,90.72,0
82,86.66,90.63,0
84,86.60,90.56,0
82,86.51,90.48,0
83,86.44,90.40,0
82,86.35,90.32,0
82,86.27,90.24,0
82,86.18,90.15,0
81,86.08,90.06,0
81,85.98,89.97,0
81,85.88,89.88,0
81,85.78,89.79,0
82,85.70,89.72,0
82,85.63,89.64,0
81,85.54,89.55,0
82,85.47,89.48,0
84,85.44,89.42,0
81,85.35,89.34,0
80,85.24,89.24,0
80,85.14,89.15,0
81,85.05,89.07,0
80,84.95,88.98,0
80,84.85,88.89,0
80,84.76,88.80,0
80,84.66,88.71,0
80,84.57,88.63,0
80,84.48,88.54,0
80,84.39,88.45,0
80,84.30,88.37,0
80,84.21,88.29,0
80,84.13,88.20,0
80,84.05,88.12,0
78,83.93,88.02,0
80,83.85,87.94,0
80,83.77,87.86,0
78,83.65,87.76,0
80,83.58,87.68,0
79,83.49,87.60,0
79,83.40,87.51,0
78,83.29,87.42,0
80,83.23,87.34,0
80,83.16,87.27,0
80,83.10,87.20,0
78,83.00,87.10,0
80,82.94,87.03,0
80,82.88,86.96,0
80,82.82,86.89,0
78,82.72,86.80,0
79,82.65,86.73,0
80,82.60,86.66,0
80,82.54,86.59,0
80,82.49,86.53,0
79,82.42,86.45,0
79,82.36,86.38,0
78,82.27,86.29,0
79,82.20,86.22,0
80,82.16,86.16,0
78,82.08,86.08,0
78,81.99,85.99,0
80,81.95,85.93,0
79,81.90,85.87,0
80,81.86,85.81,0
78,81.78,85.73,0
78,81.70,85.65,0
79,81.65,85.59,0
78,81.58,85.51,0
78,81.51,85.43,0
79,81.46,85.37,0
78,81.39,85.30,0
84,81.44,85.28,0
80,81.41,85.23,0
82,81.42,85.20,0
81,81.41,85.16,0
78,81.35,85.08,0
79,81.30,85.02,0
79,81.25,84.96,0
79,81.21,84.90,0
79,81.16,84.84,0
80,81.14,84.80,0
78,81.08,84.73,0
78,81.02,84.66,0
78,80.96,84.59,0
78,80.90,84.53,0
79,80.86,84.47,0
78,80.80,84.41,0
75,80.69,84.31,0
79,80.65,84.26,0
77,80.58,84.19,0
77,80.51,84.12,0
81,80.52,84.09,0
77,80.45,84.01,0
77,80.38,83.94,0
79,80.35,83.90,0
78,80.30,83.84,0
78,80.26,83.78,0
77,80.19,83.71,0
78,80.15,83.65,0
80,80.14,83.62,0
80,80.14,83.58,0
80,80.14,83.54,0
78,80.10,83.49,0
77,80.03,83.42,0
78,79.99,83.37,0
78,79.95,83.32,0
79,79.93,83.27,0
79,79.92,83.23,0
78,79.88,83.18,0
78,79.84,83.13,0
78,79.80,83.07,0
77,79.75,83.01,0
77,79.69,82.95,0
78,79.66,82.90,0
78,79.63,82.86,0
77,79.57,82.80,0
78,79.54,82.75,0
78,79.51,82.70,0
79,79.50,82.66,0
78,79.47,82.62,0
77,79.42,82.56,0
78,79.39,82.52,0
78,79.36,82.47,0
77,79.32,82.42,0
76,79.25,82.35,0
76,79.19,82.29,0
76,79.12,82.23,0
77,79.08,82.17,0
77,79.04,82.12,0
76,78.98,82.06,0
76,78.92,82.00,0
77,78.88,81.95,0
77,78.84,81.90,0
76,78.79,81.84,0
76,78.73,81.78,0
76,78.67,81.73,0
76,78.62,81.67,0
76,78.57,81.61,0
78,78.56,81.57,0
77,78.53,81.53,0
76,78.48,81.47,0
76,78.43,81.42,0
76,78.38,81.37,0
77,78.35,81.32,0
76,78.30,81.27,0
78,78.30,81.24,0
78,78.29,81.20,0
77,78.27,81.16,0
76,78.22,81.11,0
78,78.22,81.08,0
76,78.17,81.03,0
76,78.13,80.98,0
74,78.05,80.91,0
76,78.00,80.86,0
75,77.94,80.80,0
77,77.93,80.76,0
78,77.93,80.73,0
76,77.89,80.69,0
77,77.87,80.65,0
76,77.83,80.60,0
78,77.84,80.58,0
78,77.84,80.55,0
79,77.86,80.54,0
78,77.87,80.51,0
76,77.83,80.47,0
76,77.79,80.42,0
77,77.78,80.39,0
77,77.76,80.35,0
78,77.77,80.33,0
79,77.79,80.32,0
81,77.85,80.32,0
84,77.98,80.36,0
78,77.98,80.34,0
77,77.96,80.30,0
78,77.96,80.28,0
82,78.04,80.30,0
84,78.16,80.33,0
84,78.28,80.37,0
84,78.39,80.41,0
80,78.42,80.40,0
79,78.43,80.39,0
80,78.47,80.39,0
80,78.50,80.38,0
79,78.51,80.37,0
79,78.52,80.35,0
79,78.53,80.34,0
79,78.54,80.33,0
79,78.54,80.31,0
79,78.55,80.30,0
78,78.54,80.28,0
79,78.55,80.26,0
78,78.54,80.24,0
78,78.53,80.22,0
78,78.52,80.20,0
78,78.51,80.18,0
79,78.52,80.16,0
79,78.53,80.15,0
78,78.52,80.13,0
79,78.53,80.12,0
79,78.54,80.11,0
80,78.57,80.11,0
80,78.59,80.11,0
75,78.52,80.05,0
77,78.49,80.02,0
78,78.48,80.00,0
78,78.47,79.98,0
79,78.48,79.97,0
83,78.57,80.00,0
80,78.60,80.00,0
79,78.61,79.99,0
81,78.66,80.00,0
77,78.62,79.97,0
78,78.61,79.95,0
78,78.60,79.93,0
78,78.59,79.92,0
79,78.60,79.91,0
78,78.58,79.89,0
78,78.57,79.87,0
78,78.56,79.85,0
79,78.57,79.84,0
79,78.58,79.83,0
78,78.57,79.81,0
77,78.54,79.79,0
77,78.51,79.76,0
78,78.49,79.74,0
78,78.49,79.72,0
77,78.46,79.70,0
78,78.45,79.68,0
78,78.44,79.66,0
78,78.43,79.65,0
79,78.44,79.64,0
78,78.43,79.62,0
78,78.42,79.61,0
76,78.37,79.57,0
77,78.35,79.55,0
80,78.38,79.55,0
78,78.37,79.53,0
79,78.38,79.53,0
78,78.38,79.51,0
78,78.37,79.50,0
78,78.36,79.48,0
78,78.35,79.47,0
79,78.37,79.46,0
80,78.40,79.47,0
79,78.41,79.46,0
78,78.40,79.45,0
78,78.40,79.44,0
78,78.39,79.42,0
78,78.38,79.41,0
78,78.37,79.39,0
79,78.39,79.39,0
81,78.44,79.40,0
80,78.47,79.41,0
78,78.46,79.40,0
80,78.49,79.40,0
80,78.52,79.41,0
81,78.57,79.42,0
82,78.64,79.45,0
82,78.71,79.48,0
80,78.73,79.48,0
78,78.72,79.47,0
78,78.70,79.45,0
79,78.71,79.45,0
78,78.69,79.43,0
78,78.68,79.42,0
79,78.69,79.41,0
79,78.69,79.41,0
82,78.76,79.44,0
80,78.78,79.44,0
79,78.79,79.44,0
79,78.79,79.43,0
78,78.78,79.42,0
80,78.80,79.42,0
78,78.79,79.41,0
79,78.79,79.41,0
78,78.77,79.39,0
79,78.78,79.39,0
78,78.76,79.37,0
80,78.79,79.38,0
78,78.77,79.37,0
79,78.78,79.36,0
78,78.76,79.35,0
80,78.79,79.36,0
79,78.79,79.35,0
81,78.83,79.37,0
79,78.84,79.37,0
79,78.84,79.36,0
80,78.86,79.37,0
78,78.85,79.35,0
81,78.89,79.37,0
82,78.95,79.40,0
80,78.97,79.40,0
79,78.97,79.40,0
82,79.03,79.42,0
80,79.05,79.43,0
81,79.09,79.45,0
80,79.11,79.45,0
79,79.11,79.45,0
79,79.11,79.44,0
82,79.16,79.47,0
79,79.16,79.46,0
84,79.26,79.51,0
80,79.27,79.51,0
79,79.27,79.51,0
80,79.28,79.51,0
78,79.26,79.50,0
79,79.25,79.49,0
79,79.25,79.49,0
79,79.24,79.48,0
77,79.20,79.46,0
79,79.19,79.45,0
79,79.19,79.45,0
78,79.16,79.44,0
79,79.16,79.43,0
79,79.16,79.43,0
83,79.23,79.46,0
80,79.25,79.47,0
75,79.17,79.42,0
78,79.14,79.41,0
79,79.14,79.40,0
79,79.14,79.40,0
79,79.13,79.40,0
78,79.11,79.38,0
79,79.11,79.38,0
79,79.11,79.38,0
78,79.08,79.36,0
81,79.12,79.38,0
80,79.14,79.38,0
79,79.14,79.38,0
78,79.11,79.37,0
80,79.13,79.37,0
78,79.11,79.36,0
79,79.11,79.36,0
78,79.09,79.34,0
79,79.08,79.34,0
79,79.08,79.34,0
79,79.08,79.33,0
78,79.06,79.32,0
80,79.08,79.33,0
79,79.08,79.32,0
79,79.07,79.32,0
80,79.09,79.33,0
82,79.15,79.35,0
81,79.19,79.37,0
78,79.16,79.36,0
78,79.14,79.34,0
78,79.12,79.33,0
80,79.14,79.33,0
78,79.11,79.32,0
78,79.09,79.31,0
81,79.13,79.33,0
81,79.17,79.34,0
81,79.20,79.36,0
80,79.22,79.36,0
81,79.25,79.38,0
81,79.29,79.40,0
78,79.26,79.38,0
78,79.24,79.37,0
79,79.23,79.37,0
79,79.23,79.36,0
78,79.20,79.35,0
79,79.20,79.35,0
80,79.22,79.35,0
80,79.23,79.36,0
80,79.25,79.36,0
82,79.30,79.39,0
79,79.30,79.39,0
79,79.29,79.38,0
78,79.26,79.37,0
79,79.26,79.37,0
78,79.23,79.35,0
80,79.25,79.36,0
78,79.22,79.34,0
79,79.22,79.34,0
79,79.22,79.34,0
78,79.19,79.32,0
78,79.17,79.31,0
78,79.14,79.30,0
79,79.14,79.30,0
79,79.14,79.29,0
78,79.12,79.28,0
79,79.11,79.28,0
78,79.09,79.26,0
78,79.07,79.25,0
78,79.05,79.24,0
78,79.03,79.23,0
79,79.03,79.22,0
77,78.99,79.20,0
79,78.99,79.20,0
77,78.95,79.18,0
78,78.93,79.17,0
80,78.95,79.17,0
78,78.93,79.16,0
77,78.89,79.14,0
78,78.87,79.13,0
79,78.88,79.13,0
77,78.84,79.11,0
77,78.80,79.09,0
79,78.81,79.09,0
80,78.83,79.09,0
79,78.83,79.09,0
79,78.84,79.09,0
79,78.84,79.09,0
79,78.84,79.09,0
78,78.83,79.08,0
78,78.81,79.07,0
77,78.77,79.05,0
77,78.74,79.03,0
80,78.76,79.04,0
78,78.75,79.03,0
78,78.73,79.02,0
79,78.74,79.02,0
78,78.72,79.01,0
79,78.73,79.01,0
79,78.73,79.01,0
77,78.70,78.99,0
80,78.73,79.00,0
79,78.73,79.00,0
76,78.68,78.97,0
79,78.68,78.97,0
78,78.67,78.96,0
78,78.66,78.95,0
78,78.64,78.94,0
80,78.67,78.95,0
75,78.60,78.91,0
78,78.58,78.90,0
80,78.61,78.91,0
78,78.60,78.90,0
77,78.57,78.88,0
76,78.52,78.85,0
77,78.49,78.84,0
77,78.46,78.82,0
75,78.39,78.78,0
78,78.38,78.77,0
80,78.41,78.78,0
80,78.44,78.80,0
78,78.44,78.79,0
82,78.51,78.82,0
82,78.58,78.85,0
80,78.61,78.86,0
79,78.61,78.86,0
78,78.60,78.86,0
81,78.65,78.88,0
79,78.66,78.88,0
78,78.64,78.87,0
78,78.63,78.86,0
80,78.66,78.87,0
79,78.66,78.87,0
78,78.65,78.87,0
78,78.64,78.86,0
79,78.65,78.86,0
78,78.63,78.85,0
78,78.62,78.84,0
78,78.61,78.83,0
79,78.62,78.83,0
78,78.60,78.83,0
78,78.59,78.82,0
80,78.62,78.83,0
78,78.61,78.82,0
78,78.59,78.81,0
78,78.58,78.80,0
78,78.57,78.80,0
78,78.56,78.79,0
82,78.63,78.82,0
84,78.74,78.87,0
82,78.80,78.90,0
83,78.88,78.94,0
81,78.93,78.97,0
82,78.99,79.00,0
86,79.13,79.07,0
85,79.25,79.13,0
86,79.38,79.19,0
90,79.59,79.30,0
82,79.64,79.33,0
88,79.81,79.42,0
88,79.97,79.50,0
84,80.05,79.55,0
84,80.13,79.59,0
85,80.23,79.65,0
84,80.31,79.69,0
84,80.38,79.73,0
86,80.49,79.79,0
86,80.60,79.86,0
84,80.67,79.90,0
86,80.78,79.96,0
84,80.84,80.00,0
85,80.92,80.05,0
84,80.99,80.09,0
85,81.07,80.14,0
86,81.16,80.20,0
88,81.30,80.27,0
88,81.44,80.35,0
84,81.49,80.39,0
84,81.54,80.42,0
84,81.59,80.46,0
84,81.63,80.50,0
88,81.76,80.57,0
84,81.81,80.60,0
85,81.87,80.65,0
86,81.95,80.70,0
88,82.07,80.78,0
87,82.17,80.84,0
88,82.29,80.91,0
86,82.36,80.96,0
86,82.44,81.01,0
89,82.57,81.09,0
87,82.66,81.15,0
86,82.72,81.20,0
88,82.83,81.27,0
89,82.95,81.34,0
92,83.13,81.45,0
91,83.29,81.55,0
90,83.42,81.63,0
93,83.62,81.74,0
92,83.78,81.85,0
90,83.91,81.93,0
90,84.03,82.01,0
90,84.15,82.09,0
89,84.25,82.16,0
92,84.40,82.26,0
89,84.49,82.32,0
90,84.60,82.40,0
89,84.69,82.47,0
88,84.76,82.52,0
88,84.82,82.58,0
90,84.93,82.65,0
90,85.03,82.72,0
91,85.15,82.81,0
89,85.22,82.87,0
89,85.30,82.93,0
89,85.37,82.99,0
94,85.55,83.10,0
96,85.75,83.23,0
96,85.96,83.36,0
92,86.08,83.44,0
92,86.20,83.53,0
90,86.27,83.59,0
92,86.39,83.68,0
97,86.60,83.81,0
95,86.77,83.92,0
96,86.95,84.04,0
94,87.10,84.14,0
94,87.23,84.24,0
98,87.45,84.38,0
95,87.60,84.49,0
92,87.69,84.56,0
96,87.85,84.68,0
96,88.02,84.79,0
96,88.18,84.90,0
98,88.37,85.03,0
100,88.61,85.18,0
99,88.81,85.32,0
97,88.98,85.44,0
101,89.22,85.59,0
105,89.53,85.79,0
108,89.90,86.01,0
99,90.08,86.14,0
106,90.40,86.34,0
103,90.65,86.50,0
101,90.86,86.65,0
99,91.02,86.77,0
103,91.26,86.93,0
99,91.42,87.06,0
104,91.67,87.22,0
101,91.86,87.36,0
105,92.12,87.54,0
104,92.36,87.70,0
101,92.53,87.84,0
105,92.78,88.01,0
105,93.02,88.18,0
103,93.22,88.33,0
101,93.38,88.45,0
106,93.63,88.63,0
105,93.86,88.79,0
103,94.04,88.93,0
109,94.34,89.13,0
108,94.61,89.32,0
105,94.82,89.48,0
105,95.03,89.64,0
104,95.20,89.78,0
121,95.72,90.09,0
119,96.19,90.38,0
111,96.48,90.59,0
109,96.73,90.77,0
111,97.02,90.97,0
115,97.38,91.21,0
109,97.61,91.39,0
115,97.96,91.63,0
107,98.14,91.78,0
113,98.44,91.99,0
118,98.83,92.25,0
120,99.25,92.53,0
113,99.53,92.74,0
115,99.84,92.96,0
113,100.10,93.16,0
114,100.38,93.37,0
128,100.93,93.71,0
118,101.27,93.96,0
116,101.57,94.18,0
116,101.85,94.39,0
118,102.18,94.63,0
118,102.49,94.86,0
121,102.86,95.13,0
122,103.25,95.39,0
121,103.60,95.65,0
118,103.89,95.87,0
116,104.13,96.08,0
119,104.43,96.30,0
124,104.82,96.58,0
136,105.44,96.98,0
132,105.97,97.33,0
125,106.36,97.60,0
128,106.79,97.91,0
130,107.25,98.23,0
134,107.79,98.59,0
130,108.23,98.90,0
128,108.63,99.19,0
132,109.09,99.52,0
131,109.53,99.83,0
128,109.90,100.12,0
127,110.24,100.38,0
130,110.64,100.68,0
126,110.95,100.93,0
127,111.27,101.19,0
125,111.54,101.43,0
129,111.89,101.71,0
127,112.19,101.96,0
126,112.47,102.20,0
127,112.76,102.45,0
127,113.04,102.69,0
129,113.36,102.96,0
131,113.72,103.24,0
127,113.98,103.48,0
130,114.30,103.74,0
131,114.64,104.01,0
134,115.02,104.31,0
129,115.30,104.56,0
128,115.56,104.79,0
133,115.91,105.08,0
137,116.33,105.40,0
129,116.58,105.63,0
129,116.83,105.87,0
129,117.07,106.10,0
129,117.31,106.33,0
129,117.55,106.55,0
130,117.79,106.79,0
129,118.02,107.01,0
129,118.24,107.23,0
128,118.43,107.44,0
133,118.73,107.69,0
134,119.03,107.96,0
133,119.31,108.21,0
134,119.60,108.46,0
129,119.79,108.67,0
139,120.18,108.97,0
137,120.51,109.25,0
135,120.80,109.51,0
132,121.03,109.74,0
133,121.27,109.97,0
133,121.50,110.20,0
136,121.79,110.46,0
132,121.99,110.67,0
135,122.25,110.92,0
136,122.53,111.17,0
136,122.80,111.41,0
135,123.04,111.65,0
133,123.24,111.86,0
136,123.50,112.10,0
134,123.71,112.32,0
133,123.89,112.53,0
137,124.16,112.78,0
133,124.33,112.98,0
135,124.55,113.20,0
133,124.71,113.40,0
132,124.86,113.58,0
132,125.00,113.77,0
132,125.14,113.95,0
131,125.26,114.12,0
131,125.38,114.29,0
131,125.49,114.45,0
133,125.64,114.64,0
132,125.76,114.81,0
131,125.87,114.98,0
132,125.99,115.15,0
131,126.09,115.30,0
131,126.19,115.46,0
132,126.31,115.63,0
131,126.40,115.78,0
131,126.49,115.93,0
130,126.56,116.07,0
129,126.61,116.20,0
131,126.70,116.35,0
130,126.77,116.49,0
129,126.81,116.61,0
129,126.85,116.74,0
129,126.90,116.86,0
129,126.94,116.98,0
129,126.98,117.10,0
132,127.08,117.25,0
130,127.14,117.38,0
130,127.20,117.50,0
131,127.27,117.64,0
137,127.47,117.83,0
129,127.50,117.94,0
131,127.57,118.07,0
132,127.66,118.21,0
132,127.74,118.35,0
132,127.83,118.49,0
131,127.89,118.61,0
129,127.91,118.72,0
133,128.02,118.86,0
129,128.04,118.96,0
129,128.05,119.06,0
129,128.07,119.16,0
130,128.11,119.27,0
129,128.13,119.37,0
128,128.13,119.45,0
129,128.14,119.55,0
129,128.16,119.64,0
129,128.18,119.74,0
128,128.17,119.82,0
129,128.19,119.91,0
127,128.17,119.98,0
127,128.14,120.05,0
128,128.14,120.13,0
127,128.12,120.20,0
127,128.10,120.27,0
127,128.07,120.34,0
127,128.05,120.40,0
127,128.03,120.47,0
127,128.01,120.53,0
126,127.97,120.59,0
125,127.91,120.63,0
125,127.85,120.68,0
125,127.80,120.72,0
125,127.74,120.76,0
127,127.73,120.82,0
125,127.67,120.87,0
125,127.62,120.91,0
125,127.57,120.95,0
124,127.49,120.98,0
124,127.42,121.01,0
124,127.36,121.04,0
124,127.29,121.07,0
123,127.20,121.09,0
124,127.14,121.12,0
123,127.06,121.14,0
126,127.03,121.18,0
123,126.95,121.20,0
123,126.87,121.22,0
123,126.80,121.24,0
124,126.74,121.27,0
123,126.67,121.28,0
124,126.61,121.31,0
121,126.50,121.31,0
121,126.39,121.30,0
122,126.30,121.31,0
125,126.28,121.35,0
121,126.17,121.34,0
122,126.09,121.35,0
121,125.99,121.35,0
122,125.91,121.35,0
121,125.81,121.35,0
121,125.71,121.35,0
123,125.66,121.36,0
121,125.56,121.36,0
121,125.47,121.36,0
120,125.36,121.34,0
121,125.28,121.34,0
120,125.17,121.33,0
121,125.09,121.32,0
120,124.99,121.31,0
120,124.89,121.30,0
119,124.77,121.27,0
119,124.65,121.25,0
120,124.56,121.24,0
119,124.45,121.22,0
117,124.30,121.17,0
117,124.15,121.13,0
119,124.05,121.11,0
119,123.95,121.09,0
119,123.85,121.07,0
117,123.71,121.03,0
117,123.58,120.99,0
117,123.45,120.95,0
117,123.32,120.91,0
121,123.27,120.91,0
119,123.19,120.89,0
119,123.10,120.87,0
118,123.00,120.84,0
117,122.88,120.80,0
118,122.78,120.78,0
117,122.67,120.74,0
117,122.55,120.70,0
117,122.44,120.66,0
117,122.33,120.63,0
116,122.21,120.58,0
116,122.08,120.54,0
116,121.96,120.49,0
115,121.82,120.43,0
116,121.71,120.39,0
116,121.59,120.35,0
117,121.50,120.31,0
116,121.39,120.27,0
116,121.28,120.23,0
115,121.16,120.18,0
116,121.05,120.13,0
115,120.93,120.08,0
115,120.81,120.03,0
113,120.66,119.96,0
114,120.52,119.90,0
114,120.39,119.84,0
114,120.27,119.78,0
113,120.12,119.72,0
113,119.98,119.65,0
113,119.84,119.58,0
113,119.70,119.52,0
113,119.57,119.45,0
113,119.44,119.39,0
116,119.37,119.35,0
113,119.24,119.29,0
113,119.12,119.23,0
113,118.99,119.16,0
112,118.85,119.09,0
112,118.72,119.02,0
111,118.56,118.94,0
111,118.41,118.86,0
111,118.26,118.78,0
111,118.12,118.71,0
111,117.98,118.63,0
111,117.84,118.55,0
111,117.70,118.48,0
111,117.57,118.40,0
111,117.43,118.33,0
111,117.31,118.25,0
108,117.12,118.15,0
109,116.96,118.06,0
109,116.80,117.97,0
111,116.68,117.90,0
109,116.53,117.81,0
110,116.40,117.73,0
110,116.27,117.66,0
109,116.12,117.57,0
109,115.98,117.48,0
109,115.84,117.40,0
109,115.71,117.31,0
108,115.55,117.22,0
108,115.40,117.13,0
107,115.23,117.03,0
107,115.07,116.93,0
109,114.95,116.85,0
108,114.81,116.76,0
107,114.65,116.66,0
107,114.50,116.57,0
107,114.35,116.47,0
109,114.24,116.40,0
106,114.08,116.29,0
107,113.93,116.20,0
107,113.80,116.11,0
106,113.64,116.01,0
107,113.51,115.92,0
106,113.36,115.82,0
105,113.19,115.71,0
105,113.03,115.60,0
105,112.87,115.50,0
105,112.71,115.39,0
105,112.55,115.29,0
105,112.40,115.18,0
105,112.26,115.08,0
105,112.11,114.98,0
105,111.97,114.88,0
105,111.83,114.78,0
105,111.69,114.68,0
105,111.56,114.59,0
104,111.41,114.48,0
104,111.26,114.38,0
106,111.15,114.29,0
104,111.01,114.19,0
103,110.85,114.08,0
103,110.69,113.97,0
103,110.54,113.86,0
103,110.39,113.75,0
103,110.24,113.64,0
103,110.10,113.54,0
102,109.93,113.42,0
103,109.80,113.32,0
102,109.64,113.20,0
103,109.51,113.10,0
101,109.34,112.98,0
101,109.17,112.86,0
101,109.01,112.74,0
101,108.85,112.62,0
101,108.69,112.51,0
102,108.56,112.40,0
101,108.40,112.29,0
102,108.28,112.19,0
101,108.13,112.07,0
101,107.99,111.96,0
101,107.85,111.85,0
99,107.67,111.72,0
99,107.50,111.60,0
101,107.37,111.49,0
100,107.22,111.38,0
100,107.08,111.26,0
100,106.93,111.15,0
99,106.78,111.03,0
99,106.62,110.91,0
100,106.49,110.80,0
99,106.34,110.68,0
100,106.21,110.57,0
100,106.09,110.47,0
99,105.95,110.35,0
98,105.79,110.23,0
100,105.67,110.13,0
98,105.52,110.01,0
100,105.41,109.91,0
99,105.28,109.80,0
98,105.13,109.68,0
96,104.95,109.54,0
98,104.81,109.43,0
98,104.68,109.31,0
98,104.54,109.20,0
99,104.43,109.10,0
98,104.30,108.99,0
98,104.18,108.88,0
100,104.09,108.79,0
99,103.99,108.69,0
99,103.89,108.59,0
98,103.77,108.49,0
98,103.66,108.38,0
95,103.48,108.25,0
100,103.42,108.17,0
97,103.29,108.06,0
97,103.16,107.94,0
97,103.04,107.84,0
100,102.98,107.76,0
96,102.84,107.64,0
97,102.72,107.53,0
97,102.61,107.43,0
96,102.47,107.31,0
96,102.34,107.20,0
95,102.20,107.08,0
95,102.05,106.96,0
95,101.91,106.84,0
96,101.79,106.73,0
96,101.68,106.62,0
95,101.55,106.51,0
94,101.39,106.38,0
94,101.25,106.26,0
94,101.10,106.13,0
95,100.98,106.02,0
98,100.92,105.94,0
94,100.78,105.82,0
95,100.67,105.72,0
96,100.57,105.62,0
94,100.44,105.50,0
94,100.31,105.39,0
94,100.19,105.27,0
94,100.06,105.16,0
96,99.98,105.07,0
95,99.88,104.97,0
94,99.76,104.86,0
94,99.65,104.75,0
94,99.54,104.64,0
95,99.44,104.55,0
93,99.32,104.43,0
93,99.19,104.32,0
93,99.07,104.20,0
93,98.94,104.09,0
93,98.83,103.98,0
93,98.71,103.87,0
93,98.59,103.76,0
93,98.48,103.65,0
92,98.35,103.54,0
96,98.31,103.46,0
93,98.20,103.36,0
92,98.08,103.24,0
93,97.97,103.14,0
92,97.86,103.03,0
92,97.74,102.92,0
93,97.64,102.82,0
92,97.53,102.71,0
92,97.42,102.61,0
92,97.31,102.50,0
93,97.23,102.40,0
92,97.12,102.30,0
91,97.00,102.19,0
92,96.90,102.09,0
91,96.78,101.97,0
92,96.68,101.87,0
92,96.59,101.78,0
91,96.48,101.67,0
90,96.35,101.55,0
92,96.26,101.46,0
90,96.14,101.34,0
91,96.03,101.24,0
89,95.89,101.12,0
90,95.78,101.00,0
89,95.64,100.88,0
91,95.55,100.79,0
90,95.44,100.68,0
90,95.33,100.57,0
90,95.22,100.47,0
89,95.10,100.35,0
89,94.98,100.24,0
89,94.86,100.12,0
89,94.74,100.01,0
89,94.62,99.90,0
89,94.51,99.79,0
89,94.40,99.69,0
89,94.29,99.58,0
89,94.19,99.47,0
89,94.08,99.37,0
88,93.96,99.26,0
89,93.86,99.15,0
90,93.79,99.06,0
90,93.71,98.97,0
88,93.60,98.86,0
88,93.48,98.75,0
88,93.37,98.64,0
88,93.27,98.54,0
90,93.20,98.45,0
89,93.12,98.36,0
88,93.01,98.25,0
88,92.91,98.15,0
86,92.78,98.03,0
87,92.66,97.92,0
88,92.57,97.82,0
86,92.44,97.70,0
89,92.37,97.62,0
87,92.26,97.51,0
87,92.15,97.40,0
86,92.03,97.29,0
88,91.95,97.20,0
87,91.85,97.10,0
86,91.73,96.98,0
86,91.62,96.87,0
86,91.51,96.77,0
87,91.42,96.67,0
86,91.31,96.56,0
86,91.20,96.46,0
86,91.10,96.35,0
87,91.02,96.26,0
86,90.92,96.16,0
86,90.82,96.05,0
86,90.72,95.95,0
86,90.63,95.85,0
84,90.50,95.74,0
86,90.41,95.64,0
86,90.32,95.54,0
85,90.21,95.44,0
85,90.11,95.33,0
86,90.02,95.24,0
86,89.94,95.15,0
86,89.87,95.05,0
84,89.75,94.94,0
84,89.63,94.83,0
86,89.56,94.75,0
86,89.49,94.66,0
86,89.42,94.57,0
85,89.33,94.48,0
85,89.24,94.38,0
86,89.18,94.30,0
84,89.08,94.20,0
84,88.97,94.09,0
85,88.89,94.00,0
87,88.86,93.93,0
90,88.88,93.89,0
85,88.80,93.80,0
85,88.73,93.72,0
84,88.63,93.62,0
90,88.66,93.58,0
88,88.65,93.53,0
85,88.57,93.44,0
85,88.50,93.36,0
84,88.41,93.26,0
86,88.36,93.19,0
84,88.28,93.10,0
84,88.19,93.01,0
85,88.13,92.93,0
84,88.04,92.84,0
84,87.96,92.75,0
86,87.92,92.68,0
85,87.87,92.61,0
85,87.81,92.53,0
85,87.75,92.45,0
84,87.68,92.37,0
84,87.60,92.29,0
84,87.53,92.20,0
83,87.44,92.11,0
84,87.37,92.03,0
84,87.30,91.95,0
84,87.24,91.87,0
82,87.13,91.77,0
85,87.09,91.70,0
84,87.03,91.63,0
84,86.97,91.55,0
83,86.89,91.47,0
85,86.85,91.40,0
84,86.79,91.33,0
84,86.74,91.25,0
84,86.68,91.18,0
83,86.61,91.10,0
85,86.58,91.04,0
82,86.49,90.95,0
82,86.40,90.86,0
84,86.35,90.79,0
85,86.32,90.73,0
84,86.28,90.66,0
86,86.27,90.62,0
84,86.22,90.55,0
83,86.16,90.48,0
83,86.10,90.40,0
84,86.05,90.34,0
86,86.05,90.29,0
85,86.03,90.24,0
84,85.99,90.18,0
84,85.95,90.12,0
84,85.91,90.06,0
84,85.87,89.99,0
84,85.84,89.93,0
82,85.76,89.86,0
84,85.73,89.80,0
82,85.65,89.72,0
82,85.58,89.64,0
82,85.51,89.57,0
84,85.48,89.51,0
83,85.43,89.44,0
82,85.36,89.37,0
82,85.29,89.30,0
84,85.27,89.24,0
83,85.22,89.18,0
82,85.16,89.11,0
82,85.09,89.04,0
84,85.07,88.99,0
82,85.01,88.92,0
84,84.99,88.87,0
84,84.97,88.82,0
86,84.99,88.79,0
83,84.95,88.73,0
84,84.93,88.69,0
82,84.87,88.62,0
83,84.83,88.56,0
82,84.78,88.50,0
82,84.72,88.43,0
84,84.71,88.39,0
83,84.67,88.33,0
84,84.66,88.29,0
82,84.61,88.23,0
84,84.60,88.19,0
83,84.56,88.13,0
82,84.51,88.07,0
82,84.46,88.01,0
84,84.45,87.97,0
83,84.42,87.92,0
86,84.46,87.90,0
85,84.47,87.87,0
85,84.48,87.85,0
83,84.45,87.80,0
82,84.40,87.74,0
82,84.35,87.68,0
83,84.32,87.63,0
83,84.30,87.59,0
86,84.33,87.57,0
84,84.32,87.54,0
82,84.28,87.48,0
82,84.23,87.43,0
82,84.19,87.37,0
82,84.14,87.32,0
84,84.14,87.29,0
83,84.12,87.24,0
86,84.16,87.23,0
82,84.11,87.18,0
82,84.07,87.13,0
82,84.03,87.07,0
83,84.01,87.03,0
84,84.01,87.00,0
82,83.97,86.95,0
82,83.93,86.90,0
84,83.93,86.88,0
82,83.89,86.83,0
82,83.85,86.78,0
83,83.84,86.74,0
81,83.78,86.68,0
82,83.74,86.64,0
82,83.71,86.59,0
81,83.66,86.53,0
82,83.62,86.49,0
81,83.57,86.43,0
82,83.54,86.39,0
81,83.49,86.34,0
82,83.46,86.29,0
81,83.41,86.24,0
81,83.36,86.19,0
83,83.35,86.15,0
81,83.31,86.10,0
81,83.26,86.05,0
82,83.23,86.01,0
80,83.17,85.95,0
80,83.11,85.89,0
80,83.04,85.83,0
81,83.00,85.78,0
81,82.96,85.74,0
81,82.92,85.69,0
80,82.87,85.63,0
80,82.81,85.58,0
80,82.75,85.52,0
81,82.72,85.48,0
81,82.68,85.43,0
80,82.63,85.38,0
81,82.60,85.33,0
81,82.56,85.29,0
80,82.51,85.24,0
80,82.46,85.18,0
81,82.43,85.14,0
80,82.39,85.09,0
80,82.34,85.04,0
78,82.25,84.97,0
81,82.23,84.93,0
82,82.22,84.90,0
80,82.18,84.85,0
79,82.11,84.79,0
80,82.07,84.75,0
80,82.03,84.70,0
80,81.99,84.65,0
78,81.91,84.58,0
79,81.85,84.53,0
78,81.77,84.46,0
78,81.70,84.40,0
79,81.64,84.34,0
79,81.59,84.29,0
78,81.52,84.23,0
78,81.45,84.17,0
79,81.40,84.11,0
80,81.37,84.07,0
78,81.31,84.01,0
78,81.24,83.95,0
78,81.17,83.89,0
78,81.11,83.83,0
79,81.07,83.79,0
78,81.01,83.73,0
78,80.95,83.67,0
78,80.89,83.61,0
78,80.83,83.56,0
78,80.77,83.50,0
78,80.72,83.45,0
79,80.68,83.40,0
78,80.63,83.35,0
77,80.56,83.28,0
78,80.51,83.23,0
78,80.46,83.18,0
78,80.41,83.13,0
78,80.36,83.08,0
82,80.39,83.07,0
77,80.32,83.01,0
78,80.28,82.96,0
78,80.23,82.91,0
78,80.19,82.86,0
76,80.10,82.79,0
78,80.06,82.74,0
76,79.98,82.67,0
79,79.96,82.64,0
76,79.88,82.57,0
76,79.80,82.50,0
76,79.73,82.44,0
77,79.67,82.38,0
79,79.66,82.35,0
78,79.63,82.31,0
77,79.57,82.25,0
75,79.48,82.18,0
76,79.41,82.12,0
76,79.34,82.06,0
76,79.28,82.00,0
76,79.21,81.94,0
76,79.15,81.88,0
77,79.10,81.83,0
76,79.04,81.77,0
76,78.98,81.71,0
76,78.92,81.66,0
77,78.88,81.61,0
76,78.83,81.55,0
77,78.79,81.51,0
76,78.73,81.45,0
76,78.68,81.40,0
76,78.63,81.34,0
75,78.55,81.28,0
78,78.54,81.25,0
79,78.55,81.23,0
78,78.54,81.19,0
77,78.51,81.15,0
76,78.46,81.10,0
76,78.41,81.05,0
76,78.36,81.00,0
76,78.31,80.95,0
76,78.27,80.90,0
76,78.22,80.85,0
77,78.20,80.81,0
76,78.15,80.76,0
76,78.11,80.72,0
76,78.07,80.67,0
76,78.03,80.62,0
76,77.99,80.58,0
77,77.97,80.54,0
76,77.93,80.49,0
76,77.89,80.45,0
76,77.85,80.41,0
76,77.81,80.36,0
77,77.80,80.33,0
75,77.74,80.27,0
74,77.67,80.21,0
79,77.69,80.20,0
80,77.74,80.20,0
80,77.79,80.20,0
78,77.79,80.17,0
77,77.77,80.14,0
78,77.78,80.12,0
79,77.80,80.11,0
78,77.81,80.09,0
79,77.83,80.08,0
79,77.85,80.07,0
78,77.86,80.05,0
78,77.86,80.03,0
78,77.86,80.01,0
78,77.87,79.99,0
76,77.83,79.95,0
76,77.79,79.91,0
77,77.78,79.88,0
78,77.78,79.86,0
78,77.78,79.84,0
78,77.79,79.82,0
78,77.79,79.80,0
80,77.84,79.80,0
78,77.84,79.79,0
76,77.80,79.75,0
77,77.79,79.72,0
76,77.75,79.68,0
76,77.72,79.65,0
78,77.72,79.63,0
78,77.73,79.61,0
76,77.69,79.58,0
76,77.66,79.54,0
78,77.67,79.53,0
79,77.69,79.52,0
80,77.74,79.53,0
78,77.74,79.51,0
78,77.75,79.50,0
78,77.75,79.48,0
76,77.72,79.45,0
78,77.73,79.43,0
79,77.75,79.43,0
78,77.76,79.41,0
76,77.72,79.38,0
76,77.69,79.35,0
78,77.69,79.33,0
76,77.66,79.30,0
76,77.63,79.27,0
77,77.61,79.24,0
78,77.62,79.23,0
79,77.65,79.23,0
80,77.70,79.24,0
79,77.72,79.23,0
77,77.71,79.21,0
79,77.73,79.21,0
79,77.76,79.21,0
79,77.78,79.21,0
81,77.85,79.22,0
80,77.89,79.23,0
79,77.91,79.23,0
82,77.99,79.26,0
79,78.01,79.25,0
80,78.05,79.26,0
80,78.09,79.27,0
79,78.11,79.27,0
79,78.13,79.26,0
80,78.17,79.27,0
80,78.20,79.28,0
84,78.32,79.33,0
79,78.33,79.32,0
78,78.33,79.31,0
79,78.34,79.31,0
79,78.35,79.30,0
79,78.37,79.30,0
80,78.40,79.31,0
79,78.41,79.30,0
77,78.38,79.28,0
79,78.39,79.28,0
81,78.45,79.29,0
78,78.44,79.28,0
77,78.41,79.26,0
78,78.40,79.25,0
77,78.37,79.22,0
78,78.37,79.21,0
76,78.32,79.18,0
78,78.31,79.17,0
79,78.33,79.17,0
78,78.32,79.15,0
78,78.31,79.14,0
78,78.31,79.13,0
79,78.32,79.13,0
78,78.31,79.12,0
77,78.29,79.10,0
78,78.28,79.09,0
77,78.26,79.07,0
77,78.23,79.05,0
76,78.19,79.01,0
78,78.18,79.00,0
77,78.16,78.98,0
78,78.16,78.97,0
76,78.11,78.95,0
76,78.07,78.92,0
76,78.03,78.89,0
76,77.99,78.86,0
76,77.95,78.83,0
76,77.91,78.80,0
76,77.87,78.77,0
78,77.87,78.76,0
75,77.82,78.73,0
76,77.78,78.70,0
76,77.74,78.67,0
77,77.73,78.66,0
76,77.70,78.63,0
76,77.66,78.60,0
76,77.63,78.58,0
75,77.58,78.54,0
74,77.50,78.50,0
76,77.47,78.47,0
78,77.48,78.47,0
79,77.51,78.47,0
74,77.44,78.43,0
76,77.42,78.40,0
76,77.39,78.38,0
75,77.34,78.35,0
74,77.27,78.30,0
76,77.25,78.28,0
76,77.22,78.26,0
76,77.20,78.23,0
74,77.13,78.19,0
76,77.11,78.17,0
75,77.07,78.14,0
75,77.03,78.11,0
76,77.01,78.08,0
75,76.97,78.05,0
75,76.93,78.02,0
76,76.91,78.00,0
76,76.89,77.98,0
78,76.91,77.98,0
78,76.93,77.98,0
74,76.88,77.94,0
74,76.82,77.90,0
76,76.80,77.89,0
77,76.81,77.88,0
78,76.83,77.88,0
76,76.81,77.86,0
76,76.80,77.84,0
76,76.78,77.82,0
76,76.77,77.80,0
76,76.75,77.79,0
76,76.74,77.77,0
76,76.72,77.75,0
76,76.71,77.73,0
75,76.67,77.71,0
76,76.66,77.69,0
74,76.61,77.65,0
76,76.59,77.63,0
76,76.58,77.62,0
76,76.57,77.60,0
76,76.56,77.59,0
77,76.57,77.58,0
74,76.52,77.54,0
74,76.47,77.51,0
75,76.44,77.48,0
74,76.39,77.45,0
76,76.38,77.43,0
76,76.37,77.42,0
74,76.32,77.39,0
75,76.30,77.36,0
76,76.29,77.35,0
76,76.29,77.34,0
74,76.24,77.30,0
76,76.24,77.29,0
76,76.23,77.28,0
74,76.19,77.24,0
76,76.18,77.23,0
80,76.26,77.26,0
77,76.27,77.26,0
77,76.29,77.25,0
76,76.28,77.24,0
77,76.30,77.24,0
78,76.33,77.25,0
78,76.36,77.25,0
77,76.38,77.25,0
80,76.45,77.28,0
78,76.48,77.29,0
76,76.47,77.27,0
77,76.48,77.27,0
76,76.47,77.26,0
76,76.46,77.24,0
76,76.45,77.23,0
77,76.46,77.23,0
75,76.43,77.21,0
76,76.43,77.20,0
76,76.42,77.18,0
77,76.43,77.18,0
76,76.42,77.17,0
76,76.41,77.16,0
76,76.40,77.15,0
77,76.42,77.15,0
76,76.41,77.13,0
75,76.38,77.11,0
74,76.33,77.08,0
75,76.31,77.06,0
76,76.30,77.05,0
76,76.29,77.04,0
76,76.29,77.03,0
76,76.28,77.02,0
76,76.28,77.01,0
75,76.25,76.99,0
74,76.21,76.96,0
77,76.22,76.96,0
78,76.26,76.97,0
76,76.25,76.96,0
75,76.23,76.94,0
76,76.22,76.93,0
75,76.20,76.91,0
76,76.19,76.90,0
76,76.19,76.89,0
76,76.19,76.88,0
76,76.18,76.88,0
74,76.14,76.85,0
75,76.12,76.83,0
77,76.13,76.83,0
75,76.11,76.81,0
74,76.07,76.78,0
74,76.03,76.76,0
76,76.03,76.75,0
76,76.03,76.74,0
76,76.03,76.73,0
76,76.03,76.73,0
76,76.02,76.72,0
75,76.00,76.70,0
74,75.96,76.67,0
76,75.96,76.67,0
75,75.95,76.65,0
74,75.91,76.62,0
76,75.91,76.62,0
76,75.91,76.61,0
77,75.93,76.62,0
79,75.99,76.64,0
74,75.95,76.61,0
76,75.95,76.61,0
78,76.00,76.62,0
78,76.04,76.64,0
76,76.03,76.63,0
78,76.07,76.64,0
75,76.05,76.63,0
76,76.05,76.62,0
78,76.09,76.63,0
76,76.09,76.63,0
76,76.09,76.62,0
74,76.05,76.59,0
78,76.08,76.61,0
76,76.08,76.60,0
76,76.08,76.60,0
76,76.08,76.59,0
76,76.08,76.58,0
75,76.06,76.57,0
77,76.08,76.57,0
80,76.15,76.61,0
76,76.15,76.60,0
76,76.15,76.60,0
76,76.14,76.59,0
76,76.14,76.58,0
76,76.14,76.58,0
78,76.18,76.59,0
75,76.15,76.58,0
76,76.15,76.57,0
76,76.15,76.56,0
75,76.12,76.55,0
74,76.08,76.52,0
76,76.08,76.52,0
74,76.04,76.49,0
76,76.04,76.49,0
76,76.04,76.48,0
76,76.04,76.48,0
76,76.03,76.47,0
75,76.01,76.46,0
74,75.97,76.43,0
76,75.97,76.43,0
74,75.94,76.41,0
74,75.90,76.38,0
74,75.86,76.36,0
73,75.80,76.32,0
74,75.77,76.30,0
74,75.73,76.28,0
74,75.70,76.26,0
76,75.70,76.25,0
74,75.67,76.23,0
74,75.63,76.21,0
74,75.60,76.19,0
74,75.57,76.16,0
76,75.58,76.16,0
76,75.59,76.16,0
75,75.57,76.15,0
74,75.54,76.13,0
74,75.51,76.11,0
74,75.48,76.09,0
79,75.55,76.11,0
73,75.50,76.08,0
74,75.47,76.06,0
74,75.44,76.04,0
73,75.39,76.01,0
73,75.35,75.98,0
74,75.32,75.96,0
74,75.29,75.94,0
73,75.25,75.91,0
76,75.26,75.91,0
74,75.24,75.89,0
75,75.23,75.89,0
75,75.23,75.88,0
74,75.20,75.86,0
75,75.20,75.85,0
76,75.21,75.85,0
73,75.17,75.82,0
74,75.15,75.80,0
74,75.12,75.79,0
74,75.10,75.77,0
75,75.10,75.76,0
74,75.08,75.74,0
74,75.06,75.73,0
74,75.03,75.71,0
74,75.01,75.69,0
76,75.03,75.69,0
73,74.99,75.67,0
76,75.01,75.67,0
77,75.05,75.68,0
74,75.03,75.67,0
74,75.01,75.65,0
75,75.01,75.64,0
75,75.01,75.64,0
74,74.99,75.62,0
74,74.97,75.60,0
76,74.99,75.61,0
74,74.97,75.59,0
74,74.95,75.58,0
74,74.93,75.56,0
74,74.91,75.55,0
74,74.90,75.53,0
74,74.88,75.51,0
74,74.86,75.50,0
74,74.84,75.48,0
74,74.83,75.47,0
74,74.81,75.45,0
74,74.79,75.44,0
74,74.78,75.43,0
74,74.76,75.41,0
74,74.75,75.40,0
76,74.77,75.40,0
74,74.76,75.39,0
76,74.78,75.40,0
76,74.81,75.40,0
74,74.79,75.39,0
73,74.75,75.36,0
75,74.76,75.36,0
74,74.74,75.35,0
76,74.77,75.35,0
75,74.77,75.35,0
78,74.84,75.38,0
78,74.90,75.40,0
78,74.96,75.43,0
75,74.96,75.42,0
74,74.94,75.41,0
78,75.01,75.44,0
76,75.03,75.44,0
76,75.05,75.45,0
76,75.06,75.45,0
77,75.10,75.47,0
76,75.12,75.47,0
79,75.20,75.51,0
83,75.35,75.58,0
77,75.39,75.60,0
79,75.46,75.63,0
80,75.55,75.68,0
77,75.58,75.69,0
79,75.65,75.72,0
77,75.67,75.73,0
77,75.70,75.75,0
80,75.79,75.79,0
77,75.81,75.80,0
77,75.84,75.81,0
78,75.88,75.84,0
79,75.94,75.87,0
77,75.96,75.88,0
78,76.00,75.90,0
77,76.02,75.91,0
79,76.08,75.94,0
79,76.14,75.97,0
77,76.16,75.98,0
76,76.15,75.98,0
77,76.17,75.99,0
76,76.17,75.99,0
78,76.21,76.01,0
78,76.24,76.03,0
77,76.26,76.04,0
80,76.33,76.08,0
76,76.32,76.08,0
76,76.32,76.08,0
77,76.33,76.09,0
77,76.34,76.10,0
76,76.34,76.10,0
76,76.33,76.10,0
77,76.34,76.11,0
76,76.34,76.10,0
76,76.33,76.10,0
76,76.32,76.10,0
76,76.32,76.10,0
76,76.31,76.10,0
76,76.31,76.10,0
77,76.32,76.11,0
78,76.35,76.13,0
79,76.41,76.16,0
78,76.44,76.17,0
78,76.47,76.19,0
77,76.48,76.20,0
78,76.51,76.22,0
78,76.54,76.24,0
76,76.53,76.23,0
78,76.56,76.25,0
78,76.59,76.27,0
78,76.62,76.29,0
76,76.60,76.28,0
77,76.61,76.29,0
78,76.64,76.31,0
78,76.67,76.33,0
79,76.71,76.35,0
83,76.84,76.42,0
80,76.90,76.45,0
78,76.92,76.47,0
78,76.95,76.48,0
81,77.03,76.53,0
81,77.11,76.57,0
82,77.20,76.63,0
79,77.24,76.65,0
80,77.29,76.69,0
78,77.31,76.70,0
84,77.44,76.77,0
79,77.47,76.79,0
89,77.70,76.92,0
84,77.83,76.99,0
81,77.89,77.03,0
82,77.98,77.08,0
83,78.08,77.14,0
84,78.19,77.21,0
86,78.35,77.29,0
82,78.42,77.34,0
85,78.56,77.42,0
86,78.70,77.50,0
88,78.89,77.61,0
82,78.95,77.65,0
82,79.01,77.70,0
88,79.19,77.80,0
84,79.29,77.86,0
86,79.42,77.94,0
90,79.63,78.06,0
90,79.84,78.18,0
86,79.97,78.26,0
87,80.11,78.35,0
85,80.20,78.41,0
89,80.38,78.52,0
88,80.53,78.61,0
85,80.62,78.68,0
88,80.77,78.77,0
89,80.93,78.87,0
88,81.08,78.96,0
92,81.29,79.10,0
95,81.57,79.25,0
92,81.78,79.38,0
88,81.90,79.47,0
90,82.06,79.57,0
90,82.22,79.68,0
93,82.44,79.81,0
90,82.59,79.91,0
94,82.82,80.05,0
92,83.00,80.17,0
93,83.20,80.30,0
96,83.46,80.46,0
91,83.61,80.56,0
103,84.00,80.79,0
110,84.52,81.08,0
100,84.82,81.27,0
99,85.11,81.45,0
100,85.41,81.63,0
102,85.74,81.84,0
105,86.12,82.07,0
104,86.48,82.29,0
101,86.77,82.47,0
109,87.22,82.74,0
113,87.73,83.04,0
108,88.14,83.29,0
102,88.41,83.48,0
101,88.67,83.65,0
104,88.97,83.86,0
105,89.29,84.07,0
108,89.67,84.31,0
113,90.13,84.59,0
115,90.63,84.90,0
109,91.00,85.14,0
106,91.30,85.35,0
105,91.57,85.55,0
113,92.00,85.82,0
111,92.38,86.07,0
105,92.63,86.26,0
111,93.00,86.51,0
108,93.30,86.72,0
106,93.55,86.92,0
111,93.90,87.16,0
108,94.19,87.37,0
105,94.40,87.54,0
111,94.73,87.78,0
111,95.06,88.01,0
108,95.32,88.21,0
109,95.59,88.42,0
112,95.92,88.65,0
116,96.32,88.93,0
109,96.58,89.13,0
109,96.82,89.32,0
108,97.05,89.51,0
112,97.35,89.74,0
118,97.76,90.02,0
117,98.14,90.29,0
115,98.48,90.54,0
113,98.77,90.76,0
119,99.18,91.04,0
120,99.59,91.33,0
113,99.86,91.55,0
119,100.24,91.82,0
123,100.70,92.14,0
118,101.04,92.39,0
116,101.34,92.63,0
118,101.68,92.88,0
115,101.94,93.11,0
118,102.26,93.35,0
120,102.62,93.62,0
119,102.95,93.87,0
124,103.37,94.18,0
120,103.70,94.43,0
123,104.09,94.72,0
117,104.34,94.94,0
137,105.00,95.36,0
126,105.42,95.67,0
124,105.79,95.95,0
126,106.19,96.25,0
125,106.57,96.54,0
128,107.00,96.86,0
129,107.44,97.18,0
122,107.73,97.42,0
134,108.26,97.79,0
130,108.69,98.11,0
129,109.10,98.42,0
128,109.47,98.72,0
124,109.76,98.97,0
128,110.13,99.26,0
127,110.47,99.54,0
125,110.76,99.79,0
125,111.04,100.04,0
128,111.38,100.32,0
130,111.75,100.62,0
129,112.10,100.90,0
129,112.44,101.19,0
127,112.73,101.44,0
129,113.05,101.72,0
129,113.37,101.99,0
130,113.71,102.27,0
139,114.21,102.64,0
138,114.69,102.99,0
133,115.05,103.29,0
131,115.37,103.57,0
137,115.80,103.90,0
137,116.23,104.24,0
134,116.58,104.53,0
135,116.95,104.84,0
141,117.43,105.20,0
140,117.88,105.55,0
136,118.25,105.85,0
146,118.80,106.25,0
141,119.25,106.60,0
139,119.64,106.92,0
136,119.97,107.22,0
139,120.35,107.53,0
144,120.82,107.90,0
137,121.15,108.19,0
137,121.46,108.48,0
139,121.81,108.78,0
140,122.18,109.09,0
140,122.53,109.40,0
139,122.86,109.70,0
140,123.21,110.00,0
141,123.56,110.31,0
141,123.91,110.62,0
139,124.21,110.90,0
140,124.53,111.19,0
137,124.78,111.45,0
143,125.14,111.77,0
140,125.44,112.05,0
140,125.73,112.33,0
142,126.06,112.63,0
143,126.39,112.93,0
141,126.69,113.21,0
141,126.97,113.49,0
140,127.23,113.75,0
137,127.43,113.99,0
137,127.62,114.22,0
139,127.85,114.46,0
137,128.03,114.69,0
141,128.29,114.95,0
139,128.50,115.19,0
139,128.71,115.43,0
137,128.88,115.65,0
138,129.06,115.87,0
138,129.24,116.09,0
138,129.42,116.31,0
136,129.55,116.51,0
136,129.68,116.70,0
136,129.80,116.90,0
136,129.93,117.09,0
137,130.07,117.29,0
136,130.19,117.47,0
137,130.32,117.67,0
136,130.44,117.85,0
135,130.53,118.02,0
136,130.64,118.20,0
137,130.77,118.39,0
137,130.89,118.58,0
135,130.97,118.74,0
135,131.05,118.90,0
135,131.13,119.06,0
135,131.21,119.22,0
135,131.28,119.38,0
139,131.44,119.58,0
136,131.53,119.74,0
137,131.64,119.91,0
133,131.67,120.05,0
135,131.73,120.20,0
133,131.76,120.32,0
135,131.82,120.47,0
133,131.85,120.60,0
134,131.89,120.73,0
133,131.91,120.85,0
133,131.93,120.97,0
133,131.96,121.09,0
133,131.98,121.21,0
133,132.00,121.33,0
133,132.02,121.45,0
133,132.04,121.56,0
132,132.04,121.67,0
133,132.06,121.78,0
132,132.05,121.88,0
132,132.05,121.98,0
132,132.05,122.08,0
131,132.03,122.17,0
131,132.01,122.26,0
133,132.03,122.37,0
131,132.01,122.46,0
130,131.97,122.53,0
129,131.91,122.60,0
129,131.85,122.66,0
131,131.83,122.74,0
130,131.80,122.82,0
129,131.74,122.88,0
129,131.69,122.94,0
129,131.63,123.00,0
129,131.58,123.06,0
129,131.53,123.12,0
129,131.48,123.18,0
128,131.41,123.23,0
129,131.36,123.28,0
128,131.29,123.33,0
128,131.23,123.38,0
128,131.16,123.42,0
128,131.10,123.47,0
128,131.04,123.51,0
127,130.96,123.55,0
128,130.90,123.59,0
127,130.82,123.63,0
127,130.74,123.66,0
127,130.67,123.70,0
126,130.58,123.72,0
127,130.50,123.75,0
127,130.43,123.78,0
129,130.41,123.84,0
125,130.30,123.85,0
126,130.21,123.87,0
125,130.11,123.88,0
126,130.02,123.90,0
123,129.88,123.89,0
125,129.79,123.90,0
125,129.69,123.91,0
125,129.60,123.93,0
125,129.51,123.94,0
125,129.42,123.95,0
124,129.31,123.95,0
125,129.22,123.96,0
124,129.12,123.96,0
123,128.99,123.95,0
125,128.91,123.96,0
123,128.80,123.95,0
124,128.70,123.95,0
123,128.59,123.94,0
123,128.47,123.93,0
123,128.36,123.92,0
122,128.24,123.90,0
121,128.09,123.87,0
121,127.95,123.84,0
121,127.81,123.82,0
121,127.68,123.79,0
122,127.56,123.77,0
121,127.43,123.74,0
121,127.30,123.72,0
121,127.18,123.69,0
121,127.05,123.66,0
121,126.93,123.63,0
121,126.81,123.61,0
120,126.68,123.57,0
120,126.54,123.54,0
120,126.41,123.50,0
121,126.30,123.48,0
120,126.18,123.44,0
120,126.05,123.41,0
119,125.91,123.36,0
119,125.78,123.32,0
119,125.64,123.28,0
117,125.47,123.21,0
119,125.34,123.17,0
123,125.29,123.17,0
117,125.12,123.11,0
118,124.98,123.06,0
117,124.82,123.00,0
117,124.67,122.94,0
117,124.51,122.88,0
117,124.36,122.82,0
117,124.22,122.76,0
117,124.07,122.70,0
118,123.95,122.66,0
116,123.79,122.59,0
116,123.63,122.52,0
117,123.50,122.47,0
115,123.33,122.39,0
119,123.25,122.36,0
115,123.08,122.29,0
112,122.86,122.18,0
115,122.70,122.11,0
115,122.55,122.04,0
115,122.40,121.97,0
116,122.27,121.91,0
115,122.12,121.84,0
115,121.98,121.77,0
114,121.82,121.69,0
114,121.67,121.62,0
115,121.53,121.55,0
114,121.38,121.48,0
113,121.21,121.39,0
113,121.05,121.31,0
113,120.89,121.22,0
111,120.69,121.12,0
113,120.54,121.04,0
113,120.39,120.96,0
113,120.24,120.88,0
113,120.09,120.80,0
113,119.95,120.72,0
113,119.81,120.65,0
115,119.72,120.59,0
113,119.58,120.51,0
113,119.45,120.44,0
113,119.32,120.36,0
116,119.25,120.32,0
113,119.13,120.25,0
113,119.01,120.18,0
112,118.87,120.09,0
111,118.71,120.00,0
111,118.56,119.91,0
111,118.40,119.82,0
111,118.26,119.74,0
111,118.11,119.65,0
111,117.97,119.56,0
111,117.83,119.48,0
109,117.65,119.37,0
111,117.52,119.29,0
111,117.39,119.20,0
110,117.24,119.11,0
111,117.12,119.03,0
109,116.95,118.93,0
112,116.86,118.86,0
109,116.70,118.76,0
109,116.54,118.67,0
109,116.39,118.57,0
109,116.25,118.47,0
110,116.12,118.39,0
109,115.98,118.29,0
109,115.84,118.20,0
109,115.70,118.11,0
109,115.57,118.02,0
108,115.42,117.92,0
110,115.31,117.84,0
109,115.18,117.75,0
109,115.06,117.66,0
109,114.94,117.58,0
109,114.82,117.49,0
107,114.66,117.39,0
109,114.55,117.30,0
108,114.42,117.21,0
107,114.27,117.11,0
108,114.14,117.02,0
108,114.02,116.93,0
109,113.92,116.85,0
110,113.84,116.78,0
109,113.75,116.70,0
108,113.63,116.61,0
108,113.52,116.53,0
109,113.43,116.45,0
110,113.36,116.39,0
110,113.29,116.32,0
109,113.21,116.25,0
107,113.08,116.16,0
108,112.98,116.08,0
107,112.86,115.99,0
107,112.74,115.90,0
105,112.59,115.79,0
110,112.54,115.73,0
108,112.45,115.65,0
108,112.36,115.57,0
107,112.25,115.49,0
108,112.17,115.41,0
108,112.08,115.34,0
107,111.98,115.26,0
107,111.88,115.17,0
107,111.78,115.09,0
108,111.71,115.02,0
107,111.61,114.94,0
107,111.52,114.86,0
105,111.39,114.76,0
108,111.32,114.70,0
107,111.24,114.62,0
107,111.15,114.54,0
105,111.03,114.45,0
105,110.91,114.35,0
107,110.83,114.28,0
105,110.71,114.19,0
105,110.60,114.09,0
108,110.55,114.03,0
107,110.48,113.96,0
107,110.41,113.89,0
107,110.34,113.82,0
107,110.27,113.76,0
105,110.17,113.67,0
106,110.08,113.59,0
105,109.98,113.51,0
105,109.88,113.42,0
107,109.82,113.36,0
105,109.73,113.27,0
105,109.63,113.19,0
105,109.54,113.11,0
107,109.49,113.05,0
105,109.40,112.97,0
105,109.31,112.89,0
105,109.23,112.81,0
105,109.14,112.73,0
105,109.06,112.65,0
104,108.96,112.57,0
104,108.86,112.48,0
104,108.76,112.40,0
109,108.77,112.36,0
105,108.69,112.29,0
105,108.62,112.22,0
105,108.54,112.14,0
105,108.47,112.07,0
105,108.40,112.00,0
104,108.32,111.92,0
105,108.25,111.85,0
105,108.18,111.78,0
103,108.08,111.70,0
103,107.98,111.61,0
103,107.88,111.52,0
107,107.86,111.48,0
104,107.78,111.40,0
104,107.71,111.33,0
104,107.63,111.26,0
103,107.54,111.17,0
104,107.47,111.10,0
105,107.42,111.04,0
107,107.41,111.00,0
105,107.37,110.94,0
105,107.32,110.88,0
105,107.27,110.82,0
104,107.21,110.75,0
105,107.16,110.70,0
108,107.18,110.67,0
109,107.22,110.65,0
108,107.23,110.63,0
109,107.27,110.61,0
105,107.22,110.55,0
111,107.30,110.56,0
111,107.37,110.56,0
109,107.40,110.55,0
108,107.42,110.52,0
108,107.43,110.50,0
108,107.44,110.47,0
110,107.49,110.47,0
109,107.52,110.45,0
109,107.55,110.44,0
107,107.54,110.40,0
109,107.57,110.39,0
108,107.58,110.36,0
108,107.58,110.34,0
108,107.59,110.32,0
107,107.58,110.28,0
107,107.57,110.25,0
108,107.58,110.23,0
107,107.57,110.20,0
106,107.54,110.15,0
107,107.52,110.12,0
105,107.47,110.07,0
108,107.48,110.05,0
105,107.43,110.00,0
105,107.39,109.95,0
107,107.38,109.92,0
107,107.37,109.89,0
106,107.34,109.85,0
107,107.34,109.82,0
106,107.31,109.79,0
105,107.26,109.74,0
106,107.24,109.70,0
106,107.21,109.66,0
105,107.17,109.62,0
106,107.15,109.58,0
105,107.10,109.54,0
105,107.06,109.49,0
105,107.02,109.45,0
106,107.00,109.41,0
105,106.96,109.37,0
105,106.92,109.32,0
106,106.90,109.29,0
106,106.88,109.26,0
105,106.85,109.21,0
105,106.81,109.17,0
104,106.75,109.12,0
105,106.72,109.08,0
105,106.68,109.04,0
107,106.69,109.02,0
106,106.68,108.99,0
105,106.64,108.95,0
104,106.59,108.90,0
105,106.56,108.86,0
104,106.51,108.81,0
105,106.48,108.77,0
105,106.45,108.74,0
105,106.42,108.70,0
104,106.37,108.65,0
105,106.34,108.61,0
103,106.28,108.56,0
105,106.25,108.52,0
105,106.23,108.49,0
103,106.16,108.43,0
104,106.12,108.39,0
104,106.08,108.34,0
106,106.07,108.32,0
104,106.03,108.28,0
104,105.99,108.23,0
103,105.93,108.18,0
101,105.83,108.11,0
103,105.78,108.06,0
104,105.74,108.02,0
104,105.71,107.98,0
105,105.69,107.95,0
103,105.64,107.90,0
104,105.61,107.86,0
103,105.55,107.81,0
103,105.50,107.76,0
101,105.41,107.70,0
101,105.32,107.63,0
103,105.28,107.58,0
102,105.21,107.53,0
102,105.15,107.47,0
102,105.08,107.42,0
101,105.00,107.35,0
100,104.90,107.28,0
101,104.82,107.22,0
101,104.75,107.15,0
102,104.69,107.10,0
101,104.62,107.04,0
101,104.55,106.98,0
101,104.48,106.92,0
101,104.41,106.86,0
99,104.30,106.78,0
99,104.19,106.71,0
100,104.11,106.64,0
103,104.09,106.60,0
100,104.00,106.54,0
105,104.02,106.52,0
101,103.96,106.47,0
105,103.98,106.45,0
101,103.93,106.40,0
101,103.87,106.34,0
100,103.79,106.28,0
101,103.73,106.23,0
101,103.68,106.17,0
100,103.61,106.11,0
100,103.53,106.05,0
99,103.44,105.98,0
99,103.35,105.91,0
101,103.31,105.86,0
99,103.22,105.79,0
100,103.16,105.74,0
99,103.07,105.67,0
99,102.99,105.60,0
98,102.89,105.53,0
99,102.81,105.46,0
100,102.76,105.41,0
99,102.68,105.34,0
102,102.67,105.31,0
100,102.62,105.26,0
95,102.46,105.15,0
99,102.39,105.09,0
100,102.35,105.04,0
100,102.30,104.99,0
99,102.23,104.93,0
98,102.15,104.86,0
98,102.07,104.79,0
98,101.98,104.72,0
99,101.92,104.67,0
98,101.85,104.60,0
96,101.73,104.51,0
98,101.65,104.45,0
97,101.56,104.37,0
98,101.49,104.31,0
98,101.42,104.25,0
96,101.31,104.17,0
97,101.23,104.09,0
96,101.12,104.01,0
96,101.02,103.93,0
96,100.92,103.85,0
97,100.84,103.78,0
96,100.74,103.71,0
96,100.65,103.63,0
98,100.60,103.57,0
102,100.62,103.56,0
100,100.61,103.52,0
98,100.56,103.47,0
96,100.47,103.39,0
97,100.40,103.33,0
96,100.31,103.25,0
97,100.24,103.19,0
98,100.20,103.14,0
98,100.16,103.09,0
96,100.07,103.02,0
96,99.99,102.95,0
97,99.93,102.89,0
95,99.83,102.81,0
96,99.76,102.74,0
95,99.66,102.66,0
95,99.57,102.59,0
96,99.50,102.52,0
95,99.41,102.45,0
95,99.32,102.37,0
95,99.23,102.30,0
95,99.15,102.23,0
95,99.06,102.15,0
96,99.00,102.09,0
95,98.92,102.02,0
96,98.86,101.96,0
96,98.81,101.90,0
96,98.75,101.84,0
95,98.68,101.77,0
96,98.62,101.72,0
95,98.55,101.65,0
95,98.48,101.58,0
95,98.41,101.52,0
96,98.36,101.46,0
94,98.27,101.39,0
94,98.19,101.31,0
94,98.10,101.24,0
94,98.02,101.17,0
93,97.92,101.09,0
93,97.82,101.00,0
95,97.77,100.94,0
95,97.71,100.88,0
95,97.66,100.83,0
93,97.56,100.75,0
93,97.47,100.67,0
94,97.40,100.60,0
93,97.32,100.53,0
93,97.23,100.45,0
93,97.14,100.38,0
93,97.06,100.30,0
93,96.98,100.23,0
94,96.92,100.17,0
93,96.84,100.10,0
93,96.77,100.03,0
93,96.69,99.96,0
92,96.60,99.88,0
93,96.52,99.81,0
92,96.43,99.73,0
94,96.39,99.67,0
92,96.30,99.60,0
92,96.21,99.52,0
92,96.13,99.44,0
92,96.05,99.37,0
92,95.96,99.30,0
92,95.88,99.22,0
92,95.81,99.15,0
92,95.73,99.08,0
93,95.68,99.02,0
93,95.62,98.96,0
90,95.51,98.87,0
92,95.44,98.80,0
92,95.37,98.73,0
91,95.28,98.65,0
92,95.22,98.59,0
92,95.15,98.52,0
93,95.11,98.47,0
92,95.05,98.40,0
90,94.95,98.32,0
92,94.89,98.26,0
94,94.87,98.21,0
90,94.77,98.13,0
90,94.68,98.05,0
90,94.58,97.97,0
91,94.51,97.90,0
91,94.44,97.83,0
92,94.39,97.77,0
92,94.35,97.71,0
91,94.28,97.65,0
90,94.19,97.57,0
93,94.17,97.52,0
92,94.13,97.47,0
92,94.08,97.41,0
92,94.04,97.36,0
92,94.00,97.31,0
90,93.92,97.23,0
91,93.86,97.17,0
90,93.79,97.10,0
92,93.75,97.05,0
91,93.69,96.99,0
94,93.70,96.96,0
94,93.71,96.93,0
90,93.63,96.86,0
91,93.58,96.80,0
90,93.51,96.73,0
92,93.48,96.69,0
90,93.41,96.62,0
91,93.36,96.56,0
87,93.23,96.47,0
92,93.21,96.42,0
90,93.14,96.36,0
90,93.08,96.29,0
90,93.02,96.23,0
89,92.94,96.16,0
90,92.88,96.10,0
89,92.80,96.03,0
87,92.69,95.94,0
89,92.61,95.87,0
89,92.54,95.80,0
89,92.47,95.73,0
92,92.46,95.69,0
89,92.39,95.63,0
89,92.32,95.56,0
89,92.26,95.49,0
88,92.17,95.42,0
91,92.15,95.38,0
88,92.07,95.30,0
89,92.00,95.24,0
89,91.94,95.18,0
88,91.87,95.10,0
88,91.79,95.03,0
87,91.69,94.95,0
87,91.60,94.87,0
88,91.53,94.80,0
87,91.44,94.73,0
86,91.33,94.64,0
88,91.26,94.57,0
88,91.20,94.51,0
88,91.13,94.44,0
86,91.03,94.36,0
87,90.95,94.28,0
87,90.87,94.21,0
86,90.77,94.13,0
87,90.70,94.06,0
86,90.60,93.98,0
86,90.51,93.90,0
86,90.42,93.82,0
86,90.33,93.74,0
87,90.27,93.67,0
86,90.18,93.60,0
86,90.10,93.52,0
86,90.01,93.45,0
85,89.91,93.36,0
86,89.84,93.29,0
86,89.76,93.21,0
86,89.68,93.14,0
85,89.59,93.06,0
86,89.52,92.99,0
86,89.45,92.92,0
86,89.38,92.85,0
90,89.39,92.82,0
86,89.32,92.75,0
86,89.26,92.69,0
86,89.19,92.62,0
86,89.13,92.55,0
86,89.07,92.49,0
84,88.96,92.40,0
85,88.89,92.33,0
86,88.83,92.27,0
84,88.73,92.18,0
84,88.64,92.10,0
84,88.54,92.02,0
85,88.47,91.95,0
84,88.38,91.87,0
84,88.30,91.79,0
84,88.21,91.71,0
85,88.15,91.65,0
84,88.06,91.57,0
84,87.98,91.49,0
84,87.90,91.42,0
83,87.80,91.34,0
83,87.71,91.25,0
84,87.63,91.18,0
84,87.56,91.11,0
83,87.47,91.03,0
82,87.36,90.94,0
82,87.25,90.85,0
84,87.19,90.78,0
83,87.10,90.70,0
82,87.00,90.61,0
82,86.90,90.53,0
82,86.80,90.44,0
82,86.71,90.36,0
82,86.61,90.27,0
82,86.52,90.19,0
82,86.43,90.11,0
82,86.34,90.03,0
82,86.26,89.95,0
81,86.15,89.86,0
82,86.07,89.78,0
82,85.99,89.70,0
82,85.91,89.63,0
82,85.83,89.55,0
82,85.75,89.47,0
82,85.68,89.40,0
82,85.60,89.33,0
80,85.49,89.23,0
84,85.46,89.18,0
82,85.39,89.11,0
84,85.36,89.06,0
82,85.30,88.99,0
84,85.27,88.94,0
82,85.21,88.87,0
81,85.12,88.79,0
82,85.06,88.72,0
85,85.06,88.68,0
82,85.00,88.62,0
81,84.92,88.54,0
81,84.84,88.46,0
81,84.76,88.39,0
82,84.71,88.33,0
80,84.61,88.24,0
80,84.52,88.16,0
79,84.41,88.07,0
82,84.36,88.01,0
81,84.29,87.94,0
81,84.23,87.87,0
81,84.16,87.80,0
80,84.08,87.72,0
81,84.02,87.65,0
80,83.94,87.58,0
78,83.82,87.48,0
81,83.76,87.42,0
80,83.69,87.34,0
79,83.59,87.26,0
79,83.50,87.18,0
80,83.43,87.11,0
82,83.40,87.05,0
80,83.34,86.98,0
79,83.25,86.90,0
80,83.18,86.84,0
79,83.10,86.76,0
79,83.02,86.68,0
79,82.94,86.60,0
80,82.88,86.54,0
79,82.80,86.46,0
78,82.71,86.38,0
