Teste de posicionamento 4(EMG tendao-inervacao (Vermelho A, Verde C) + Ref no cotovelo) - 16/09/2024 - teste6 - 5 contrações
long frequencia = 1000;                 //frequência de aquisição do sinal, neste caso, 1000 sinais por segundo
float fator1 = 0.02, fator2 = 0.01;
float incerteza = 0.13;
float pico_basal = 130; // Mínimo para ser considerado um pico de contração
int filtro_horizontal=200000; //intervalo de 200ms valores não pode ter mais de 1 contração

Biceps_D,mediaMovel_1,mediaMovel_2,Contracao
20,0.40,0.20,0
18,0.75,0.38,0
18,1.10,0.55,0
18,1.44,0.73,0
19,1.79,0.91,0
18,2.11,1.08,0
19,2.45,1.26,0
19,2.78,1.44,0
19,3.10,1.61,0
20,3.44,1.80,0
19,3.75,1.97,0
21,4.10,2.16,0
18,4.38,2.32,0
21,4.71,2.51,0
19,4.99,2.67,0
20,5.29,2.84,0
19,5.57,3.01,0
19,5.84,3.17,0
21,6.14,3.34,0
19,6.40,3.50,0
20,6.67,3.67,0
19,6.92,3.82,0
21,7.20,3.99,0
19,7.43,4.14,0
21,7.71,4.31,0
19,7.93,4.46,0
20,8.17,4.61,0
19,8.39,4.76,0
18,8.58,4.89,0
20,8.81,5.04,0
19,9.01,5.18,0
20,9.23,5.33,0
18,9.41,5.45,0
21,9.64,5.61,0
18,9.81,5.73,0
21,10.03,5.89,0
20,10.23,6.03,0
18,10.39,6.15,0
19,10.56,6.28,0
19,10.73,6.40,0
19,10.89,6.53,0
18,11.03,6.64,0
18,11.17,6.76,0
19,11.33,6.88,0
19,11.48,7.00,0
18,11.61,7.11,0
18,11.74,7.22,0
18,11.87,7.33,0
18,11.99,7.43,0
19,12.13,7.55,0
18,12.25,7.65,0
20,12.40,7.78,0
18,12.51,7.88,0
17,12.60,7.97,0
19,12.73,8.08,0
15,12.78,8.15,0
20,12.92,8.27,0
20,13.06,8.39,0
18,13.16,8.48,0
17,13.24,8.57,0
18,13.33,8.66,0
18,13.43,8.76,0
20,13.56,8.87,0
18,13.65,8.96,0
18,13.73,9.05,0
18,13.82,9.14,0
18,13.90,9.23,0
18,13.99,9.32,0
18,14.07,9.40,0
19,14.16,9.50,0
19,14.26,9.59,0
18,14.34,9.68,0
18,14.41,9.76,0
18,14.48,9.84,0
17,14.53,9.91,0
18,14.60,10.00,0
17,14.65,10.07,0
18,14.72,10.14,0
17,14.76,10.21,0
17,14.81,10.28,0
18,14.87,10.36,0
18,14.93,10.43,0
17,14.97,10.50,0
17,15.01,10.57,0
18,15.07,10.64,0
18,15.13,10.71,0
17,15.17,10.78,0
18,15.23,10.85,0
18,15.28,10.92,0
18,15.34,10.99,0
17,15.37,11.05,0
17,15.40,11.11,0
18,15.45,11.18,0
18,15.51,11.25,0
17,15.54,11.30,0
17,15.56,11.36,0
18,15.61,11.43,0
16,15.62,11.47,0
17,15.65,11.53,0
17,15.68,11.58,0
18,15.72,11.65,0
17,15.75,11.70,0
17,15.77,11.75,0
20,15.86,11.84,0
16,15.86,11.88,0
16,15.86,11.92,0
18,15.91,11.98,0
16,15.91,12.02,0
17,15.93,12.07,0
15,15.91,12.10,0
17,15.93,12.15,0
16,15.93,12.19,0
16,15.94,12.23,0
15,15.92,12.25,0
17,15.94,12.30,0
16,15.94,12.34,0
18,15.98,12.39,0
15,15.96,12.42,0
17,15.98,12.47,0
16,15.98,12.50,0
18,16.02,12.56,0
15,16.00,12.58,0
18,16.04,12.64,0
18,16.08,12.69,0
16,16.08,12.72,0
18,16.12,12.77,0
16,16.12,12.81,0
17,16.13,12.85,0
18,16.17,12.90,0
17,16.19,12.94,0
16,16.18,12.97,0
16,16.18,13.00,0
22,16.30,13.09,0
17,16.31,13.13,0
18,16.34,13.18,0
17,16.36,13.22,0
18,16.39,13.27,0
17,16.40,13.30,0
16,16.39,13.33,0
16,16.39,13.36,0
17,16.40,13.39,0
16,16.39,13.42,0
18,16.42,13.47,0
20,16.49,13.53,0
16,16.48,13.56,0
17,16.49,13.59,0
16,16.48,13.61,0
19,16.54,13.67,0
16,16.52,13.69,0
17,16.53,13.72,0
18,16.56,13.77,0
16,16.55,13.79,0
16,16.54,13.81,0
15,16.51,13.82,0
17,16.52,13.86,0
17,16.53,13.89,0
17,16.54,13.92,0
17,16.55,13.95,0
18,16.58,13.99,0
16,16.57,14.01,0
17,16.57,14.04,0
18,16.60,14.08,0
20,16.67,14.14,0
17,16.68,14.17,0
16,16.66,14.18,0
16,16.65,14.20,0
17,16.66,14.23,0
17,16.66,14.26,0
17,16.67,14.29,0
16,16.66,14.30,0
17,16.66,14.33,0
17,16.67,14.36,0
16,16.66,14.37,0
16,16.64,14.39,0
17,16.65,14.42,0
17,16.66,14.44,0
16,16.65,14.46,0
18,16.67,14.49,0
16,16.66,14.51,0
17,16.67,14.53,0
16,16.65,14.55,0
16,16.64,14.56,0
17,16.65,14.59,0
16,16.63,14.60,0
16,16.62,14.61,0
16,16.61,14.63,0
17,16.62,14.65,0
17,16.62,14.68,0
17,16.63,14.70,0
16,16.62,14.71,0
17,16.63,14.73,0
18,16.65,14.77,0
16,16.64,14.78,0
18,16.67,14.81,0
18,16.70,14.84,0
16,16.68,14.86,0
16,16.67,14.87,0
16,16.65,14.88,0
17,16.66,14.90,0
16,16.65,14.91,0
16,16.63,14.92,0
17,16.64,14.94,0
17,16.65,14.96,0
16,16.64,14.97,0
16,16.62,14.98,0
18,16.65,15.01,0
17,16.66,15.03,0
16,16.64,15.04,0
16,16.63,15.05,0
16,16.62,15.06,0
17,16.63,15.08,0
16,16.61,15.09,0
16,16.60,15.10,0
15,16.57,15.10,0
18,16.60,15.13,0
18,16.63,15.16,0
18,16.65,15.18,0
18,16.68,15.21,0
18,16.71,15.24,0
16,16.69,15.25,0
18,16.72,15.28,0
18,16.75,15.30,0
19,16.79,15.34,0
19,16.83,15.38,0
18,16.86,15.40,0
19,16.90,15.44,0
19,16.94,15.47,0
18,16.96,15.50,0
19,17.00,15.53,0
18,17.02,15.56,0
18,17.04,15.58,0
18,17.06,15.61,0
20,17.12,15.65,0
19,17.16,15.69,0
18,17.18,15.71,0
18,17.19,15.73,0
18,17.21,15.75,0
19,17.24,15.79,0
19,17.28,15.82,0
24,17.41,15.90,0
18,17.43,15.92,0
18,17.44,15.94,0
20,17.49,15.98,0
18,17.50,16.00,0
18,17.51,16.02,0
18,17.52,16.04,0
20,17.57,16.08,0
22,17.66,16.14,0
18,17.66,16.16,0
18,17.67,16.18,0
18,17.68,16.20,0
18,17.68,16.21,0
18,17.69,16.23,0
18,17.70,16.25,0
20,17.74,16.29,0
20,17.79,16.32,0
18,17.79,16.34,0
19,17.82,16.37,0
18,17.82,16.38,0
21,17.88,16.43,0
20,17.93,16.47,0
20,17.97,16.50,0
20,18.01,16.54,0
20,18.05,16.57,0
19,18.07,16.60,0
19,18.09,16.62,0
20,18.12,16.65,0
20,18.16,16.69,0
20,18.20,16.72,0
18,18.19,16.73,0
20,18.23,16.77,0
20,18.27,16.80,0
20,18.30,16.83,0
20,18.33,16.86,0
21,18.39,16.90,0
20,18.42,16.93,0
20,18.45,16.96,0
18,18.44,16.97,0
21,18.49,17.02,0
20,18.52,17.05,0
19,18.53,17.06,0
18,18.52,17.07,0
22,18.59,17.12,0
20,18.62,17.15,0
20,18.65,17.18,0
22,18.71,17.23,0
24,18.82,17.30,0
21,18.86,17.33,0
22,18.93,17.38,0
20,18.95,17.41,0
26,19.09,17.49,0
23,19.17,17.55,0
22,19.22,17.59,0
21,19.26,17.63,0
22,19.31,17.67,0
21,19.35,17.70,0
22,19.40,17.75,0
22,19.45,17.79,0
26,19.58,17.87,0
22,19.63,17.91,0
22,19.68,17.95,0
22,19.73,17.99,0
22,19.77,18.03,0
21,19.80,18.06,0
20,19.80,18.08,0
20,19.80,18.10,0
21,19.83,18.13,0
21,19.85,18.16,0
21,19.87,18.19,0
22,19.92,18.23,0
22,19.96,18.26,0
20,19.96,18.28,0
20,19.96,18.30,0
20,19.96,18.32,0
23,20.02,18.36,0
24,20.10,18.42,0
22,20.14,18.45,0
22,20.18,18.49,0
26,20.29,18.56,0
26,20.41,18.64,0
24,20.48,18.69,0
22,20.51,18.73,0
25,20.60,18.79,0
24,20.67,18.84,0
28,20.81,18.93,0
25,20.90,18.99,0
24,20.96,19.04,0
22,20.98,19.07,0
24,21.04,19.12,0
24,21.10,19.17,0
23,21.14,19.21,0
24,21.20,19.26,0
24,21.25,19.30,0
24,21.31,19.35,0
24,21.36,19.40,0
24,21.41,19.44,0
25,21.48,19.50,0
24,21.54,19.54,0
23,21.56,19.58,0
24,21.61,19.62,0
24,21.66,19.67,0
25,21.73,19.72,0
24,21.77,19.76,0
24,21.82,19.81,0
26,21.90,19.87,0
27,22.00,19.94,0
26,22.08,20.00,0
25,22.14,20.05,0
24,22.18,20.09,0
26,22.26,20.15,0
26,22.33,20.21,0
24,22.36,20.24,0
24,22.40,20.28,0
24,22.43,20.32,0
25,22.48,20.37,0
25,22.53,20.41,0
25,22.58,20.46,0
26,22.65,20.51,0
28,22.75,20.59,0
25,22.80,20.63,0
24,22.82,20.67,0
24,22.85,20.70,0
29,22.97,20.78,0
26,23.03,20.83,0
25,23.07,20.88,0
26,23.13,20.93,0
25,23.17,20.97,0
26,23.22,21.02,0
26,23.28,21.07,0
25,23.31,21.11,0
27,23.39,21.17,0
26,23.44,21.21,0
24,23.45,21.24,0
26,23.50,21.29,0
27,23.57,21.35,0
25,23.60,21.38,0
26,23.65,21.43,0
24,23.65,21.46,0
24,23.66,21.48,0
24,23.67,21.51,0
24,23.68,21.53,0
26,23.72,21.58,0
25,23.75,21.61,0
25,23.77,21.64,0
26,23.82,21.69,0
26,23.86,21.73,0
25,23.88,21.76,0
26,23.93,21.81,0
26,23.97,21.85,0
26,24.01,21.89,0
25,24.03,21.92,0
25,24.05,21.95,0
26,24.09,21.99,0
28,24.16,22.05,0
28,24.24,22.11,0
28,24.32,22.17,0
26,24.35,22.21,0
26,24.38,22.25,0
27,24.44,22.29,0
26,24.47,22.33,0
26,24.50,22.37,0
26,24.53,22.40,0
25,24.54,22.43,0
26,24.57,22.47,0
26,24.59,22.50,0
26,24.62,22.54,0
26,24.65,22.57,0
27,24.70,22.61,0
26,24.72,22.65,0
26,24.75,22.68,0
26,24.77,22.72,0
26,24.80,22.75,0
26,24.82,22.78,0
26,24.85,22.81,0
27,24.89,22.85,0
27,24.93,22.90,0
30,25.03,22.97,0
28,25.09,23.02,0
28,25.15,23.07,0
26,25.17,23.10,0
26,25.18,23.13,0
28,25.24,23.17,0
26,25.26,23.20,0
26,25.27,23.23,0
26,25.28,23.26,0
27,25.32,23.30,0
27,25.35,23.33,0
28,25.41,23.38,0
28,25.46,23.43,0
27,25.49,23.46,0
27,25.52,23.50,0
26,25.53,23.52,0
30,25.62,23.59,0
30,25.71,23.65,0
27,25.73,23.68,0
28,25.78,23.73,0
28,25.82,23.77,0
31,25.92,23.84,0
31,26.03,23.91,0
32,26.15,24.00,0
30,26.22,24.06,0
29,26.28,24.10,0
28,26.31,24.14,0
33,26.45,24.23,0
32,26.56,24.31,0
29,26.61,24.36,0
31,26.69,24.42,0
30,26.76,24.48,0
30,26.83,24.53,0
29,26.87,24.58,0
30,26.93,24.63,0
29,26.97,24.68,0
30,27.03,24.73,0
32,27.13,24.80,0
34,27.27,24.89,0
33,27.38,24.98,0
33,27.50,25.06,0
30,27.55,25.11,0
32,27.64,25.17,0
32,27.72,25.24,0
30,27.77,25.29,0
32,27.85,25.36,0
33,27.96,25.43,0
36,28.12,25.54,0
34,28.23,25.62,0
34,28.35,25.71,0
32,28.42,25.77,0
36,28.57,25.87,0
40,28.80,26.01,0
40,29.03,26.15,0
36,29.17,26.25,0
34,29.26,26.33,0
35,29.38,26.42,0
34,29.47,26.49,0
37,29.62,26.60,0
39,29.81,26.72,0
38,29.97,26.83,0
42,30.21,26.99,0
37,30.35,27.09,0
38,30.50,27.20,0
37,30.63,27.29,0
38,30.78,27.40,0
37,30.90,27.50,0
40,31.09,27.62,0
36,31.18,27.71,0
38,31.32,27.81,0
37,31.43,27.90,0
39,31.59,28.01,0
46,31.87,28.19,0
48,32.20,28.39,0
48,32.51,28.59,0
45,32.76,28.75,0
43,32.97,28.89,0
42,33.15,29.02,0
47,33.42,29.20,0
48,33.72,29.39,0
48,34.00,29.58,0
48,34.28,29.76,0
48,34.56,29.94,0
43,34.72,30.07,0
42,34.87,30.19,0
48,35.13,30.37,0
51,35.45,30.58,0
46,35.66,30.73,0
48,35.91,30.90,0
47,36.13,31.07,0
45,36.31,31.20,0
47,36.52,31.36,0
52,36.83,31.57,0
50,37.09,31.75,0
49,37.33,31.93,0
46,37.51,32.07,0
48,37.72,32.23,0
47,37.90,32.37,0
51,38.16,32.56,0
48,38.36,32.71,0
48,38.55,32.87,0
47,38.72,33.01,0
53,39.01,33.21,0
60,39.43,33.48,0
68,40.00,33.82,0
60,40.40,34.08,0
56,40.71,34.30,0
56,41.02,34.52,0
56,41.32,34.73,0
56,41.61,34.95,0
56,41.90,35.16,0
58,42.22,35.39,0
59,42.56,35.62,0
57,42.84,35.84,0
56,43.11,36.04,0
55,43.34,36.23,0
56,43.60,36.42,0
56,43.85,36.62,0
56,44.09,36.81,0
55,44.31,37.00,0
56,44.54,37.19,0
57,44.79,37.38,0
56,45.01,37.57,0
55,45.21,37.74,0
60,45.51,37.97,0
60,45.80,38.19,0
58,46.04,38.39,0
58,46.28,38.58,0
57,46.50,38.77,0
59,46.75,38.97,0
63,47.07,39.21,0
63,47.39,39.45,0
64,47.72,39.69,0
59,47.95,39.89,0
64,48.27,40.13,0
65,48.60,40.38,0
60,48.83,40.57,0
60,49.06,40.77,0
60,49.27,40.96,0
60,49.49,41.15,0
64,49.78,41.38,0
64,50.06,41.60,0
63,50.32,41.82,0
63,50.58,42.03,0
69,50.94,42.30,0
71,51.35,42.59,0
67,51.66,42.83,0
65,51.93,43.05,0
66,52.21,43.28,0
70,52.56,43.55,0
71,52.93,43.82,0
69,53.25,44.07,0
66,53.51,44.29,0
67,53.78,44.52,0
65,54.00,44.73,0
72,54.36,45.00,0
76,54.79,45.31,0
74,55.18,45.60,0
69,55.46,45.83,0
71,55.77,46.08,0
68,56.01,46.30,0
76,56.41,46.60,0
81,56.90,46.94,0
70,57.16,47.17,0
70,57.42,47.40,0
70,57.67,47.63,0
72,57.96,47.87,0
72,58.24,48.11,0
72,58.52,48.35,0
75,58.84,48.62,0
76,59.19,48.89,0
77,59.54,49.17,0
74,59.83,49.42,0
72,60.08,49.65,0
77,60.42,49.92,0
73,60.67,50.15,0
84,61.13,50.49,0
76,61.43,50.74,0
80,61.80,51.04,0
77,62.11,51.30,0
74,62.34,51.52,0
74,62.58,51.75,0
77,62.87,52.00,0
76,63.13,52.24,0
76,63.39,52.48,0
76,63.64,52.71,0
79,63.95,52.98,0
75,64.17,53.20,0
78,64.44,53.44,0
77,64.69,53.68,0
79,64.98,53.93,0
75,65.18,54.14,0
74,65.36,54.34,0
84,65.73,54.64,0
85,66.12,54.94,0
79,66.37,55.18,0
78,66.61,55.41,0
79,66.85,55.65,0
82,67.16,55.91,0
87,67.55,56.22,0
90,68.00,56.56,0
84,68.32,56.83,0
87,68.70,57.14,0
88,69.08,57.44,0
88,69.46,57.75,0
92,69.91,58.09,0
89,70.29,58.40,0
92,70.73,58.74,0
96,71.23,59.11,0
92,71.65,59.44,0
90,72.01,59.74,0
88,72.33,60.03,0
88,72.65,60.31,0
88,72.95,60.58,0
87,73.24,60.85,0
92,73.61,61.16,0
97,74.08,61.52,0
99,74.58,61.89,0
90,74.89,62.17,0
95,75.29,62.50,0
96,75.70,62.84,0
93,76.05,63.14,0
96,76.45,63.47,0
96,76.84,63.79,0
92,77.14,64.07,0
93,77.46,64.36,0
94,77.79,64.66,0
104,78.31,65.05,0
101,78.77,65.41,0
98,79.15,65.74,0
101,79.59,66.09,0
107,80.14,66.50,0
106,80.65,66.90,0
99,81.02,67.22,0
103,81.46,67.57,0
107,81.97,67.97,0
108,82.49,68.37,0
104,82.92,68.73,0
105,83.36,69.09,0
120,84.10,69.60,0
113,84.67,70.03,0
105,85.08,70.38,0
110,85.58,70.78,0
110,86.07,71.17,0
107,86.49,71.53,0
109,86.94,71.90,0
110,87.40,72.28,0
107,87.79,72.63,0
117,88.37,73.07,0
117,88.95,73.51,0
111,89.39,73.89,0
120,90.00,74.35,0
126,90.72,74.87,0
117,91.25,75.29,0
113,91.68,75.66,0
118,92.21,76.09,0
116,92.68,76.49,0
115,93.13,76.87,0
122,93.71,77.32,0
115,94.13,77.70,0
126,94.77,78.18,0
128,95.43,78.68,0
132,96.17,79.21,0
124,96.72,79.66,0
119,97.17,80.06,0
125,97.72,80.50,0
128,98.33,80.98,0
122,98.80,81.39,0
124,99.31,81.82,0
129,99.90,82.29,0
129,100.48,82.76,0
137,101.21,83.30,0
128,101.75,83.74,0
135,102.41,84.26,0
130,102.97,84.71,0
128,103.47,85.15,0
129,103.98,85.59,0
132,104.54,86.05,0
130,105.05,86.49,0
134,105.63,86.96,0
140,106.31,87.50,0
141,107.01,88.03,0
135,107.57,88.50,0
142,108.26,89.03,0
150,109.09,89.64,0
146,109.83,90.21,0
138,110.39,90.69,0
137,110.92,91.15,0
142,111.55,91.66,0
142,112.16,92.16,0
136,112.63,92.60,0
139,113.16,93.06,0
146,113.82,93.59,0
150,114.54,94.16,0
148,115.21,94.70,0
143,115.77,95.18,0
144,116.33,95.67,0
147,116.94,96.18,0
150,117.60,96.72,0
149,118.23,97.24,0
148,118.83,97.75,0
154,119.53,98.31,0
150,120.14,98.83,0
144,120.62,99.28,0
146,121.13,99.75,0
152,121.74,100.27,0
155,122.41,100.82,0
154,123.04,101.35,0
145,123.48,101.79,0
151,124.03,102.28,0
153,124.61,102.78,0
152,125.16,103.28,0
149,125.63,103.73,0
152,126.16,104.22,0
151,126.66,104.68,0
147,127.06,105.11,0
148,127.48,105.54,0
148,127.89,105.96,0
153,128.40,106.43,0
151,128.85,106.88,0
149,129.25,107.30,0
150,129.67,107.73,0
164,130.35,108.29,0
168,131.11,108.89,0
153,131.54,109.33,0
153,131.97,109.76,0
157,132.47,110.24,0
157,132.96,110.70,0
156,133.42,111.16,0
153,133.82,111.57,0
153,134.20,111.99,0
153,134.58,112.40,0
152,134.92,112.79,0
152,135.27,113.19,0
152,135.60,113.58,0
153,135.95,113.97,0
153,136.29,114.36,0
153,136.62,114.75,0
151,136.91,115.11,0
153,137.23,115.49,0
149,137.47,115.82,0
151,137.74,116.17,0
149,137.96,116.50,0
150,138.20,116.84,0
150,138.44,117.17,0
149,138.65,117.49,0
149,138.86,117.80,0
150,139.08,118.12,0
149,139.28,118.43,0
148,139.45,118.73,0
149,139.65,119.03,0
150,139.85,119.34,0
150,140.06,119.65,0
149,140.23,119.94,0
149,140.41,120.23,0
149,140.58,120.52,0
152,140.81,120.83,0
149,140.97,121.12,0
147,141.09,121.38,0
147,141.21,121.63,0
147,141.33,121.89,0
149,141.48,122.16,0
149,141.63,122.42,0
149,141.78,122.69,0
147,141.88,122.93,0
148,142.01,123.18,0
149,142.15,123.44,0
151,142.32,123.72,0
148,142.44,123.96,0
149,142.57,124.21,0
147,142.66,124.44,0
148,142.76,124.67,0
147,142.85,124.90,0
148,142.95,125.13,0
147,143.03,125.35,0
147,143.11,125.56,0
147,143.19,125.78,0
148,143.29,126.00,0
145,143.32,126.19,0
145,143.35,126.38,0
145,143.39,126.57,0
145,143.42,126.75,0
145,143.45,126.93,0
145,143.48,127.11,0
148,143.57,127.32,0
144,143.58,127.49,0
145,143.61,127.66,0
143,143.60,127.82,0
143,143.58,127.97,0
143,143.57,128.12,0
143,143.56,128.27,0
142,143.53,128.40,0
143,143.52,128.55,0
142,143.49,128.69,0
142,143.46,128.82,0
141,143.41,128.94,0
141,143.36,129.06,0
141,143.31,129.18,0
141,143.27,129.30,0
141,143.22,129.42,0
138,143.12,129.50,0
141,143.08,129.62,0
139,142.99,129.71,0
140,142.93,129.81,0
139,142.86,129.91,0
139,142.78,130.00,0
139,142.70,130.09,0
137,142.59,130.16,0
139,142.52,130.24,0
140,142.47,130.34,0
137,142.36,130.41,0
138,142.27,130.48,0
137,142.17,130.55,0
138,142.08,130.62,0
137,141.98,130.69,0
137,141.88,130.75,0
137,141.78,130.81,0
137,141.69,130.87,0
137,141.59,130.94,0
136,141.48,130.99,0
137,141.39,131.05,0
136,141.28,131.10,0
136,141.18,131.15,0
135,141.06,131.18,0
136,140.95,131.23,0
135,140.83,131.27,0
135,140.72,131.31,0
133,140.56,131.32,0
135,140.45,131.36,0
135,140.34,131.40,0
135,140.24,131.43,0
134,140.11,131.46,0
134,139.99,131.48,0
133,139.85,131.50,0
133,139.71,131.51,0
133,139.58,131.53,0
133,139.45,131.54,0
132,139.30,131.55,0
132,139.15,131.55,0
135,139.07,131.59,0
132,138.93,131.59,0
133,138.81,131.61,0
132,138.67,131.61,0
131,138.52,131.60,0
129,138.33,131.58,0
131,138.18,131.57,0
130,138.02,131.56,0
130,137.86,131.54,0
129,137.68,131.52,0
129,137.51,131.49,0
129,137.34,131.47,0
129,137.17,131.44,0
129,137.01,131.42,0
129,136.85,131.39,0
129,136.69,131.37,0
128,136.52,131.33,0
129,136.37,131.31,0
128,136.20,131.28,0
128,136.03,131.24,0
127,135.85,131.20,0
127,135.68,131.16,0
125,135.46,131.10,0
127,135.29,131.06,0
127,135.13,131.02,0
126,134.95,130.97,0
125,134.75,130.91,0
126,134.57,130.86,0
125,134.38,130.80,0
125,134.19,130.74,0
126,134.03,130.69,0
125,133.85,130.64,0
125,133.67,130.58,0
125,133.50,130.53,0
126,133.35,130.48,0
125,133.18,130.43,0
124,133.00,130.36,0
124,132.82,130.30,0
123,132.62,130.22,0
123,132.43,130.15,0
124,132.26,130.09,0
123,132.08,130.02,0
123,131.89,129.95,0
123,131.72,129.88,0
121,131.50,129.79,0
121,131.29,129.70,0
122,131.11,129.63,0
123,130.94,129.56,0
122,130.76,129.48,0
122,130.59,129.41,0
121,130.40,129.33,0
123,130.25,129.26,0
121,130.06,129.18,0
121,129.88,129.10,0
121,129.71,129.02,0
119,129.49,128.92,0
121,129.32,128.84,0
119,129.12,128.74,0
120,128.93,128.65,0
119,128.73,128.56,0
120,128.56,128.47,0
120,128.39,128.38,0
119,128.20,128.29,0
119,128.02,128.20,0
118,127.82,128.10,0
119,127.64,128.01,0
120,127.49,127.93,0
118,127.30,127.83,0
119,127.13,127.74,0
120,126.99,127.66,0
118,126.81,127.56,0
117,126.61,127.46,0
118,126.44,127.36,0
117,126.25,127.26,0
117,126.07,127.16,0
117,125.89,127.06,0
117,125.71,126.96,0
117,125.53,126.86,0
117,125.36,126.76,0
116,125.18,126.65,0
116,124.99,126.54,0
116,124.81,126.44,0
115,124.62,126.32,0
115,124.42,126.21,0
115,124.24,126.10,0
116,124.07,126.00,0
116,123.91,125.90,0
115,123.73,125.79,0
116,123.58,125.69,0
115,123.40,125.58,0
114,123.22,125.47,0
114,123.03,125.35,0
113,122.83,125.23,0
114,122.66,125.12,0
117,122.54,125.04,0
114,122.37,124.93,0
114,122.20,124.82,0
114,122.04,124.71,0
113,121.86,124.59,0
113,121.68,124.47,0
114,121.53,124.37,0
112,121.34,124.25,0
112,121.15,124.12,0
111,120.95,123.99,0
111,120.75,123.86,0
111,120.55,123.73,0
111,120.36,123.61,0
111,120.18,123.48,0
111,119.99,123.36,0
111,119.81,123.23,0
107,119.56,123.07,0
111,119.38,122.95,0
111,119.22,122.83,0
109,119.01,122.69,0
110,118.83,122.56,0
111,118.68,122.45,0
109,118.48,122.31,0
111,118.33,122.20,0
109,118.15,122.07,0
109,117.96,121.94,0
109,117.78,121.81,0
110,117.63,121.69,0
109,117.46,121.56,0
108,117.27,121.43,0
107,117.06,121.28,0
107,116.86,121.14,0
109,116.70,121.02,0
107,116.51,120.88,0
108,116.34,120.75,0
107,116.15,120.61,0
108,115.99,120.49,0
107,115.81,120.35,0
107,115.63,120.22,0
107,115.46,120.09,0
107,115.29,119.96,0
105,115.09,119.81,0
107,114.92,119.68,0
107,114.76,119.55,0
105,114.57,119.41,0
105,114.38,119.26,0
106,114.21,119.13,0
106,114.05,119.00,0
105,113.87,118.86,0
106,113.71,118.73,0
106,113.55,118.60,0
105,113.38,118.47,0
105,113.22,118.33,0
105,113.05,118.20,0
104,112.87,118.06,0
107,112.75,117.95,0
104,112.58,117.81,0
104,112.41,117.67,0
104,112.24,117.53,0
105,112.09,117.41,0
104,111.93,117.27,0
103,111.75,117.13,0
103,111.58,116.99,0
104,111.43,116.86,0
104,111.28,116.73,0
103,111.11,116.59,0
103,110.95,116.46,0
103,110.79,116.32,0
103,110.63,116.19,0
101,110.44,116.04,0
103,110.29,115.91,0
102,110.13,115.77,0
101,109.95,115.62,0
101,109.77,115.47,0
101,109.59,115.33,0
101,109.42,115.19,0
103,109.29,115.06,0
103,109.16,114.94,0
103,109.04,114.82,0
101,108.88,114.69,0
103,108.76,114.57,0
103,108.65,114.45,0
103,108.53,114.34,0
101,108.38,114.20,0
101,108.24,114.07,0
101,108.09,113.94,0
99,107.91,113.79,0
100,107.75,113.65,0
100,107.60,113.52,0
99,107.42,113.37,0
100,107.28,113.24,0
102,107.17,113.13,0
99,107.01,112.99,0
99,106.85,112.85,0
98,106.67,112.70,0
98,106.50,112.55,0
98,106.33,112.40,0
98,106.16,112.26,0
98,106.00,112.12,0
102,105.92,112.02,0
99,105.78,111.89,0
98,105.62,111.75,0
98,105.47,111.61,0
98,105.32,111.47,0
98,105.17,111.34,0
98,105.03,111.21,0
98,104.89,111.07,0
98,104.75,110.94,0
98,104.62,110.81,0
95,104.43,110.66,0
96,104.26,110.51,0
98,104.13,110.38,0
97,103.99,110.25,0
97,103.85,110.12,0
96,103.69,109.98,0
98,103.58,109.86,0
96,103.43,109.72,0
95,103.26,109.57,0
96,103.11,109.44,0
96,102.97,109.30,0
96,102.83,109.17,0
96,102.70,109.04,0
96,102.56,108.91,0
99,102.49,108.81,0
96,102.36,108.68,0
95,102.21,108.54,0
96,102.09,108.42,0
95,101.95,108.28,0
94,101.79,108.14,0
94,101.63,108.00,0
94,101.48,107.86,0
96,101.37,107.74,0
94,101.22,107.60,0
94,101.08,107.47,0
94,100.94,107.33,0
91,100.74,107.17,0
94,100.60,107.04,0
95,100.49,106.92,0
94,100.36,106.79,0
93,100.21,106.65,0
94,100.09,106.52,0
93,99.95,106.39,0
95,99.85,106.27,0
93,99.71,106.14,0
94,99.60,106.02,0
93,99.47,105.89,0
93,99.34,105.76,0
93,99.21,105.63,0
94,99.11,105.52,0
94,99.00,105.40,0
91,98.84,105.26,0
93,98.73,105.13,0
93,98.61,105.01,0
93,98.50,104.89,0
94,98.41,104.78,0
96,98.36,104.70,0
93,98.25,104.58,0
92,98.13,104.45,0
92,98.01,104.33,0
93,97.91,104.22,0
92,97.79,104.09,0
91,97.65,103.96,0
92,97.54,103.84,0
91,97.41,103.71,0
92,97.30,103.60,0
92,97.19,103.48,0
91,97.07,103.36,0
91,96.95,103.23,0
91,96.83,103.11,0
90,96.69,102.98,0
90,96.56,102.85,0
89,96.41,102.71,0
90,96.28,102.58,0
91,96.17,102.47,0
90,96.05,102.34,0
90,95.93,102.22,0
89,95.79,102.09,0
89,95.66,101.96,0
89,95.52,101.83,0
89,95.39,101.70,0
89,95.26,101.57,0
90,95.16,101.46,0
89,95.04,101.33,0
89,94.92,101.21,0
89,94.80,101.09,0
89,94.68,100.97,0
89,94.57,100.85,0
88,94.44,100.72,0
88,94.31,100.59,0
88,94.18,100.46,0
88,94.06,100.34,0
88,93.94,100.22,0
89,93.84,100.10,0
87,93.70,99.97,0
88,93.59,99.85,0
88,93.48,99.74,0
87,93.35,99.61,0
86,93.20,99.47,0
86,93.05,99.34,0
88,92.95,99.22,0
86,92.81,99.09,0
86,92.68,98.96,0
87,92.56,98.84,0
86,92.43,98.71,0
86,92.30,98.59,0
86,92.18,98.46,0
86,92.06,98.34,0
86,91.93,98.21,0
86,91.82,98.09,0
86,91.70,97.97,0
86,91.59,97.85,0
86,91.47,97.73,0
85,91.34,97.60,0
86,91.24,97.49,0
84,91.09,97.35,0
85,90.97,97.23,0
84,90.83,97.10,0
84,90.69,96.97,0
84,90.56,96.84,0
84,90.43,96.71,0
85,90.32,96.59,0
84,90.19,96.46,0
84,90.07,96.34,0
86,89.99,96.24,0
84,89.87,96.11,0
84,89.75,95.99,0
84,89.64,95.87,0
84,89.52,95.75,0
83,89.39,95.63,0
84,89.29,95.51,0
84,89.18,95.40,0
83,89.06,95.27,0
86,89.00,95.18,0
83,88.88,95.06,0
83,88.76,94.94,0
82,88.62,94.81,0
82,88.49,94.68,0
84,88.40,94.57,0
82,88.27,94.45,0
82,88.15,94.32,0
84,88.06,94.22,0
82,87.94,94.10,0
82,87.82,93.98,0
82,87.71,93.86,0
82,87.59,93.74,0
82,87.48,93.62,0
81,87.35,93.49,0
82,87.24,93.38,0
85,87.20,93.29,0
82,87.10,93.18,0
82,86.99,93.07,0
82,86.89,92.96,0
81,86.78,92.84,0
81,86.66,92.72,0
81,86.55,92.60,0
82,86.46,92.50,0
81,86.35,92.38,0
81,86.24,92.27,0
81,86.14,92.16,0
80,86.01,92.04,0
80,85.89,91.91,0
80,85.77,91.80,0
80,85.66,91.68,0
81,85.57,91.57,0
82,85.49,91.48,0
80,85.38,91.36,0
79,85.26,91.24,0
79,85.13,91.11,0
80,85.03,91.00,0
78,84.89,90.87,0
79,84.77,90.75,0
80,84.68,90.65,0
80,84.58,90.54,0
78,84.45,90.42,0
78,84.32,90.29,0
79,84.22,90.18,0
80,84.13,90.08,0
78,84.01,89.96,0
78,83.89,89.84,0
78,83.77,89.72,0
79,83.67,89.61,0
78,83.56,89.49,0
78,83.45,89.38,0
77,83.32,89.26,0
78,83.21,89.14,0
78,83.11,89.03,0
78,83.01,88.92,0
77,82.89,88.80,0
77,82.77,88.68,0
76,82.63,88.56,0
76,82.50,88.43,0
78,82.41,88.33,0
77,82.30,88.21,0
76,82.18,88.09,0
76,82.05,87.97,0
76,81.93,87.85,0
76,81.81,87.73,0
76,81.70,87.62,0
76,81.58,87.50,0
77,81.49,87.39,0
76,81.38,87.28,0
74,81.24,87.15,0
77,81.15,87.05,0
77,81.07,86.95,0
75,80.95,86.83,0
76,80.85,86.72,0
75,80.73,86.60,0
75,80.62,86.48,0
76,80.52,86.38,0
74,80.39,86.26,0
74,80.26,86.13,0
75,80.16,86.02,0
74,80.04,85.90,0
74,79.92,85.78,0
76,79.84,85.69,0
74,79.72,85.57,0
71,79.55,85.42,0
74,79.44,85.31,0
74,79.33,85.20,0
76,79.26,85.10,0
74,79.15,84.99,0
74,79.05,84.88,0
74,78.95,84.77,0
74,78.85,84.67,0
71,78.69,84.53,0
72,78.56,84.40,0
74,78.47,84.30,0
74,78.38,84.20,0
74,78.29,84.09,0
73,78.19,83.98,0
74,78.10,83.88,0
74,78.02,83.79,0
76,77.98,83.71,0
72,77.86,83.59,0
73,77.76,83.48,0
73,77.67,83.38,0
76,77.64,83.31,0
74,77.56,83.21,0
72,77.45,83.10,0
72,77.34,82.99,0
72,77.24,82.88,0
72,77.13,82.77,0
72,77.03,82.66,0
72,76.93,82.56,0
73,76.85,82.46,0
70,76.71,82.34,0
72,76.62,82.23,0
71,76.51,82.12,0
71,76.40,82.01,0
72,76.31,81.91,0
71,76.20,81.80,0
71,76.10,81.69,0
71,76.00,81.59,0
71,75.90,81.48,0
71,75.80,81.37,0
72,75.72,81.28,0
71,75.63,81.18,0
70,75.51,81.07,0
70,75.40,80.96,0
71,75.32,80.86,0
70,75.21,80.75,0
70,75.11,80.64,0
69,74.98,80.52,0
69,74.86,80.41,0
70,74.77,80.30,0
70,74.67,80.20,0
69,74.56,80.09,0
69,74.45,79.98,0
69,74.34,79.87,0
68,74.21,79.75,0
69,74.11,79.64,0
69,74.00,79.54,0
69,73.90,79.43,0
68,73.79,79.32,0
68,73.67,79.20,0
69,73.58,79.10,0
68,73.47,78.99,0
67,73.34,78.87,0
68,73.23,78.76,0
69,73.15,78.66,0
68,73.04,78.56,0
67,72.92,78.44,0
66,72.78,78.32,0
68,72.69,78.21,0
68,72.59,78.11,0
66,72.46,77.99,0
67,72.35,77.88,0
69,72.29,77.79,0
68,72.20,77.69,0
66,72.08,77.58,0
66,71.95,77.46,0
68,71.88,77.37,0
67,71.78,77.26,0
66,71.66,77.15,0
68,71.59,77.06,0
68,71.52,76.97,0
66,71.41,76.86,0
66,71.30,76.75,0
66,71.19,76.64,0
66,71.09,76.54,0
66,70.99,76.43,0
66,70.89,76.33,0
67,70.81,76.23,0
68,70.75,76.15,0
67,70.68,76.06,0
66,70.58,75.96,0
68,70.53,75.88,0
66,70.44,75.78,0
66,70.35,75.68,0
66,70.27,75.59,0
65,70.16,75.48,0
65,70.06,75.38,0
64,69.94,75.26,0
66,69.86,75.17,0
66,69.78,75.08,0
65,69.69,74.98,0
66,69.61,74.89,0
64,69.50,74.78,0
66,69.43,74.69,0
66,69.36,74.60,0
64,69.25,74.50,0
64,69.15,74.39,0
64,69.05,74.29,0
68,69.02,74.23,0
64,68.92,74.12,0
64,68.83,74.02,0
64,68.73,73.92,0
64,68.63,73.82,0
64,68.54,73.72,0
65,68.47,73.64,0
64,68.38,73.54,0
64,68.29,73.45,0
64,68.21,73.35,0
64,68.12,73.26,0
64,68.04,73.16,0
63,67.94,73.06,0
62,67.82,72.95,0
64,67.75,72.86,0
64,67.67,72.77,0
61,67.54,72.66,0
63,67.45,72.56,0
64,67.38,72.47,0
63,67.29,72.38,0
62,67.18,72.28,0
63,67.10,72.18,0
62,67.00,72.08,0
62,66.90,71.98,0
63,66.82,71.89,0
64,66.76,71.81,0
62,66.67,71.71,0
62,66.58,71.62,0
62,66.48,71.52,0
61,66.37,71.42,0
62,66.29,71.32,0
62,66.20,71.23,0
64,66.16,71.16,0
61,66.05,71.05,0
62,65.97,70.96,0
62,65.89,70.87,0
61,65.80,70.78,0
61,65.70,70.68,0
62,65.63,70.59,0
62,65.55,70.50,0
63,65.50,70.43,0
62,65.43,70.35,0
61,65.34,70.25,0
62,65.28,70.17,0
62,65.21,70.09,0
61,65.13,70.00,0
61,65.04,69.91,0
60,64.94,69.81,0
61,64.86,69.72,0
61,64.79,69.63,0
60,64.69,69.54,0
60,64.60,69.44,0
61,64.53,69.36,0
62,64.48,69.28,0
60,64.39,69.19,0
60,64.30,69.10,0
61,64.23,69.02,0
60,64.15,68.93,0
59,64.04,68.83,0
60,63.96,68.74,0
61,63.90,68.66,0
60,63.83,68.58,0
59,63.73,68.48,0
58,63.61,68.37,0
60,63.54,68.29,0
60,63.47,68.21,0
58,63.36,68.11,0
60,63.30,68.03,0
60,63.23,67.94,0
59,63.14,67.86,0
58,63.04,67.76,0
58,62.94,67.66,0
60,62.88,67.58,0
58,62.78,67.49,0
58,62.69,67.39,0
59,62.62,67.31,0
59,62.54,67.22,0
59,62.47,67.14,0
58,62.38,67.05,0
58,62.29,66.96,0
58,62.21,66.87,0
58,62.12,66.78,0
58,62.04,66.69,0
58,61.96,66.61,0
58,61.88,66.52,0
58,61.80,66.44,0
58,61.73,66.35,0
58,61.65,66.27,0
59,61.60,66.20,0
58,61.53,66.11,0
58,61.46,66.03,0
58,61.39,65.95,0
58,61.32,65.87,0
60,61.29,65.81,0
58,61.23,65.74,0
58,61.16,65.66,0
57,61.08,65.57,0
58,61.02,65.50,0
56,60.92,65.40,0
58,60.86,65.33,0
58,60.80,65.25,0
58,60.75,65.18,0
57,60.67,65.10,0
58,60.62,65.03,0
57,60.55,64.95,0
57,60.48,64.87,0
56,60.39,64.78,0
62,60.42,64.75,0
57,60.35,64.67,0
58,60.30,64.61,0
57,60.24,64.53,0
57,60.17,64.46,0
58,60.13,64.39,0
60,60.13,64.35,0
60,60.12,64.30,0
62,60.16,64.28,0
58,60.12,64.22,0
60,60.12,64.18,0
59,60.09,64.12,0
60,60.09,64.08,0
60,60.09,64.04,0
58,60.05,63.98,0
59,60.03,63.93,0
55,59.93,63.84,0
59,59.91,63.79,0
58,59.87,63.74,0
58,59.83,63.68,0
57,59.78,63.61,0
58,59.74,63.56,0
59,59.73,63.51,0
60,59.73,63.48,0
56,59.66,63.40,0
58,59.62,63.35,0
57,59.57,63.28,0
58,59.54,63.23,0
59,59.53,63.19,0
58,59.50,63.14,0
58,59.47,63.09,0
57,59.42,63.02,0
58,59.39,62.97,0
60,59.40,62.94,0
58,59.37,62.90,0
58,59.35,62.85,0
58,59.32,62.80,0
57,59.27,62.74,0
58,59.25,62.69,0
58,59.22,62.65,0
58,59.20,62.60,0
57,59.15,62.54,0
57,59.11,62.49,0
56,59.05,62.42,0
56,58.99,62.36,0
57,58.95,62.30,0
58,58.93,62.26,0
58,58.91,62.22,0
58,58.89,62.18,0
59,58.89,62.15,0
58,58.88,62.10,0
58,58.86,62.06,0
58,58.84,62.02,0
59,58.85,61.99,0
57,58.81,61.94,0
58,58.79,61.90,0
58,58.78,61.86,0
57,58.74,61.81,0
57,58.71,61.77,0
58,58.69,61.73,0
56,58.64,61.67,0
57,58.61,61.63,0
58,58.59,61.59,0
58,58.58,61.55,0
60,58.61,61.54,0
57,58.58,61.49,0
59,58.59,61.47,0
60,58.61,61.45,0
60,58.64,61.44,0
61,58.69,61.43,0
60,58.72,61.42,0
60,58.74,61.41,0
59,58.75,61.38,0
60,58.77,61.37,0
58,58.76,61.33,0
60,58.78,61.32,0
60,58.81,61.31,0
60,58.83,61.29,0
58,58.81,61.26,0
58,58.80,61.23,0
58,58.78,61.20,0
58,58.76,61.16,0
58,58.75,61.13,0
58,58.73,61.10,0
58,58.72,61.07,0
58,58.71,61.04,0
58,58.69,61.01,0
58,58.68,60.98,0
58,58.66,60.95,0
58,58.65,60.92,0
58,58.64,60.89,0
58,58.62,60.86,0
58,58.61,60.83,0
58,58.60,60.80,0
59,58.61,60.79,0
60,58.64,60.78,0
59,58.64,60.76,0
58,58.63,60.73,0
58,58.62,60.71,0
58,58.61,60.68,0
58,58.59,60.65,0
58,58.58,60.63,0
58,58.57,60.60,0
57,58.54,60.56,0
58,58.53,60.54,0
59,58.54,60.52,0
58,58.53,60.50,0
60,58.56,60.49,0
60,58.58,60.49,0
58,58.57,60.46,0
58,58.56,60.44,0
60,58.59,60.43,0
59,58.60,60.42,0
58,58.59,60.39,0
58,58.57,60.37,0
62,58.64,60.39,0
58,58.63,60.36,0
60,58.66,60.36,0
59,58.66,60.35,0
60,58.69,60.34,0
57,58.66,60.31,0
59,58.66,60.30,0
60,58.69,60.29,0
62,58.76,60.31,0
60,58.78,60.31,0
60,58.81,60.30,0
60,58.83,60.30,0
60,58.85,60.30,0
59,58.86,60.29,0
60,58.88,60.28,0
60,58.90,60.28,0
58,58.88,60.26,0
60,58.91,60.25,0
62,58.97,60.27,0
60,58.99,60.27,0
58,58.97,60.25,0
59,58.97,60.23,0
58,58.95,60.21,0
60,58.97,60.21,0
56,58.91,60.17,0
59,58.91,60.16,0
57,58.88,60.12,0
59,58.88,60.11,0
58,58.86,60.09,0
58,58.84,60.07,0
60,58.87,60.07,0
60,58.89,60.07,0
58,58.87,60.05,0
58,58.85,60.03,0
59,58.86,60.02,0
61,58.90,60.03,0
60,58.92,60.03,0
58,58.90,60.01,0
58,58.89,59.99,0
60,58.91,59.99,0
59,58.91,59.98,0
57,58.87,59.95,0
60,58.89,59.95,0
59,58.90,59.94,0
58,58.88,59.92,0
58,58.86,59.90,0
60,58.88,59.90,0
58,58.87,59.88,0
58,58.85,59.86,0
58,58.83,59.84,0
58,58.81,59.83,0
59,58.82,59.82,0
58,58.80,59.80,0
58,58.79,59.78,0
58,58.77,59.76,0
58,58.75,59.75,0
58,58.74,59.73,0
57,58.70,59.70,0
57,58.67,59.67,0
56,58.62,59.64,0
58,58.60,59.62,0
60,58.63,59.63,0
58,58.62,59.61,0
57,58.59,59.58,0
58,58.58,59.57,0
58,58.56,59.55,0
58,58.55,59.54,0
58,58.54,59.52,0
58,58.53,59.51,0
58,58.52,59.49,0
58,58.51,59.48,0
58,58.50,59.46,0
58,58.49,59.45,0
58,58.48,59.43,0
60,58.51,59.44,0
60,58.54,59.44,0
58,58.53,59.43,0
58,58.52,59.41,0
60,58.55,59.42,0
60,58.58,59.43,0
58,58.57,59.41,0
58,58.55,59.40,0
58,58.54,59.38,0
60,58.57,59.39,0
60,58.60,59.40,0
60,58.63,59.40,0
58,58.62,59.39,0
58,58.60,59.37,0
60,58.63,59.38,0
58,58.62,59.37,0
59,58.63,59.36,0
60,58.65,59.37,0
57,58.62,59.35,0
60,58.65,59.35,0
60,58.68,59.36,0
58,58.66,59.34,0
60,58.69,59.35,0
60,58.72,59.36,0
62,58.78,59.38,0
60,58.81,59.39,0
60,58.83,59.40,0
59,58.83,59.39,0
60,58.86,59.40,0
61,58.90,59.41,0
60,58.92,59.42,0
60,58.94,59.43,0
59,58.94,59.42,0
60,58.97,59.43,0
60,58.99,59.43,0
60,59.01,59.44,0
59,59.01,59.43,0
61,59.05,59.45,0
61,59.08,59.47,0
59,59.08,59.46,0
61,59.12,59.48,0
62,59.18,59.50,0
64,59.28,59.55,0
62,59.33,59.57,0
60,59.34,59.58,0
63,59.42,59.61,0
62,59.47,59.63,0
61,59.50,59.65,0
60,59.51,59.65,0
63,59.58,59.68,0
60,59.59,59.69,0
59,59.58,59.68,0
61,59.60,59.69,0
61,59.63,59.71,0
61,59.66,59.72,0
59,59.65,59.71,0
61,59.67,59.73,0
60,59.68,59.73,0
59,59.67,59.72,0
60,59.67,59.72,0
59,59.66,59.72,0
60,59.67,59.72,0
62,59.71,59.74,0
61,59.74,59.75,0
61,59.76,59.77,0
60,59.77,59.77,0
59,59.75,59.76,0
62,59.80,59.78,0
60,59.80,59.79,0
62,59.85,59.81,0
62,59.89,59.83,0
62,59.93,59.85,0
64,60.01,59.89,0
62,60.05,59.91,0
60,60.05,59.92,0
60,60.05,59.92,0
61,60.07,59.93,0
61,60.09,59.94,0
62,60.13,59.96,0
64,60.20,60.00,0
64,60.28,60.04,0
63,60.33,60.07,0
64,60.41,60.11,0
66,60.52,60.17,0
68,60.67,60.25,0
64,60.74,60.28,0
62,60.76,60.30,0
64,60.83,60.34,0
65,60.91,60.38,0
64,60.97,60.42,0
64,61.03,60.46,0
62,61.05,60.47,0
62,61.07,60.49,0
62,61.09,60.50,0
62,61.11,60.52,0
64,61.16,60.55,0
65,61.24,60.60,0
66,61.34,60.65,0
62,61.35,60.66,0
64,61.40,60.70,0
64,61.45,60.73,0
62,61.47,60.74,0
64,61.52,60.77,0
66,61.61,60.83,0
66,61.69,60.88,0
64,61.74,60.91,0
64,61.79,60.94,0
64,61.83,60.97,0
66,61.91,61.02,0
66,61.99,61.07,0
68,62.11,61.14,0
66,62.19,61.19,0
65,62.25,61.23,0
66,62.32,61.28,0
66,62.40,61.32,0
68,62.51,61.39,0
66,62.58,61.44,0
64,62.61,61.46,0
66,62.68,61.51,0
66,62.74,61.55,0
66,62.81,61.60,0
67,62.89,61.65,0
70,63.03,61.73,0
72,63.21,61.84,0
67,63.29,61.89,0
68,63.38,61.95,0
66,63.43,61.99,0
68,63.53,62.05,0
70,63.66,62.13,0
72,63.82,62.23,0
68,63.91,62.29,0
72,64.07,62.38,0
70,64.19,62.46,0
68,64.26,62.51,0
68,64.34,62.57,0
68,64.41,62.62,0
72,64.56,62.72,0
69,64.65,62.78,0
68,64.72,62.83,0
69,64.80,62.89,0
69,64.89,62.95,0
69,64.97,63.02,0
69,65.05,63.08,0
69,65.13,63.13,0
73,65.29,63.23,0
73,65.44,63.33,0
72,65.57,63.42,0
69,65.64,63.47,0
73,65.79,63.57,0
72,65.91,63.65,0
72,66.03,63.74,0
70,66.11,63.80,0
76,66.31,63.92,0
77,66.52,64.05,0
73,66.65,64.14,0
74,66.80,64.24,0
72,66.91,64.32,0
72,67.01,64.39,0
75,67.17,64.50,0
77,67.36,64.63,0
75,67.52,64.73,0
74,67.65,64.82,0
76,67.81,64.93,0
74,67.94,65.02,0
75,68.08,65.12,0
74,68.20,65.21,0
72,68.27,65.28,0
74,68.39,65.37,0
76,68.54,65.47,0
72,68.61,65.54,0
76,68.76,65.64,0
72,68.82,65.71,0
75,68.95,65.80,0
78,69.13,65.92,0
74,69.22,66.00,0
73,69.30,66.07,0
76,69.43,66.17,0
75,69.54,66.26,0
74,69.63,66.34,0
78,69.80,66.45,0
79,69.98,66.58,0
79,70.17,66.70,0
74,70.24,66.78,0
78,70.40,66.89,0
76,70.51,66.98,0
75,70.60,67.06,0
78,70.75,67.17,0
80,70.93,67.30,0
80,71.11,67.43,0
81,71.31,67.56,0
78,71.44,67.67,0
79,71.60,67.78,0
77,71.70,67.87,0
76,71.79,67.95,0
76,71.87,68.03,0
79,72.02,68.14,0
79,72.16,68.25,0
82,72.35,68.39,0
82,72.55,68.52,0
78,72.66,68.62,0
79,72.78,68.72,0
78,72.89,68.82,0
79,73.01,68.92,0
79,73.13,69.02,0
81,73.29,69.14,0
82,73.46,69.27,0
84,73.67,69.41,0
84,73.88,69.56,0
81,74.02,69.67,0
86,74.26,69.84,0
89,74.55,70.03,0
86,74.78,70.19,0
84,74.97,70.33,0
86,75.19,70.48,0
84,75.36,70.62,0
94,75.74,70.85,0
95,76.12,71.09,0
96,76.52,71.34,0
92,76.83,71.55,0
87,77.03,71.70,0
90,77.29,71.89,0
93,77.61,72.10,0
93,77.91,72.31,0
94,78.24,72.52,0
92,78.51,72.72,0
90,78.74,72.89,0
88,78.93,73.04,0
92,79.19,73.23,0
90,79.40,73.40,0
91,79.64,73.58,0
90,79.84,73.74,0
90,80.05,73.90,0
91,80.27,74.07,0
91,80.48,74.24,0
98,80.83,74.48,0
99,81.19,74.73,0
96,81.49,74.94,0
97,81.80,75.16,0
104,82.24,75.45,0
104,82.68,75.73,0
96,82.95,75.94,0
98,83.25,76.16,0
106,83.70,76.46,0
112,84.27,76.81,0
104,84.66,77.08,0
105,85.07,77.36,0
110,85.57,77.69,0
104,85.94,77.95,0
103,86.28,78.20,0
108,86.71,78.50,0
109,87.16,78.80,0
109,87.59,79.11,0
105,87.94,79.37,0
113,88.44,79.70,0
121,89.10,80.12,0
124,89.79,80.55,0
112,90.24,80.87,0
119,90.81,81.25,0
121,91.42,81.65,0
119,91.97,82.02,0
117,92.47,82.37,0
113,92.88,82.68,0
121,93.44,83.06,0
117,93.91,83.40,0
115,94.33,83.72,0
121,94.87,84.09,0
121,95.39,84.46,0
116,95.80,84.77,0
116,96.21,85.09,0
116,96.60,85.39,0
120,97.07,85.74,0
123,97.59,86.11,0
126,98.16,86.51,0
124,98.67,86.89,0
120,99.10,87.22,0
119,99.50,87.54,0
120,99.91,87.86,0
118,100.27,88.16,0
123,100.73,88.51,0
118,101.07,88.81,0
119,101.43,89.11,0
122,101.84,89.44,0
119,102.18,89.73,0
118,102.50,90.01,0
124,102.93,90.35,0
118,103.23,90.63,0
118,103.53,90.90,0
122,103.90,91.22,0
119,104.20,91.49,0
122,104.55,91.80,0
120,104.86,92.08,0
118,105.13,92.34,0
119,105.40,92.61,0
118,105.66,92.86,0
123,106.00,93.16,0
128,106.44,93.51,0
122,106.75,93.79,0
126,107.14,94.12,0
126,107.52,94.44,0
128,107.93,94.77,0
126,108.29,95.08,0
124,108.60,95.37,0
129,109.01,95.71,0
129,109.41,96.04,0
126,109.74,96.34,0
126,110.07,96.64,0
124,110.34,96.91,0
128,110.70,97.22,0
128,111.04,97.53,0
124,111.30,97.79,0
126,111.60,98.08,0
127,111.91,98.37,0
133,112.33,98.71,0
134,112.76,99.07,0
133,113.17,99.40,0
132,113.54,99.73,0
129,113.85,100.02,0
129,114.15,100.31,0
138,114.63,100.69,0
139,115.12,101.07,0
132,115.46,101.38,0
137,115.89,101.74,0
133,116.23,102.05,0
133,116.56,102.36,0
134,116.91,102.68,0
136,117.29,103.01,0
136,117.67,103.34,0
145,118.22,103.76,0
149,118.83,104.21,0
137,119.19,104.54,0
142,119.65,104.91,0
141,120.08,105.27,0
139,120.46,105.61,0
137,120.79,105.92,0
139,121.15,106.25,0
141,121.55,106.60,0
144,122.00,106.98,0
137,122.30,107.28,0
141,122.67,107.61,0
141,123.04,107.95,0
140,123.38,108.27,0
142,123.75,108.61,0
147,124.21,108.99,0
141,124.55,109.31,0
141,124.88,109.63,0
140,125.18,109.93,0
145,125.58,110.28,0
145,125.97,110.63,0
149,126.43,111.01,0
143,126.76,111.33,0
141,127.04,111.63,0
143,127.36,111.94,0
142,127.66,112.24,0
143,127.96,112.55,0
143,128.26,112.85,0
143,128.56,113.16,0
142,128.83,113.44,0
141,129.07,113.72,0
141,129.31,113.99,0
140,129.52,114.25,0
139,129.71,114.50,0
145,130.02,114.81,0
144,130.30,115.10,0
141,130.51,115.36,0
143,130.76,115.63,0
144,131.03,115.92,0
146,131.33,116.22,0
145,131.60,116.51,0
145,131.87,116.79,0
141,132.05,117.03,0
143,132.27,117.29,0
144,132.50,117.56,0
143,132.71,117.81,0
147,133.00,118.11,0
149,133.32,118.41,0
147,133.59,118.70,0
143,133.78,118.94,0
145,134.01,119.20,0
145,134.23,119.46,0
145,134.44,119.72,0
147,134.69,119.99,0
144,134.88,120.23,0
147,135.12,120.50,0
143,135.28,120.72,0
144,135.45,120.96,0
144,135.62,121.19,0
143,135.77,121.40,0
143,135.92,121.62,0
143,136.06,121.83,0
143,136.20,122.05,0
142,136.31,122.24,0
141,136.41,122.43,0
141,136.50,122.62,0
141,136.59,122.80,0
141,136.68,122.98,0
141,136.76,123.16,0
143,136.89,123.36,0
143,137.01,123.56,0
141,137.09,123.73,0
141,137.17,123.91,0
141,137.24,124.08,0
140,137.30,124.24,0
140,137.35,124.39,0
139,137.39,124.54,0
140,137.44,124.69,0
139,137.47,124.84,0
140,137.52,124.99,0
139,137.55,125.13,0
139,137.58,125.27,0
137,137.57,125.39,0
139,137.60,125.52,0
138,137.60,125.65,0
137,137.59,125.76,0
137,137.58,125.87,0
136,137.55,125.97,0
137,137.54,126.08,0
137,137.53,126.19,0
136,137.50,126.29,0
136,137.47,126.39,0
137,137.46,126.49,0
137,137.45,126.60,0
136,137.42,126.69,0
135,137.37,126.78,0
135,137.32,126.86,0
135,137.28,126.94,0
134,137.21,127.01,0
135,137.17,127.09,0
136,137.14,127.18,0
136,137.12,127.27,0
135,137.08,127.35,0
135,137.04,127.42,0
137,137.04,127.52,0
135,137.00,127.59,0
135,136.96,127.67,0
133,136.88,127.72,0
133,136.80,127.77,0
133,136.72,127.82,0
132,136.63,127.87,0
133,136.56,127.92,0
133,136.48,127.97,0
133,136.42,128.02,0
133,136.35,128.07,0
133,136.28,128.12,0
131,136.17,128.15,0
133,136.11,128.20,0
131,136.01,128.22,0
132,135.93,128.26,0
131,135.83,128.29,0
131,135.73,128.32,0
131,135.64,128.34,0
132,135.57,128.38,0
131,135.47,128.41,0
132,135.41,128.44,0
131,135.32,128.47,0
132,135.25,128.50,0
129,135.13,128.51,0
129,135.00,128.51,0
129,134.88,128.52,0
129,134.77,128.52,0
130,134.67,128.54,0
129,134.56,128.54,0
129,134.45,128.55,0
128,134.32,128.54,0
129,134.21,128.55,0
128,134.09,128.54,0
129,133.98,128.54,0
128,133.86,128.54,0
128,133.75,128.53,0
129,133.65,128.54,0
127,133.52,128.52,0
127,133.39,128.51,0
127,133.26,128.49,0
129,133.18,128.50,0
127,133.05,128.48,0
125,132.89,128.45,0
126,132.75,128.42,0
127,132.64,128.41,0
126,132.51,128.38,0
127,132.40,128.37,0
127,132.29,128.36,0
125,132.14,128.32,0
125,132.00,128.29,0
125,131.86,128.26,0
125,131.72,128.23,0
125,131.59,128.19,0
125,131.46,128.16,0
125,131.33,128.13,0
124,131.18,128.09,0
124,131.04,128.05,0
124,130.90,128.01,0
123,130.74,127.96,0
124,130.60,127.92,0
126,130.51,127.90,0
123,130.36,127.85,0
123,130.21,127.80,0
121,130.03,127.73,0
122,129.87,127.68,0
121,129.69,127.61,0
121,129.52,127.54,0
122,129.37,127.49,0
121,129.20,127.42,0
122,129.06,127.37,0
121,128.89,127.30,0
121,128.74,127.24,0
121,128.58,127.18,0
120,128.41,127.11,0
120,128.24,127.04,0
120,128.08,126.97,0
120,127.92,126.90,0
119,127.74,126.82,0
119,127.56,126.74,0
119,127.39,126.66,0
119,127.22,126.58,0
119,127.06,126.51,0
119,126.90,126.43,0
118,126.72,126.35,0
118,126.55,126.27,0
117,126.35,126.17,0
119,126.21,126.10,0
117,126.02,126.01,0
117,125.84,125.92,0
117,125.67,125.83,0
118,125.51,125.75,0
116,125.32,125.66,0
117,125.16,125.57,0
116,124.97,125.47,0
116,124.79,125.38,0
116,124.62,125.28,0
116,124.45,125.19,0
117,124.30,125.11,0
115,124.11,125.01,0
116,123.95,124.92,0
115,123.77,124.82,0
115,123.59,124.72,0
114,123.40,124.61,0
115,123.23,124.52,0
115,123.07,124.42,0
113,122.87,124.31,0
113,122.67,124.20,0
114,122.50,124.09,0
113,122.31,123.98,0
113,122.12,123.87,0
113,121.94,123.76,0
113,121.76,123.66,0
113,121.58,123.55,0
113,121.41,123.44,0
111,121.20,123.32,0
111,121.00,123.20,0
111,120.80,123.07,0
112,120.62,122.96,0
114,120.49,122.87,0
111,120.30,122.76,0
113,120.16,122.66,0
111,119.97,122.54,0
111,119.79,122.43,0
111,119.62,122.31,0
111,119.45,122.20,0
111,119.28,122.09,0
110,119.09,121.97,0
109,118.89,121.84,0
109,118.69,121.71,0
109,118.50,121.58,0
109,118.31,121.45,0
109,118.12,121.33,0
110,117.96,121.22,0
109,117.78,121.09,0
109,117.60,120.97,0
109,117.43,120.85,0
109,117.26,120.74,0
109,117.10,120.62,0
109,116.94,120.50,0
109,116.78,120.39,0
109,116.62,120.27,0
110,116.49,120.17,0
108,116.32,120.05,0
108,116.15,119.93,0
109,116.01,119.82,0
108,115.85,119.70,0
109,115.71,119.59,0
107,115.54,119.47,0
107,115.37,119.34,0
107,115.20,119.22,0
107,115.04,119.10,0
107,114.88,118.98,0
105,114.68,118.84,0
105,114.48,118.70,0
105,114.30,118.56,0
105,114.11,118.43,0
107,113.97,118.31,0
106,113.81,118.19,0
105,113.63,118.06,0
105,113.46,117.93,0
105,113.29,117.80,0
105,113.12,117.67,0
104,112.94,117.53,0
104,112.76,117.40,0
104,112.59,117.26,0
105,112.44,117.14,0
103,112.25,117.00,0
105,112.10,116.88,0
104,111.94,116.75,0
105,111.80,116.63,0
101,111.59,116.48,0
103,111.41,116.34,0
103,111.25,116.21,0
103,111.08,116.08,0
104,110.94,115.96,0
103,110.78,115.83,0
103,110.62,115.70,0
103,110.47,115.57,0
103,110.32,115.44,0
103,110.18,115.32,0
101,109.99,115.18,0
102,109.83,115.05,0
101,109.66,114.90,0
101,109.48,114.77,0
101,109.31,114.63,0
101,109.15,114.49,0
101,108.98,114.36,0
101,108.82,114.22,0
102,108.69,114.10,0
101,108.53,113.97,0
100,108.36,113.83,0
100,108.20,113.69,0
100,108.03,113.56,0
100,107.87,113.42,0
99,107.69,113.28,0
99,107.52,113.13,0
100,107.37,113.00,0
100,107.22,112.87,0
99,107.06,112.73,0
99,106.90,112.60,0
103,106.82,112.50,0
99,106.66,112.36,0
99,106.51,112.23,0
98,106.34,112.09,0
99,106.19,111.96,0
98,106.03,111.82,0
98,105.87,111.68,0
100,105.75,111.56,0
99,105.62,111.44,0
99,105.48,111.31,0
97,105.31,111.17,0
98,105.17,111.04,0
98,105.02,110.91,0
98,104.88,110.78,0
99,104.77,110.66,0
98,104.63,110.53,0
98,104.50,110.41,0
98,104.37,110.28,0
97,104.22,110.15,0
98,104.10,110.03,0
97,103.95,109.90,0
98,103.84,109.78,0
96,103.68,109.64,0
96,103.52,109.51,0
98,103.41,109.39,0
96,103.27,109.26,0
96,103.12,109.13,0
96,102.98,108.99,0
97,102.86,108.87,0
96,102.72,108.75,0
96,102.59,108.62,0
96,102.46,108.49,0
96,102.33,108.37,0
94,102.16,108.22,0
96,102.04,108.10,0
94,101.88,107.96,0
95,101.74,107.83,0
94,101.58,107.69,0
94,101.43,107.56,0
96,101.32,107.44,0
95,101.20,107.32,0
94,101.05,107.18,0
94,100.91,107.05,0
94,100.77,106.92,0
94,100.64,106.79,0
94,100.51,106.66,0
94,100.38,106.54,0
94,100.25,106.41,0
98,100.20,106.33,0
94,100.08,106.20,0
93,99.94,106.07,0
94,99.82,105.95,0
93,99.68,105.82,0
94,99.57,105.70,0
91,99.40,105.56,0
93,99.27,105.43,0
95,99.18,105.33,0
93,99.06,105.20,0
92,98.92,105.07,0
93,98.80,104.95,0
92,98.66,104.82,0
93,98.55,104.70,0
93,98.44,104.59,0
91,98.29,104.45,0
92,98.17,104.32,0
93,98.06,104.21,0
92,97.94,104.09,0
92,97.82,103.97,0
92,97.71,103.85,0
91,97.57,103.72,0
92,97.46,103.60,0
91,97.33,103.48,0
91,97.20,103.35,0
92,97.10,103.24,0
90,96.96,103.11,0
91,96.84,102.99,0
92,96.74,102.88,0
91,96.63,102.76,0
90,96.49,102.63,0
91,96.39,102.51,0
91,96.28,102.40,0
90,96.15,102.27,0
91,96.05,102.16,0
90,95.93,102.04,0
91,95.83,101.93,0
90,95.71,101.81,0
89,95.58,101.68,0
89,95.45,101.56,0
89,95.32,101.43,0
89,95.19,101.31,0
89,95.07,101.18,0
90,94.97,101.07,0
88,94.83,100.94,0
89,94.71,100.82,0
89,94.60,100.70,0
88,94.46,100.57,0
88,94.34,100.45,0
88,94.21,100.32,0
90,94.12,100.22,0
88,94.00,100.10,0
88,93.88,99.98,0
88,93.76,99.86,0
89,93.67,99.75,0
89,93.58,99.64,0
90,93.50,99.55,0
87,93.37,99.42,0
88,93.27,99.31,0
88,93.16,99.19,0
88,93.06,99.08,0
90,93.00,98.99,0
86,92.86,98.86,0
87,92.74,98.74,0
87,92.62,98.62,0
86,92.49,98.50,0
86,92.36,98.37,0
86,92.24,98.25,0
87,92.13,98.14,0
87,92.03,98.03,0
86,91.91,97.91,0
86,91.79,97.79,0
86,91.67,97.67,0
86,91.56,97.55,0
86,91.45,97.44,0
86,91.34,97.32,0
85,91.21,97.20,0
86,91.11,97.09,0
86,91.01,96.98,0
86,90.91,96.87,0
85,90.79,96.75,0
85,90.67,96.63,0
86,90.58,96.52,0
85,90.47,96.41,0
86,90.38,96.30,0
86,90.29,96.20,0
86,90.20,96.10,0
84,90.08,95.98,0
88,90.04,95.90,0
86,89.96,95.80,0
85,89.86,95.69,0
84,89.74,95.57,0
84,89.63,95.46,0
84,89.51,95.34,0
85,89.42,95.24,0
84,89.32,95.13,0
84,89.21,95.02,0
84,89.11,94.91,0
84,89.00,94.80,0
84,88.90,94.69,0
83,88.79,94.57,0
85,88.71,94.48,0
84,88.62,94.37,0
83,88.50,94.26,0
80,88.33,94.12,0
83,88.23,94.01,0
84,88.14,93.91,0
83,88.04,93.80,0
83,87.94,93.69,0
84,87.86,93.59,0
82,87.74,93.48,0
82,87.63,93.36,0
83,87.53,93.26,0
82,87.42,93.14,0
82,87.32,93.03,0
82,87.21,92.92,0
82,87.11,92.81,0
81,86.98,92.70,0
81,86.86,92.58,0
82,86.77,92.47,0
82,86.67,92.37,0
81,86.56,92.25,0
81,86.45,92.14,0
81,86.34,92.03,0
81,86.23,91.92,0
81,86.13,91.81,0
82,86.04,91.71,0
82,85.96,91.62,0
80,85.84,91.50,0
81,85.75,91.39,0
80,85.63,91.28,0
80,85.52,91.17,0
80,85.41,91.06,0
80,85.30,90.95,0
79,85.17,90.83,0
80,85.07,90.72,0
79,84.95,90.60,0
80,84.85,90.49,0
79,84.73,90.38,0
79,84.62,90.27,0
79,84.51,90.15,0
79,84.40,90.04,0
80,84.31,89.94,0
78,84.18,89.82,0
80,84.10,89.72,0
79,84.00,89.62,0
81,83.94,89.53,0
78,83.82,89.41,0
79,83.72,89.31,0
79,83.63,89.21,0
79,83.53,89.11,0
78,83.42,88.99,0
79,83.34,88.89,0
78,83.23,88.79,0
78,83.12,88.68,0
78,83.02,88.57,0
77,82.90,88.46,0
78,82.80,88.35,0
78,82.71,88.25,0
78,82.61,88.14,0
78,82.52,88.04,0
77,82.41,87.93,0
78,82.32,87.83,0
78,82.24,87.74,0
77,82.13,87.63,0
77,82.03,87.52,0
76,81.91,87.41,0
78,81.83,87.31,0
77,81.73,87.21,0
76,81.62,87.10,0
76,81.51,86.99,0
76,81.40,86.88,0
77,81.31,86.78,0
76,81.20,86.67,0
75,81.08,86.55,0
76,80.98,86.45,0
77,80.90,86.35,0
76,80.80,86.25,0
78,80.74,86.17,0
76,80.65,86.07,0
75,80.53,85.95,0
76,80.44,85.86,0
76,80.36,85.76,0
76,80.27,85.66,0
75,80.16,85.55,0
74,80.04,85.44,0
75,79.94,85.33,0
75,79.84,85.23,0
75,79.74,85.13,0
74,79.63,85.02,0
74,79.52,84.91,0
76,79.45,84.82,0
75,79.36,84.72,0
74,79.25,84.61,0
74,79.14,84.50,0
74,79.04,84.40,0
74,78.94,84.30,0
74,78.84,84.19,0
74,78.75,84.09,0
73,78.63,83.98,0
74,78.54,83.88,0
73,78.43,83.77,0
74,78.34,83.67,0
76,78.29,83.60,0
74,78.21,83.50,0
73,78.10,83.40,0
73,78.00,83.29,0
73,77.90,83.19,0
74,77.82,83.10,0
74,77.75,83.01,0
72,77.63,82.90,0
71,77.50,82.78,0
71,77.37,82.66,0
72,77.26,82.55,0
72,77.16,82.45,0
72,77.05,82.34,0
73,76.97,82.25,0
72,76.87,82.15,0
72,76.77,82.05,0
71,76.66,81.94,0
73,76.59,81.85,0
72,76.49,81.75,0
72,76.40,81.65,0
70,76.28,81.53,0
71,76.17,81.43,0
73,76.11,81.34,0
71,76.00,81.24,0
70,75.88,81.13,0
69,75.75,81.01,0
72,75.67,80.92,0
70,75.56,80.81,0
71,75.47,80.71,0
70,75.36,80.60,0
71,75.27,80.51,0
71,75.19,80.41,0
70,75.08,80.31,0
71,75.00,80.21,0
70,74.90,80.11,0
70,74.80,80.01,0
70,74.71,79.91,0
70,74.61,79.81,0
71,74.54,79.72,0
70,74.45,79.63,0
70,74.36,79.53,0
70,74.27,79.43,0
70,74.19,79.34,0
70,74.10,79.25,0
70,74.02,79.15,0
70,73.94,79.06,0
70,73.86,78.97,0
70,73.79,78.88,0
70,73.71,78.79,0
69,73.62,78.70,0
70,73.54,78.61,0
69,73.45,78.51,0
68,73.34,78.41,0
69,73.26,78.31,0
69,73.17,78.22,0
68,73.07,78.12,0
68,72.97,78.02,0
68,72.87,77.92,0
68,72.77,77.82,0
68,72.67,77.72,0
68,72.58,77.62,0
68,72.49,77.53,0
68,72.40,77.43,0
68,72.31,77.34,0
70,72.27,77.26,0
68,72.18,77.17,0
67,72.08,77.07,0
66,71.95,76.96,0
68,71.88,76.87,0
67,71.78,76.77,0
68,71.70,76.68,0
66,71.59,76.58,0
66,71.48,76.47,0
67,71.39,76.37,0
66,71.28,76.27,0
68,71.21,76.19,0
66,71.11,76.09,0
67,71.03,76.00,0
68,70.97,75.92,0
66,70.87,75.82,0
66,70.77,75.72,0
66,70.67,75.62,0
66,70.58,75.52,0
66,70.49,75.43,0
66,70.40,75.34,0
66,70.31,75.24,0
69,70.29,75.18,0
65,70.18,75.08,0
65,70.08,74.98,0
65,69.97,74.88,0
68,69.94,74.81,0
66,69.86,74.72,0
65,69.76,74.62,0
65,69.66,74.53,0
65,69.57,74.43,0
65,69.48,74.34,0
65,69.39,74.24,0
65,69.30,74.15,0
66,69.24,74.07,0
66,69.17,73.99,0
64,69.07,73.89,0
65,68.99,73.80,0
65,68.91,73.71,0
64,68.81,73.62,0
64,68.71,73.52,0
65,68.64,73.43,0
65,68.57,73.35,0
64,68.47,73.26,0
64,68.38,73.16,0
64,68.30,73.07,0
63,68.19,72.97,0
63,68.09,72.87,0
64,68.01,72.78,0
64,67.93,72.70,0
67,67.91,72.64,0
66,67.87,72.57,0
64,67.79,72.49,0
65,67.74,72.41,0
63,67.64,72.32,0
64,67.57,72.23,0
63,67.48,72.14,0
61,67.35,72.03,0
64,67.28,71.95,0
62,67.17,71.85,0
64,67.11,71.77,0
64,67.05,71.69,0
63,66.97,71.61,0
62,66.87,71.51,0
62,66.77,71.42,0
61,66.66,71.31,0
62,66.56,71.22,0
59,66.41,71.10,0
62,66.32,71.01,0
61,66.22,70.91,0
62,66.13,70.82,0
62,66.05,70.73,0
62,65.97,70.64,0
62,65.89,70.55,0
62,65.81,70.47,0
62,65.74,70.38,0
62,65.66,70.30,0
62,65.59,70.22,0
62,65.52,70.14,0
62,65.45,70.05,0
60,65.34,69.95,0
60,65.23,69.85,0
61,65.15,69.77,0
60,65.04,69.67,0
62,64.98,69.59,0
62,64.92,69.52,0
60,64.82,69.42,0
60,64.73,69.33,0
60,64.63,69.23,0
61,64.56,69.15,0
60,64.47,69.06,0
60,64.38,68.97,0
60,64.29,68.88,0
62,64.25,68.81,0
61,64.18,68.73,0
60,64.10,68.64,0
60,64.02,68.56,0
62,63.97,68.49,0
61,63.92,68.42,0
60,63.84,68.33,0
60,63.76,68.25,0
60,63.69,68.17,0
60,63.61,68.09,0
60,63.54,68.00,0
60,63.47,67.92,0
58,63.36,67.83,0
59,63.27,67.74,0
60,63.21,67.66,0
60,63.14,67.58,0
59,63.06,67.50,0
57,62.94,67.39,0
58,62.84,67.30,0
60,62.78,67.23,0
60,62.73,67.15,0
58,62.63,67.06,0
59,62.56,66.98,0
60,62.51,66.91,0
59,62.44,66.83,0
59,62.37,66.75,0
58,62.28,66.67,0
60,62.24,66.60,0
59,62.17,66.52,0
58,62.09,66.44,0
60,62.05,66.37,0
58,61.97,66.29,0
59,61.91,66.22,0
60,61.87,66.16,0
60,61.83,66.09,0
58,61.75,66.01,0
58,61.68,65.93,0
58,61.61,65.85,0
57,61.51,65.76,0
57,61.42,65.68,0
58,61.35,65.60,0
59,61.31,65.53,0
58,61.24,65.46,0
57,61.16,65.37,0
57,61.07,65.29,0
59,61.03,65.23,0
56,60.93,65.14,0
57,60.85,65.05,0
57,60.78,64.97,0
57,60.70,64.89,0
58,60.65,64.82,0
57,60.57,64.75,0
58,60.52,64.68,0
57,60.45,64.60,0
57,60.38,64.53,0
56,60.29,64.44,0
57,60.23,64.37,0
56,60.14,64.28,0
57,60.08,64.21,0
56,60.00,64.13,0
58,59.96,64.07,0
56,59.88,63.99,0
56,59.80,63.91,0
56,59.73,63.83,0
56,59.65,63.75,0
58,59.62,63.69,0
56,59.55,63.61,0
56,59.48,63.54,0
56,59.41,63.46,0
57,59.36,63.40,0
56,59.29,63.32,0
56,59.23,63.25,0
57,59.18,63.19,0
57,59.14,63.13,0
56,59.07,63.06,0
54,58.97,62.97,0
56,58.91,62.90,0
55,58.84,62.82,0
55,58.76,62.74,0
54,58.66,62.65,0
54,58.57,62.56,0
55,58.50,62.49,0
54,58.41,62.40,0
54,58.32,62.32,0
54,58.23,62.24,0
54,58.15,62.15,0
54,58.07,62.07,0
54,57.99,61.99,0
56,57.95,61.93,0
53,57.85,61.84,0
55,57.79,61.77,0
54,57.71,61.70,0
55,57.66,61.63,0
56,57.63,61.57,0
58,57.63,61.54,0
55,57.58,61.47,0
55,57.53,61.41,0
51,57.40,61.30,0
54,57.33,61.23,0
56,57.30,61.18,0
55,57.26,61.12,0
54,57.19,61.05,0
54,57.13,60.97,0
54,57.07,60.90,0
54,57.01,60.84,0
56,56.99,60.79,0
54,56.93,60.72,0
54,56.87,60.65,0
54,56.81,60.59,0
54,56.75,60.52,0
54,56.70,60.45,0
54,56.64,60.39,0
54,56.59,60.33,0
54,56.54,60.26,0
54,56.49,60.20,0
54,56.44,60.14,0
54,56.39,60.08,0
54,56.34,60.02,0
55,56.32,59.97,0
54,56.27,59.91,0
53,56.20,59.84,0
54,56.16,59.78,0
52,56.08,59.70,0
54,56.04,59.64,0
56,56.03,59.61,0
54,55.99,59.55,0
55,55.97,59.51,0
54,55.93,59.45,0
55,55.92,59.41,0
56,55.92,59.37,0
55,55.90,59.33,0
53,55.84,59.27,0
54,55.80,59.21,0
54,55.77,59.16,0
55,55.75,59.12,0
54,55.72,59.07,0
53,55.66,59.01,0
54,55.63,58.96,0
54,55.60,58.91,0
53,55.55,58.85,0
55,55.53,58.81,0
55,55.52,58.77,0
56,55.53,58.74,0
56,55.54,58.72,0
54,55.51,58.67,0
54,55.48,58.62,0
54,55.45,58.58,0
55,55.44,58.54,0
56,55.45,58.52,0
57,55.49,58.50,0
55,55.48,58.47,0
54,55.45,58.42,0
55,55.44,58.39,0
57,55.47,58.37,0
54,55.44,58.33,0
54,55.41,58.29,0
54,55.38,58.24,0
53,55.33,58.19,0
54,55.31,58.15,0
54,55.28,58.11,0
54,55.26,58.07,0
55,55.25,58.04,0
54,55.23,57.99,0
54,55.20,57.96,0
54,55.18,57.92,0
53,55.13,57.87,0
54,55.11,57.83,0
54,55.09,57.79,0
55,55.09,57.76,0
53,55.05,57.71,0
54,55.02,57.68,0
54,55.00,57.64,0
55,55.00,57.61,0
56,55.02,57.60,0
56,55.04,57.58,0
54,55.02,57.55,0
57,55.06,57.54,0
58,55.12,57.54,0
58,55.18,57.55,0
56,55.19,57.53,0
55,55.19,57.51,0
56,55.21,57.49,0
56,55.22,57.48,0
55,55.22,57.45,0
54,55.19,57.42,0
55,55.19,57.40,0
54,55.17,57.36,0
54,55.14,57.33,0
57,55.18,57.32,0
56,55.20,57.31,0
54,55.17,57.28,0
54,55.15,57.25,0
56,55.17,57.23,0
55,55.16,57.21,0
54,55.14,57.18,0
54,55.12,57.15,0
54,55.09,57.11,0
55,55.09,57.09,0
56,55.11,57.08,0
58,55.17,57.09,0
58,55.23,57.10,0
56,55.24,57.09,0
56,55.26,57.08,0
56,55.27,57.07,0
53,55.23,57.03,0
56,55.24,57.02,0
56,55.26,57.01,0
55,55.25,56.99,0
55,55.25,56.97,0
55,55.24,56.95,0
55,55.24,56.93,0
55,55.23,56.91,0
56,55.25,56.90,0
55,55.24,56.88,0
54,55.22,56.85,0
56,55.23,56.84,0
58,55.29,56.86,0
58,55.34,56.87,0
56,55.36,56.86,0
56,55.37,56.85,0
59,55.44,56.87,0
58,55.49,56.88,0
58,55.54,56.89,0
56,55.55,56.88,0
57,55.58,56.89,0
58,55.63,56.90,0
56,55.64,56.89,0
56,55.64,56.88,0
57,55.67,56.88,0
56,55.68,56.87,0
57,55.70,56.87,0
56,55.71,56.86,0
56,55.72,56.86,0
58,55.76,56.87,0
56,55.77,56.86,0
56,55.77,56.85,0
55,55.76,56.83,0
55,55.74,56.81,0
56,55.75,56.80,0
55,55.73,56.79,0
56,55.74,56.78,0
55,55.72,56.76,0
55,55.71,56.74,0
57,55.73,56.75,0
56,55.74,56.74,0
55,55.72,56.72,0
58,55.77,56.73,0
56,55.77,56.73,0
57,55.80,56.73,0
56,55.80,56.72,0
56,55.81,56.71,0
56,55.81,56.71,0
55,55.79,56.69,0
57,55.82,56.69,0
56,55.82,56.69,0
56,55.82,56.68,0
58,55.87,56.69,0
57,55.89,56.70,0
57,55.91,56.70,0
58,55.95,56.71,0
56,55.96,56.70,0
58,56.00,56.72,0
56,56.00,56.71,0
56,56.00,56.70,0
56,56.00,56.70,0
56,56.00,56.69,0
58,56.04,56.70,0
56,56.04,56.70,0
57,56.06,56.70,0
55,56.03,56.68,0
56,56.03,56.67,0
58,56.07,56.69,0
57,56.09,56.69,0
56,56.09,56.68,0
58,56.13,56.70,0
58,56.17,56.71,0
57,56.18,56.71,0
58,56.22,56.73,0
56,56.21,56.72,0
56,56.21,56.71,0
56,56.21,56.70,0
56,56.20,56.70,0
56,56.20,56.69,0
56,56.19,56.68,0
56,56.19,56.68,0
56,56.19,56.67,0
57,56.20,56.67,0
58,56.24,56.69,0
59,56.29,56.71,0
59,56.35,56.73,0
57,56.36,56.74,0
56,56.35,56.73,0
59,56.41,56.75,0
59,56.46,56.77,0
58,56.49,56.79,0
56,56.48,56.78,0
57,56.49,56.78,0
57,56.50,56.78,0
57,56.51,56.78,0
58,56.54,56.80,0
59,56.59,56.82,0
58,56.62,56.83,0
58,56.64,56.84,0
60,56.71,56.87,0
59,56.76,56.89,0
58,56.78,56.91,0
58,56.81,56.92,0
58,56.83,56.93,0
59,56.87,56.95,0
58,56.90,56.96,0
58,56.92,56.97,0
58,56.94,56.98,0
57,56.94,56.98,0
57,56.94,56.98,0
56,56.92,56.97,0
58,56.95,56.98,0
57,56.95,56.98,0
58,56.97,56.99,0
56,56.95,56.98,0
56,56.93,56.97,0
59,56.97,56.99,0
58,56.99,57.00,0
60,57.05,57.03,0
56,57.03,57.02,0
57,57.03,57.02,0
58,57.05,57.03,0
58,57.07,57.04,0
56,57.05,57.03,0
58,57.07,57.04,0
58,57.08,57.05,0
57,57.08,57.05,0
57,57.08,57.05,0
57,57.08,57.05,0
59,57.12,57.07,0
57,57.12,57.07,0
59,57.15,57.09,0
59,57.19,57.11,0
58,57.21,57.11,0
58,57.22,57.12,0
59,57.26,57.14,0
59,57.29,57.16,0
60,57.35,57.19,0
60,57.40,57.22,0
60,57.45,57.24,0
62,57.54,57.29,0
59,57.57,57.31,0
58,57.58,57.32,0
58,57.59,57.32,0
59,57.62,57.34,0
59,57.64,57.36,0
60,57.69,57.38,0
59,57.72,57.40,0
59,57.74,57.42,0
57,57.73,57.41,0
60,57.77,57.44,0
58,57.78,57.44,0
58,57.78,57.45,0
60,57.83,57.47,0
58,57.83,57.48,0
58,57.83,57.48,0
60,57.88,57.51,0
59,57.90,57.52,0
58,57.90,57.53,0
58,57.90,57.53,0
61,57.97,57.57,0
57,57.95,57.56,0
58,57.95,57.57,0
59,57.97,57.58,0
62,58.05,57.63,0
63,58.15,57.68,0
60,58.19,57.70,0
58,58.18,57.71,0
63,58.28,57.76,0
62,58.35,57.80,0
60,58.39,57.82,0
61,58.44,57.85,0
61,58.49,57.89,0
60,58.52,57.91,0
62,58.59,57.95,0
62,58.66,57.99,0
60,58.68,58.01,0
63,58.77,58.06,0
59,58.77,58.07,0
60,58.80,58.09,0
61,58.84,58.12,0
61,58.89,58.15,0
61,58.93,58.17,0
60,58.95,58.19,0
62,59.01,58.23,0
62,59.07,58.27,0
62,59.13,58.31,0
62,59.19,58.34,0
60,59.20,58.36,0
61,59.24,58.39,0
60,59.25,58.40,0
60,59.27,58.42,0
61,59.30,58.44,0
62,59.36,58.48,0
62,59.41,58.51,0
62,59.46,58.55,0
61,59.49,58.57,0
64,59.58,58.63,0
66,59.71,58.70,0
66,59.84,58.77,0
64,59.92,58.83,0
63,59.98,58.87,0
64,60.06,58.92,0
64,60.14,58.97,0
62,60.18,59.00,0
63,60.24,59.04,0
62,60.27,59.07,0
64,60.34,59.12,0
64,60.42,59.17,0
62,60.45,59.20,0
62,60.48,59.22,0
62,60.51,59.25,0
62,60.54,59.28,0
64,60.61,59.33,0
68,60.76,59.41,0
64,60.82,59.46,0
63,60.87,59.50,0
62,60.89,59.52,0
64,60.95,59.56,0
62,60.97,59.59,0
64,61.03,59.63,0
66,61.13,59.70,0
63,61.17,59.73,0
64,61.23,59.77,0
63,61.26,59.81,0
63,61.30,59.84,0
65,61.37,59.89,0
64,61.42,59.93,0
64,61.47,59.97,0
63,61.50,60.00,0
64,61.55,60.04,0
64,61.60,60.08,0
65,61.67,60.13,0
64,61.72,60.17,0
63,61.74,60.20,0
63,61.77,60.22,0
62,61.77,60.24,0
62,61.78,60.26,0
64,61.82,60.30,0
63,61.85,60.32,0
63,61.87,60.35,0
64,61.91,60.39,0
64,61.95,60.42,0
64,61.99,60.46,0
65,62.05,60.50,0
65,62.11,60.55,0
66,62.19,60.60,0
64,62.23,60.64,0
65,62.28,60.68,0
65,62.34,60.73,0
64,62.37,60.76,0
65,62.42,60.80,0
66,62.49,60.85,0
68,62.60,60.92,0
65,62.65,60.96,0
66,62.72,61.01,0
70,62.87,61.10,0
67,62.95,61.16,0
68,63.05,61.23,0
66,63.11,61.28,0
66,63.17,61.33,0
65,63.20,61.36,0
67,63.28,61.42,0
64,63.29,61.45,0
68,63.39,61.51,0
66,63.44,61.56,0
66,63.49,61.60,0
66,63.54,61.64,0
69,63.65,61.72,0
66,63.70,61.76,0
66,63.74,61.80,0
65,63.77,61.84,0
64,63.77,61.86,0
66,63.82,61.90,0
67,63.88,61.95,0
66,63.92,61.99,0
68,64.00,62.05,0
71,64.14,62.14,0
70,64.26,62.22,0
68,64.34,62.28,0
68,64.41,62.33,0
68,64.48,62.39,0
66,64.51,62.43,0
68,64.58,62.48,0
68,64.65,62.54,0
68,64.72,62.59,0
67,64.76,62.64,0
66,64.79,62.67,0
68,64.85,62.72,0
66,64.87,62.76,0
67,64.92,62.80,0
68,64.98,62.85,0
69,65.06,62.91,0
67,65.10,62.95,0
68,65.16,63.00,0
68,65.21,63.05,0
69,65.29,63.11,0
68,65.34,63.16,0
68,65.40,63.21,0
66,65.41,63.24,0
71,65.52,63.32,0
72,65.65,63.40,0
70,65.74,63.47,0
68,65.78,63.51,0
68,65.83,63.56,0
70,65.91,63.62,0
72,66.03,63.71,0
74,66.19,63.81,0
69,66.25,63.86,0
72,66.36,63.94,0
72,66.47,64.02,0
71,66.57,64.09,0
73,66.69,64.18,0
74,66.84,64.28,0
70,66.90,64.34,0
70,66.97,64.39,0
71,67.05,64.46,0
70,67.11,64.52,0
72,67.20,64.59,0
70,67.26,64.64,0
71,67.33,64.71,0
70,67.39,64.76,0
74,67.52,64.85,0
74,67.65,64.94,0
73,67.76,65.03,0
74,67.88,65.11,0
76,68.04,65.22,0
78,68.24,65.35,0
72,68.32,65.42,0
74,68.43,65.50,0
73,68.52,65.58,0
76,68.67,65.68,0
75,68.80,65.78,0
74,68.90,65.86,0
73,68.98,65.93,0
73,69.07,66.00,0
74,69.16,66.08,0
76,69.30,66.18,0
76,69.43,66.28,0
73,69.51,66.35,0
77,69.66,66.45,0
75,69.76,66.54,0
74,69.85,66.61,0
76,69.97,66.71,0
78,70.13,66.82,0
75,70.23,66.90,0
78,70.38,67.01,0
78,70.54,67.12,0
86,70.85,67.31,0
77,70.97,67.41,0
80,71.15,67.53,0
80,71.33,67.66,0
79,71.48,67.77,0
76,71.57,67.85,0
78,71.70,67.95,0
78,71.82,68.06,0
82,72.03,68.19,0
81,72.21,68.32,0
79,72.34,68.43,0
79,72.48,68.54,0
78,72.59,68.63,0
80,72.74,68.74,0
78,72.84,68.84,0
78,72.94,68.93,0
81,73.10,69.05,0
78,73.20,69.14,0
78,73.30,69.23,0
84,73.51,69.37,0
85,73.74,69.53,0
81,73.89,69.65,0
82,74.05,69.77,0
83,74.23,69.90,0
87,74.48,70.07,0
87,74.73,70.24,0
86,74.96,70.40,0
80,75.06,70.50,0
87,75.30,70.66,0
89,75.57,70.84,0
84,75.74,70.98,0
82,75.87,71.09,0
86,76.07,71.23,0
86,76.27,71.38,0
82,76.38,71.49,0
84,76.54,71.61,0
84,76.68,71.74,0
84,76.83,71.86,0
83,76.95,71.97,0
86,77.14,72.11,0
86,77.31,72.25,0
88,77.53,72.41,0
86,77.70,72.54,0
84,77.82,72.66,0
90,78.07,72.83,0
87,78.24,72.97,0
86,78.40,73.10,0
86,78.55,73.23,0
87,78.72,73.37,0
88,78.91,73.52,0
90,79.13,73.68,0
88,79.31,73.82,0
89,79.50,73.98,0
88,79.67,74.12,0
86,79.80,74.24,0
86,79.92,74.35,0
90,80.12,74.51,0
89,80.30,74.65,0
86,80.41,74.77,0
88,80.56,74.90,0
91,80.77,75.06,0
89,80.94,75.20,0
88,81.08,75.33,0
94,81.34,75.52,0
95,81.61,75.71,0
91,81.80,75.86,0
92,82.00,76.02,0
90,82.16,76.16,0
93,82.38,76.33,0
94,82.61,76.51,0
96,82.88,76.70,0
94,83.10,76.88,0
91,83.26,77.02,0
94,83.47,77.19,0
98,83.77,77.40,0
96,84.01,77.58,0
95,84.23,77.76,0
94,84.43,77.92,0
106,84.86,78.20,0
97,85.10,78.39,0
100,85.40,78.60,0
98,85.65,78.80,0
97,85.88,78.98,0
100,86.16,79.19,0
95,86.34,79.35,0
95,86.51,79.50,0
100,86.78,79.71,0
98,87.00,79.89,0
102,87.30,80.11,0
108,87.72,80.39,0
106,88.08,80.65,0
100,88.32,80.84,0
105,88.65,81.08,0
111,89.10,81.38,0
109,89.50,81.66,0
102,89.75,81.86,0
104,90.03,82.08,0
108,90.39,82.34,0
106,90.71,82.58,0
107,91.03,82.82,0
106,91.33,83.06,0
103,91.56,83.26,0
107,91.87,83.49,0
106,92.16,83.72,0
105,92.41,83.93,0
105,92.66,84.14,0
112,93.05,84.42,0
120,93.59,84.78,0
121,94.14,85.14,0
111,94.48,85.40,0
121,95.01,85.75,0
121,95.53,86.10,0
116,95.94,86.40,0
117,96.36,86.71,0
119,96.81,87.03,0
117,97.21,87.33,0
116,97.59,87.62,0
128,98.20,88.02,0
129,98.81,88.43,0
122,99.28,88.77,0
120,99.69,89.08,0
121,100.12,89.40,0
120,100.52,89.71,0
136,101.23,90.17,0
134,101.88,90.61,0
129,102.42,90.99,0
124,102.85,91.32,0
122,103.24,91.63,0
126,103.69,91.97,0
131,104.24,92.36,0
138,104.91,92.82,0
140,105.62,93.29,0
130,106.10,93.66,0
139,106.76,94.11,0
142,107.47,94.59,0
144,108.20,95.08,0
136,108.75,95.49,0
132,109.22,95.86,0
136,109.75,96.26,0
135,110.26,96.65,0
132,110.69,97.00,0
140,111.28,97.43,0
137,111.79,97.83,0
142,112.40,98.27,0
141,112.97,98.69,0
140,113.51,99.11,0
134,113.92,99.46,0
140,114.44,99.86,0
140,114.95,100.26,0
136,115.37,100.62,0
136,115.79,100.97,0
137,116.21,101.34,0
136,116.61,101.68,0
141,117.09,102.08,0
147,117.69,102.52,0
141,118.16,102.91,0
155,118.90,103.43,0
156,119.64,103.96,0
150,120.25,104.42,0
150,120.84,104.87,0
154,121.50,105.36,0
155,122.17,105.86,0
146,122.65,106.26,0
155,123.30,106.75,0
155,123.93,107.23,0
156,124.57,107.72,0
150,125.08,108.14,0
158,125.74,108.64,0
162,126.46,109.17,0
161,127.16,109.69,0
159,127.79,110.18,0
165,128.54,110.73,0
163,129.23,111.26,0
158,129.80,111.72,0
161,130.42,112.22,0
161,131.04,112.70,0
159,131.60,113.17,0
157,132.10,113.61,0
169,132.84,114.16,0
168,133.54,114.70,0
164,134.15,115.19,0
159,134.65,115.63,0
159,135.14,116.06,0
159,135.62,116.49,0
161,136.12,116.94,0
165,136.70,117.42,0
163,137.23,117.87,0
161,137.70,118.30,0
159,138.13,118.71,0
159,138.55,119.11,0
164,139.05,119.56,0
161,139.49,119.98,0
160,139.90,120.38,0
161,140.33,120.78,0
163,140.78,121.21,0
164,141.24,121.63,0
159,141.60,122.01,0
161,141.99,122.40,0
161,142.37,122.78,0
165,142.82,123.21,0
161,143.18,123.58,0
170,143.72,124.05,0
165,144.14,124.46,0
161,144.48,124.82,0
161,144.81,125.18,0
163,145.18,125.56,0
163,145.53,125.94,0
161,145.84,126.29,0
161,146.15,126.63,0
160,146.42,126.97,0
161,146.71,127.31,0
160,146.98,127.64,0
160,147.24,127.96,0
159,147.48,128.27,0
161,147.75,128.60,0
159,147.97,128.90,0
164,148.29,129.25,0
161,148.55,129.57,0
162,148.81,129.89,0
160,149.04,130.20,0
160,149.26,130.49,0
159,149.45,130.78,0
160,149.66,131.07,0
160,149.87,131.36,0
159,150.05,131.64,0
161,150.27,131.93,0
161,150.49,132.22,0
160,150.68,132.50,0
160,150.86,132.77,0
160,151.05,133.05,0
159,151.20,133.31,0
163,151.44,133.60,0
161,151.63,133.88,0
161,151.82,134.15,0
159,151.96,134.40,0
159,152.10,134.64,0
159,152.24,134.89,0
159,152.38,135.13,0
159,152.51,135.37,0
159,152.64,135.60,0
157,152.73,135.82,0
157,152.81,136.03,0
158,152.92,136.25,0
157,153.00,136.45,0
159,153.12,136.68,0
157,153.19,136.88,0
158,153.29,137.09,0
158,153.39,137.30,0
159,153.50,137.52,0
156,153.55,137.71,0
156,153.60,137.89,0
156,153.64,138.07,0
157,153.71,138.26,0
156,153.76,138.44,0
155,153.78,138.60,0
155,153.81,138.77,0
156,153.85,138.94,0
156,153.89,139.11,0
155,153.92,139.27,0
156,153.96,139.44,0
154,153.96,139.58,0
154,153.96,139.72,0
153,153.94,139.86,0
155,153.96,140.01,0
153,153.94,140.14,0
153,153.92,140.27,0
152,153.88,140.38,0
153,153.87,140.51,0
153,153.85,140.64,0
152,153.81,140.75,0
152,153.78,140.86,0
152,153.74,140.97,0
152,153.71,141.08,0
151,153.65,141.18,0
151,153.60,141.28,0
153,153.59,141.40,0
151,153.54,141.49,0
152,153.50,141.60,0
155,153.53,141.73,0
151,153.48,141.83,0
152,153.45,141.93,0
149,153.36,142.00,0
150,153.30,142.08,0
149,153.21,142.15,0
149,153.13,142.22,0
150,153.06,142.29,0
149,152.98,142.36,0
148,152.88,142.42,0
148,152.79,142.47,0
149,152.71,142.54,0
147,152.60,142.58,0
148,152.50,142.64,0
147,152.39,142.68,0
147,152.29,142.72,0
147,152.18,142.77,0
147,152.08,142.81,0
146,151.96,142.84,0
149,151.90,142.90,0
145,151.76,142.92,0
147,151.66,142.96,0
145,151.53,142.98,0
145,151.40,143.01,0
145,151.27,143.02,0
145,151.15,143.04,0
145,151.02,143.06,0
144,150.88,143.07,0
143,150.73,143.07,0
143,150.57,143.07,0
143,150.42,143.07,0
143,150.27,143.07,0
143,150.13,143.07,0
143,149.98,143.07,0
143,149.84,143.07,0
143,149.71,143.07,0
143,149.57,143.07,0
143,149.44,143.07,0
141,149.27,143.05,0
142,149.13,143.04,0
142,148.98,143.03,0
141,148.82,143.00,0
141,148.67,142.98,0
141,148.51,142.96,0
141,148.36,142.95,0
141,148.22,142.93,0
139,148.03,142.89,0
141,147.89,142.87,0
139,147.71,142.83,0
140,147.56,142.80,0
139,147.39,142.76,0
141,147.26,142.75,0
139,147.10,142.71,0
138,146.91,142.66,0
137,146.72,142.60,0
138,146.54,142.56,0
138,146.37,142.51,0
138,146.20,142.47,0
137,146.02,142.41,0
137,145.84,142.36,0
137,145.66,142.30,0
136,145.47,142.24,0
137,145.30,142.19,0
137,145.13,142.14,0
137,144.97,142.09,0
135,144.77,142.02,0
137,144.62,141.97,0
135,144.42,141.90,0
136,144.25,141.84,0
136,144.09,141.78,0
135,143.91,141.71,0
135,143.73,141.64,0
135,143.56,141.58,0
133,143.34,141.49,0
134,143.16,141.42,0
133,142.95,141.33,0
133,142.76,141.25,0
133,142.56,141.17,0
133,142.37,141.08,0
133,142.18,141.00,0
133,142.00,140.92,0
131,141.78,140.82,0
131,141.56,140.73,0
133,141.39,140.65,0
131,141.18,140.55,0
132,141.00,140.47,0
132,140.82,140.38,0
134,140.68,140.32,0
131,140.49,140.23,0
131,140.30,140.13,0
129,140.07,140.02,1
129,139.85,139.91,1
129,139.64,139.80,1
129,139.42,139.69,1
130,139.23,139.60,1
129,139.03,139.49,1
129,138.83,139.39,1
129,138.63,139.28,1
129,138.44,139.18,1
128,138.23,139.07,1
130,138.07,138.98,1
127,137.84,138.86,1
128,137.65,138.75,1
128,137.45,138.64,1
127,137.25,138.53,1
127,137.04,138.41,1
127,136.84,138.30,1
127,136.64,138.18,1
126,136.43,138.06,1
126,136.22,137.94,1
125,136.00,137.81,1
126,135.80,137.69,1
125,135.58,137.57,1
125,135.37,137.44,1
125,135.16,137.32,1
125,134.96,137.19,1
124,134.74,137.06,1
125,134.55,136.94,1
124,134.33,136.81,1
124,134.13,136.68,1
123,133.91,136.55,1
125,133.73,136.43,1
123,133.51,136.30,1
124,133.32,136.17,1
123,133.12,136.04,1
123,132.91,135.91,1
123,132.72,135.78,1
122,132.50,135.64,1
123,132.31,135.52,1
122,132.10,135.38,1
121,131.88,135.24,1
121,131.67,135.10,1
121,131.45,134.96,1
122,131.26,134.83,1
121,131.06,134.69,1
121,130.86,134.55,1
121,130.66,134.42,1
120,130.45,134.27,1
121,130.26,134.14,1
120,130.05,134.00,1
120,129.85,133.86,1
120,129.65,133.72,1
115,129.36,133.53,1
119,129.15,133.39,1
119,128.95,133.24,1
119,128.75,133.10,1
119,128.56,132.96,1
119,128.37,132.82,1
119,128.18,132.68,1
118,127.97,132.53,1
117,127.76,132.38,1
118,127.56,132.23,1
117,127.35,132.08,1
119,127.18,131.95,1
117,126.98,131.80,1
116,126.76,131.64,1
117,126.56,131.50,1
117,126.37,131.35,1
117,126.18,131.21,1
115,125.96,131.05,1
117,125.78,130.91,1
117,125.61,130.77,1
116,125.41,130.62,1
116,125.23,130.47,1
116,125.04,130.33,1
116,124.86,130.19,1
116,124.68,130.04,1
114,124.47,129.88,1
115,124.28,129.73,1
115,124.09,129.59,1
115,123.91,129.44,1
113,123.69,129.28,1
113,123.48,129.11,1
113,123.27,128.95,1
114,123.09,128.80,1
114,122.90,128.66,1
113,122.71,128.50,1
113,122.51,128.34,1
113,122.32,128.19,1
113,122.13,128.04,1
113,121.95,127.89,1
111,121.73,127.72,1
112,121.54,127.56,1
111,121.33,127.40,1
112,121.14,127.24,1
113,120.98,127.10,1
111,120.78,126.94,1
111,120.58,126.78,1
111,120.39,126.62,1
111,120.20,126.47,1
111,120.02,126.31,1
111,119.84,126.16,1
110,119.64,126.00,1
110,119.45,125.84,1
111,119.28,125.69,1
109,119.08,125.52,1
110,118.89,125.37,1
107,118.66,125.18,1
111,118.50,125.04,1
109,118.31,124.88,1
109,118.13,124.72,1
109,117.94,124.56,1
109,117.76,124.41,1
109,117.59,124.25,1
108,117.40,124.09,1
108,117.21,123.93,1
108,117.03,123.77,1
110,116.89,123.63,1
108,116.71,123.48,1
107,116.51,123.31,1
107,116.32,123.15,1
108,116.16,123.00,1
107,115.97,122.84,1
108,115.81,122.69,1
105,115.60,122.51,1
107,115.43,122.36,1
106,115.24,122.19,1
105,115.03,122.02,1
106,114.85,121.86,1
107,114.69,121.71,1
106,114.52,121.56,1
105,114.33,121.39,1
106,114.16,121.24,1
106,114.00,121.08,1
105,113.82,120.92,1
105,113.64,120.76,1
105,113.47,120.61,1
104,113.28,120.44,1
105,113.12,120.29,1
105,112.95,120.13,1
104,112.77,119.97,1
103,112.58,119.80,1
103,112.39,119.63,1
103,112.20,119.47,1
105,112.06,119.32,1
103,111.87,119.16,1
107,111.78,119.04,1
101,111.56,118.86,1
103,111.39,118.70,1
103,111.22,118.54,1
103,111.06,118.39,1
102,110.88,118.22,1
102,110.70,118.06,1
101,110.51,117.89,1
101,110.32,117.72,1
101,110.13,117.55,1
102,109.97,117.40,1
101,109.79,117.23,1
101,109.61,117.07,1
101,109.44,116.91,1
101,109.27,116.75,1
101,109.11,116.59,1
97,108.86,116.40,1
99,108.67,116.23,1
101,108.51,116.07,1
100,108.34,115.91,1
101,108.20,115.76,1
101,108.05,115.62,1
99,107.87,115.45,1
99,107.69,115.28,1
100,107.54,115.13,1
100,107.39,114.98,1
99,107.22,114.82,1
99,107.06,114.66,1
99,106.90,114.51,1
98,106.72,114.34,1
98,106.54,114.18,1
98,106.37,114.02,1
98,106.20,113.86,1
98,106.04,113.70,1
100,105.92,113.56,1
98,105.76,113.40,1
99,105.63,113.26,1
98,105.47,113.11,1
97,105.30,112.95,1
96,105.12,112.78,1
97,104.96,112.62,1
98,104.82,112.47,1
98,104.68,112.33,1
97,104.53,112.18,1
95,104.34,112.00,1
96,104.17,111.84,1
96,104.01,111.69,1
100,103.93,111.57,1
96,103.77,111.41,1
96,103.61,111.26,1
96,103.46,111.11,1
95,103.29,110.94,1
95,103.12,110.79,1
95,102.96,110.63,1
96,102.82,110.48,1
95,102.67,110.33,1
95,102.51,110.17,1
95,102.36,110.02,1
94,102.20,109.86,1
94,102.03,109.70,1
94,101.87,109.55,1
94,101.71,109.39,1
94,101.56,109.24,1
96,101.45,109.10,1
94,101.30,108.95,1
96,101.19,108.82,1
95,101.07,108.69,1
93,100.91,108.53,1
94,100.77,108.38,1
95,100.65,108.25,1
94,100.52,108.11,1
98,100.47,108.01,1
93,100.32,107.86,1
93,100.18,107.71,1
93,100.03,107.56,1
92,99.87,107.40,1
94,99.75,107.27,1
93,99.62,107.13,1
92,99.47,106.98,1
93,99.34,106.84,1
92,99.19,106.69,1
93,99.07,106.55,1
93,98.94,106.42,1
93,98.83,106.28,1
93,98.71,106.15,1
93,98.60,106.02,1
96,98.54,105.92,1
93,98.43,105.79,1
93,98.32,105.66,1
93,98.22,105.53,1
93,98.11,105.41,1
92,97.99,105.27,1
91,97.85,105.13,1
93,97.75,105.01,1
92,97.64,104.88,1
92,97.53,104.75,1
91,97.40,104.61,1
92,97.29,104.49,1
91,97.16,104.35,1
91,97.04,104.22,1
91,96.92,104.09,1
91,96.80,103.96,1
91,96.68,103.83,1
91,96.57,103.70,1
91,96.46,103.57,1
92,96.37,103.46,1
91,96.26,103.33,1
92,96.18,103.22,1
90,96.05,103.09,1
89,95.91,102.94,1
89,95.77,102.81,1
89,95.64,102.67,1
89,95.51,102.53,1
90,95.40,102.41,1
91,95.31,102.29,1
91,95.22,102.18,1
89,95.10,102.05,1
89,94.98,101.92,1
89,94.86,101.79,1
89,94.74,101.66,1
89,94.62,101.53,1
89,94.51,101.41,1
89,94.40,101.28,1
89,94.29,101.16,1
88,94.17,101.03,1
88,94.04,100.90,1
88,93.92,100.77,1
88,93.80,100.64,1
89,93.71,100.53,1
88,93.59,100.40,1
88,93.48,100.28,1
87,93.35,100.14,1
87,93.23,100.01,1
89,93.14,99.90,1
88,93.04,99.78,1
87,92.92,99.65,1
86,92.78,99.52,1
86,92.64,99.38,1
87,92.53,99.26,1
86,92.40,99.13,1
86,92.27,99.00,1
88,92.19,98.89,1
87,92.08,98.77,1
86,91.96,98.64,1
88,91.88,98.53,1
87,91.78,98.42,1
88,91.71,98.31,1
86,91.59,98.19,1
86,91.48,98.07,1
86,91.37,97.95,1
86,91.27,97.83,1
88,91.20,97.73,1
88,91.14,97.63,1
87,91.05,97.53,1
86,90.95,97.41,1
86,90.85,97.30,1
85,90.74,97.17,1
86,90.64,97.06,1
85,90.53,96.94,1
86,90.44,96.83,1
85,90.33,96.71,1
85,90.22,96.60,1
84,90.10,96.47,1
87,90.04,96.38,1
84,89.92,96.25,1
84,89.80,96.13,1
84,89.68,96.01,1
84,89.57,95.89,1
84,89.46,95.77,1
84,89.35,95.65,1
85,89.26,95.54,1
84,89.16,95.43,1
82,89.01,95.30,1
84,88.91,95.18,1
83,88.79,95.06,1
83,88.68,94.94,1
84,88.58,94.83,1
84,88.49,94.72,1
85,88.42,94.62,1
85,88.35,94.53,1
82,88.23,94.40,1
82,88.10,94.28,1
82,87.98,94.16,1
82,87.86,94.03,1
84,87.78,93.93,1
79,87.61,93.79,1
84,87.54,93.69,1
83,87.45,93.58,1
82,87.34,93.46,1
82,87.23,93.35,1
81,87.10,93.23,1
82,87.00,93.11,1
81,86.88,92.99,1
79,86.73,92.85,1
81,86.61,92.73,1
81,86.50,92.62,1
80,86.37,92.49,1
80,86.24,92.37,1
82,86.16,92.26,1
80,86.03,92.14,1
82,85.95,92.04,1
82,85.87,91.94,1
81,85.78,91.83,1
81,85.68,91.72,1
80,85.57,91.60,1
80,85.46,91.49,1
81,85.37,91.38,1
81,85.28,91.28,1
80,85.17,91.17,1
78,85.03,91.03,1
80,84.93,90.92,1
80,84.83,90.81,1
80,84.73,90.71,1
78,84.60,90.58,1
81,84.53,90.48,1
80,84.44,90.38,1
79,84.33,90.26,1
78,84.20,90.14,1
81,84.14,90.05,1
80,84.05,89.95,1
80,83.97,89.85,1
78,83.85,89.73,1
79,83.76,89.63,1
79,83.66,89.52,1
78,83.55,89.40,1
79,83.46,89.30,1
79,83.37,89.20,1
79,83.28,89.09,1
78,83.18,88.98,1
79,83.09,88.88,1
79,83.01,88.79,1
80,82.95,88.70,1
78,82.85,88.59,1
78,82.75,88.48,1
79,82.68,88.39,1
78,82.59,88.29,1
78,82.49,88.18,1
78,82.40,88.08,1
79,82.34,87.99,1
80,82.29,87.91,1
78,82.20,87.81,1
78,82.12,87.71,1
78,82.04,87.62,1
78,81.96,87.52,1
76,81.84,87.40,1
78,81.76,87.31,1
77,81.67,87.21,1
78,81.59,87.12,1
77,81.50,87.01,1
76,81.39,86.90,1
77,81.30,86.80,1
78,81.24,86.72,1
76,81.13,86.61,1
78,81.07,86.52,1
77,80.99,86.43,1
76,80.89,86.32,1
76,80.79,86.22,1
77,80.71,86.13,1
76,80.62,86.03,1
78,80.57,85.95,1
76,80.48,85.85,1
76,80.39,85.75,1
75,80.28,85.64,1
76,80.19,85.55,1
76,80.11,85.45,1
76,80.03,85.36,1
76,79.95,85.26,1
78,79.91,85.19,1
74,79.79,85.08,1
75,79.69,84.98,1
74,79.58,84.87,1
75,79.49,84.77,1
76,79.42,84.68,1
74,79.31,84.57,1
76,79.24,84.49,1
76,79.18,84.40,1
74,79.08,84.30,1
74,78.97,84.20,1
74,78.87,84.09,1
74,78.78,83.99,1
74,78.68,83.89,1
74,78.59,83.79,1
74,78.50,83.70,1
75,78.43,83.61,1
74,78.34,83.51,1
74,78.25,83.42,1
76,78.21,83.34,1
73,78.10,83.24,1
74,78.02,83.15,1
74,77.94,83.06,1
75,77.88,82.98,1
73,77.78,82.88,1
75,77.73,82.80,1
74,77.65,82.71,1
75,77.60,82.63,1
73,77.51,82.54,1
72,77.40,82.43,1
73,77.31,82.34,1
73,77.22,82.24,1
73,77.14,82.15,1
76,77.12,82.09,1
72,77.01,81.99,1
73,76.93,81.90,1
72,76.83,81.80,1
72,76.74,81.70,1
72,76.64,81.60,1
72,76.55,81.51,1
72,76.46,81.41,1
71,76.35,81.31,1
72,76.26,81.22,1
71,76.16,81.11,1
71,76.05,81.01,1
70,75.93,80.90,1
70,75.82,80.79,1
70,75.70,80.69,1
71,75.60,80.59,1
67,75.43,80.45,1
70,75.32,80.35,1
71,75.24,80.25,1
70,75.13,80.15,1
70,75.03,80.05,1
70,74.93,79.95,1
69,74.81,79.84,1
70,74.71,79.74,1
70,74.62,79.64,1
70,74.53,79.55,1
70,74.44,79.45,1
70,74.35,79.36,1
70,74.26,79.26,1
70,74.18,79.17,1
69,74.07,79.07,1
69,73.97,78.97,1
70,73.89,78.88,1
69,73.79,78.78,1
69,73.70,78.68,1
70,73.62,78.60,1
70,73.55,78.51,1
70,73.48,78.43,1
70,73.41,78.34,1
68,73.30,78.24,1
70,73.24,78.16,1
71,73.19,78.08,1
69,73.11,77.99,1
68,73.01,77.89,1
68,72.91,77.79,1
70,72.85,77.72,1
69,72.77,77.63,1
68,72.68,77.53,1
68,72.58,77.44,1
68,72.49,77.34,1
67,72.38,77.24,1
70,72.33,77.17,1
70,72.29,77.10,1
68,72.20,77.00,1
68,72.12,76.91,1
66,71.99,76.81,1
68,71.91,76.72,1
68,71.84,76.63,1
67,71.74,76.53,1
69,71.68,76.46,1
68,71.61,76.37,1
68,71.54,76.29,1
67,71.45,76.20,1
70,71.42,76.14,1
66,71.31,76.03,1
67,71.22,75.94,1
66,71.12,75.84,1
65,71.00,75.74,1
66,70.90,75.64,1
66,70.80,75.54,1
66,70.70,75.45,1
68,70.65,75.37,1
66,70.56,75.28,1
68,70.51,75.21,1
66,70.42,75.11,1
66,70.33,75.02,1
66,70.24,74.93,1
67,70.18,74.85,1
66,70.09,74.76,1
66,70.01,74.68,1
66,69.93,74.59,1
66,69.85,74.50,1
68,69.81,74.44,1
66,69.74,74.35,1
66,69.66,74.27,1
66,69.59,74.19,1
66,69.52,74.11,1
65,69.43,74.02,1
65,69.34,73.93,1
66,69.27,73.85,1
65,69.19,73.76,1
66,69.12,73.68,1
65,69.04,73.59,1
65,68.96,73.51,1
67,68.92,73.44,1
66,68.86,73.37,1
64,68.77,73.27,1
64,68.67,73.18,1
65,68.60,73.10,1
64,68.50,73.01,1
64,68.41,72.92,1
64,68.33,72.83,1
64,68.24,72.74,1
64,68.15,72.65,1
64,68.07,72.57,1
64,67.99,72.48,1
64,67.91,72.40,1
66,67.87,72.33,1
64,67.79,72.25,1
64,67.72,72.17,1
64,67.64,72.09,1
64,67.57,72.00,1
64,67.50,71.92,1
64,67.43,71.85,1
63,67.34,71.76,1
66,67.31,71.70,1
64,67.25,71.62,1
62,67.14,71.53,1
63,67.06,71.44,1
63,66.98,71.36,1
62,66.88,71.26,1
63,66.80,71.18,1
63,66.73,71.10,1
63,66.65,71.02,1
62,66.56,70.93,1
62,66.47,70.84,1
63,66.40,70.76,1
64,66.35,70.69,1
62,66.26,70.60,1
62,66.18,70.52,1
63,66.11,70.44,1
59,65.97,70.33,1
62,65.89,70.25,1
64,65.85,70.18,1
63,65.80,70.11,1
62,65.72,70.03,1
62,65.65,69.95,1
63,65.59,69.88,1
62,65.52,69.80,1
62,65.45,69.72,1
62,65.38,69.65,1
62,65.32,69.57,1
62,65.25,69.49,1
62,65.18,69.42,1
62,65.12,69.35,1
62,65.06,69.27,1
62,65.00,69.20,1
62,64.94,69.13,1
62,64.88,69.06,1
62,64.82,68.99,1
62,64.76,68.92,1
62,64.71,68.85,1
63,64.67,68.79,1
60,64.58,68.70,1
62,64.53,68.63,1
62,64.48,68.57,1
64,64.47,68.52,1
63,64.44,68.47,1
62,64.39,68.40,1
63,64.36,68.35,1
61,64.30,68.27,1
62,64.25,68.21,1
63,64.23,68.16,1
62,64.18,68.10,1
62,64.14,68.04,1
63,64.11,67.99,1
62,64.07,67.93,1
66,64.11,67.91,1
62,64.07,67.85,1
62,64.03,67.79,1
62,63.99,67.73,1
62,63.95,67.67,1
62,63.91,67.62,1
61,63.85,67.55,1
61,63.79,67.49,1
61,63.74,67.42,1
62,63.70,67.37,1
61,63.65,67.30,1
62,63.62,67.25,1
61,63.56,67.19,1
60,63.49,67.12,1
61,63.44,67.05,1
61,63.39,66.99,1
61,63.35,66.93,1
62,63.32,66.88,1
63,63.31,66.85,1
63,63.31,66.81,1
61,63.26,66.75,1
62,63.23,66.70,1
62,63.21,66.65,1
62,63.19,66.61,1
61,63.14,66.55,1
60,63.08,66.49,1
62,63.06,66.44,1
63,63.06,66.41,1
60,63.00,66.34,1
60,62.94,66.28,1
61,62.90,66.23,1
61,62.86,66.17,1
60,62.80,66.11,1
60,62.75,66.05,1
63,62.75,66.02,1
61,62.72,65.97,1
63,62.72,65.94,1
62,62.71,65.90,1
60,62.65,65.84,1
63,62.66,65.81,1
62,62.65,65.78,1
61,62.61,65.73,1
62,62.60,65.69,1
61,62.57,65.64,1
61,62.54,65.60,1
62,62.53,65.56,1
60,62.48,65.51,1
61,62.45,65.46,1
61,62.42,65.42,1
62,62.41,65.38,1
62,62.40,65.35,1
61,62.37,65.31,1
61,62.35,65.26,1
60,62.30,65.21,1
60,62.25,65.16,1
62,62.25,65.13,1
61,62.22,65.08,1
60,62.18,65.03,1
60,62.13,64.98,1
61,62.11,64.94,1
62,62.11,64.91,1
62,62.11,64.89,1
60,62.07,64.84,1
64,62.10,64.83,1
60,62.06,64.78,1
60,62.02,64.73,1
60,61.98,64.68,1
61,61.96,64.65,1
61,61.94,64.61,1
60,61.90,64.56,1
62,61.90,64.54,1
59,61.85,64.48,1
62,61.85,64.46,1
62,61.85,64.43,1
62,61.86,64.41,1
61,61.84,64.38,1
60,61.80,64.33,1
60,61.77,64.29,1
62,61.77,64.27,1
59,61.72,64.21,1
62,61.72,64.19,1
62,61.73,64.17,1
62,61.73,64.15,1
63,61.76,64.14,1
62,61.76,64.11,1
60,61.73,64.07,1
62,61.73,64.05,1
63,61.76,64.04,1
62,61.76,64.02,1
62,61.77,64.00,1
62,61.77,63.98,1
62,61.78,63.96,1
62,61.78,63.94,1
61,61.77,63.91,1
61,61.75,63.88,1
62,61.76,63.86,1
66,61.84,63.89,1
62,61.84,63.87,1
63,61.87,63.86,1
62,61.87,63.84,1
62,61.87,63.82,1
62,61.87,63.80,1
61,61.86,63.78,1
62,61.86,63.76,1
62,61.86,63.74,1
64,61.91,63.74,1
64,61.95,63.75,1
62,61.95,63.73,1
62,61.95,63.71,1
62,61.95,63.69,1
61,61.93,63.67,1
62,61.93,63.65,1
61,61.91,63.62,1
62,61.92,63.61,1
62,61.92,63.59,1
62,61.92,63.58,1
61,61.90,63.55,1
61,61.88,63.52,1
61,61.86,63.50,1
62,61.87,63.48,1
61,61.85,63.46,1
63,61.87,63.45,1
64,61.92,63.46,1
63,61.94,63.46,1
63,61.96,63.45,1
62,61.96,63.44,1
62,61.96,63.42,1
63,61.98,63.42,1
63,62.00,63.41,1
62,62.00,63.40,1
62,62.00,63.39,1
63,62.02,63.38,1
61,62.00,63.36,1
62,62.00,63.34,1
62,62.00,63.33,1
61,61.98,63.31,1
61,61.96,63.28,1
61,61.94,63.26,1
62,61.94,63.25,1
61,61.92,63.23,1
62,61.93,63.21,1
62,61.93,63.20,1
62,61.93,63.19,1
63,61.95,63.19,1
64,61.99,63.20,1
60,61.95,63.16,1
62,61.95,63.15,1
64,61.99,63.16,1
64,62.03,63.17,1
64,62.07,63.18,1
62,62.07,63.17,1
64,62.11,63.17,1
64,62.15,63.18,1
64,62.18,63.19,1
64,62.22,63.20,1
62,62.22,63.19,1
63,62.23,63.18,1
62,62.23,63.17,1
62,62.22,63.16,1
62,62.22,63.15,1
62,62.21,63.14,1
62,62.21,63.13,1
62,62.21,63.12,1
63,62.22,63.11,1
62,62.22,63.10,1
62,62.21,63.09,1
62,62.21,63.08,1
62,62.20,63.07,1
62,62.20,63.06,1
62,62.20,63.05,1
66,62.27,63.08,1
62,62.27,63.07,1
62,62.26,63.06,1
62,62.26,63.05,1
62,62.25,63.04,1
65,62.31,63.06,1
64,62.34,63.07,1
62,62.33,63.05,1
68,62.45,63.10,1
64,62.48,63.11,1
62,62.47,63.10,1
62,62.46,63.09,1
64,62.49,63.10,1
65,62.54,63.12,1
64,62.57,63.13,1
62,62.56,63.12,1
63,62.57,63.12,1
62,62.56,63.10,1
62,62.54,63.09,1
62,62.53,63.08,1
64,62.56,63.09,1
62,62.55,63.08,1
62,62.54,63.07,1
62,62.53,63.06,1
60,62.48,63.03,1
62,62.47,63.02,1
62,62.46,63.01,1
62,62.45,63.00,1
62,62.44,62.99,1
62,62.43,62.98,1
64,62.46,62.99,1
64,62.50,63.00,1
63,62.51,63.00,1
62,62.50,62.99,1
62,62.49,62.98,1
62,62.48,62.97,1
62,62.47,62.96,1
62,62.46,62.95,1
62,62.45,62.94,1
63,62.46,62.94,1
62,62.45,62.93,1
62,62.44,62.92,1
64,62.47,62.93,1
64,62.50,62.94,1
65,62.55,62.96,1
64,62.58,62.97,1
62,62.57,62.96,1
62,62.56,62.95,1
67,62.65,63.00,1
70,62.79,63.07,1
65,62.84,63.08,1
64,62.86,63.09,1
64,62.88,63.10,1
66,62.95,63.13,1
64,62.97,63.14,1
64,62.99,63.15,1
64,63.01,63.16,1
63,63.01,63.16,1
64,63.03,63.16,1
61,62.99,63.14,1
64,63.01,63.15,1
64,63.03,63.16,1
64,63.05,63.17,1
62,63.03,63.16,1
64,63.05,63.17,1
65,63.08,63.18,1
64,63.10,63.19,1
61,63.06,63.17,1
62,63.04,63.16,1
63,63.04,63.16,1
64,63.06,63.16,1
62,63.04,63.15,1
62,63.02,63.14,1
61,62.98,63.12,1
62,62.96,63.11,1
62,62.94,63.10,1
62,62.92,63.09,1
63,62.92,63.09,1
62,62.90,63.08,1
62,62.88,63.06,1
62,62.87,63.05,1
63,62.87,63.05,1
64,62.89,63.06,1
64,62.91,63.07,1
62,62.90,63.06,1
63,62.90,63.06,1
66,62.96,63.09,1
64,62.98,63.10,1
64,63.00,63.11,1
62,62.98,63.10,1
64,63.00,63.11,1
64,63.02,63.12,1
64,63.04,63.12,1
64,63.06,63.13,1
64,63.08,63.14,1
64,63.10,63.15,1
64,63.12,63.16,1
64,63.13,63.17,1
66,63.19,63.20,1
64,63.21,63.20,1
64,63.22,63.21,1
64,63.24,63.22,1
63,63.23,63.22,1
62,63.21,63.20,1
64,63.22,63.21,1
66,63.28,63.24,1
64,63.29,63.25,1
62,63.27,63.24,1
62,63.24,63.22,1
66,63.30,63.25,1
68,63.39,63.30,1
66,63.44,63.33,1
64,63.46,63.33,1
66,63.51,63.36,1
66,63.56,63.39,1
66,63.60,63.41,1
66,63.65,63.44,1
66,63.70,63.46,1
66,63.75,63.49,1
66,63.79,63.51,1
64,63.80,63.52,1
64,63.80,63.52,1
64,63.80,63.53,1
65,63.83,63.54,1
64,63.83,63.55,1
64,63.83,63.55,1
66,63.88,63.58,1
68,63.96,63.62,1
67,64.02,63.65,1
67,64.08,63.69,1
70,64.20,63.75,1
70,64.31,63.81,1
69,64.41,63.87,1
68,64.48,63.91,1
68,64.55,63.95,1
70,64.66,64.01,1
70,64.77,64.07,1
70,64.87,64.13,1
68,64.93,64.17,1
66,64.95,64.18,1
67,65.00,64.21,1
68,65.06,64.25,1
68,65.11,64.29,1
68,65.17,64.33,1
68,65.23,64.36,1
67,65.26,64.39,1
69,65.34,64.43,1
69,65.41,64.48,1
69,65.48,64.53,1
70,65.57,64.58,1
68,65.62,64.61,1
69,65.69,64.66,1
67,65.72,64.68,1
71,65.82,64.74,1
71,65.93,64.81,1
70,66.01,64.86,1
69,66.07,64.90,1
69,66.13,64.94,1
68,66.16,64.97,1
68,66.20,65.00,1
68,66.24,65.03,1
69,66.29,65.07,1
70,66.37,65.12,1
72,66.48,65.19,1
74,66.63,65.28,1
77,66.84,65.40,1
72,66.94,65.46,1
72,67.04,65.53,1
72,67.14,65.59,1
73,67.26,65.67,1
77,67.45,65.78,1
76,67.62,65.88,1
72,67.71,65.94,1
76,67.88,66.04,1
72,67.96,66.10,1
72,68.04,66.16,1
72,68.12,66.22,1
73,68.22,66.29,1
73,68.31,66.35,1
72,68.39,66.41,1
72,68.46,66.47,1
73,68.55,66.53,1
72,68.62,66.59,1
72,68.69,66.64,1
74,68.79,66.71,1
73,68.88,66.78,1
72,68.94,66.83,1
74,69.04,66.90,1
72,69.10,66.95,1
75,69.22,67.03,1
78,69.39,67.14,1
78,69.56,67.25,1
74,69.65,67.32,1
79,69.84,67.44,1
79,70.02,67.55,1
82,70.26,67.70,1
85,70.56,67.87,1
82,70.79,68.01,1
78,70.93,68.11,1
78,71.07,68.21,1
82,71.29,68.35,1
84,71.55,68.50,1
82,71.75,68.64,1
80,71.92,68.75,1
79,72.06,68.85,1
79,72.20,68.96,1
79,72.34,69.06,1
80,72.49,69.17,1
84,72.72,69.31,1
81,72.88,69.43,1
82,73.07,69.56,1
80,73.21,69.66,1
79,73.32,69.75,1
82,73.50,69.88,1
82,73.67,70.00,1
80,73.79,70.10,1
79,73.90,70.19,1
79,74.00,70.28,1
82,74.16,70.39,1
84,74.36,70.53,1
86,74.59,70.68,1
85,74.80,70.83,1
84,74.98,70.96,1
82,75.12,71.07,1
84,75.30,71.20,1
89,75.57,71.38,1
90,75.86,71.56,1
86,76.06,71.71,1
92,76.38,71.91,1
92,76.69,72.11,1
90,76.96,72.29,1
86,77.14,72.43,1
95,77.50,72.65,1
94,77.83,72.87,1
94,78.15,73.08,1
92,78.43,73.27,1
96,78.78,73.49,1
92,79.04,73.68,1
92,79.30,73.86,1
90,79.52,74.02,1
91,79.75,74.19,1
93,80.01,74.38,1
96,80.33,74.60,1
93,80.59,74.78,1
92,80.81,74.95,1
94,81.08,75.14,1
99,81.44,75.38,1
101,81.83,75.64,1
94,82.07,75.82,1
99,82.41,76.05,1
100,82.76,76.29,1
103,83.17,76.56,1
103,83.56,76.83,1
97,83.83,77.03,1
100,84.15,77.26,1
100,84.47,77.48,1
101,84.80,77.72,1
99,85.09,77.93,1
101,85.40,78.16,1
102,85.74,78.40,1
101,86.04,78.63,1
100,86.32,78.84,1
99,86.57,79.04,1
100,86.84,79.25,1
101,87.13,79.47,1
99,87.36,79.66,1
99,87.60,79.86,1
100,87.84,80.06,1
99,88.07,80.25,1
99,88.29,80.44,1
104,88.60,80.67,1
102,88.87,80.89,1
111,89.31,81.19,1
111,89.74,81.48,1
108,90.11,81.75,1
105,90.41,81.98,1
114,90.88,82.30,1
113,91.32,82.61,1
111,91.72,82.89,1
107,92.02,83.13,1
105,92.28,83.35,1
109,92.62,83.61,1
115,93.06,83.92,1
115,93.50,84.23,1
113,93.89,84.52,1
108,94.17,84.76,1
115,94.59,85.06,1
120,95.10,85.41,1
113,95.46,85.68,1
110,95.75,85.93,1
116,96.15,86.23,1
111,96.45,86.48,1
110,96.72,86.71,1
113,97.05,86.97,1
116,97.43,87.26,1
118,97.84,87.57,1
120,98.28,87.90,1
113,98.57,88.15,1
113,98.86,88.40,1
121,99.31,88.72,1
119,99.70,89.02,1
115,100.01,89.28,1
116,100.33,89.55,1
122,100.76,89.88,1
114,101.02,90.12,1
118,101.36,90.40,1
120,101.74,90.69,1
117,102.04,90.95,1
116,102.32,91.21,1
121,102.69,91.50,1
122,103.08,91.81,1
118,103.38,92.07,1
122,103.75,92.37,1
124,104.16,92.69,1
126,104.59,93.02,1
122,104.94,93.31,1
119,105.22,93.57,1
120,105.52,93.83,1
118,105.77,94.07,1
120,106.05,94.33,1
120,106.33,94.59,1
123,106.66,94.87,1
124,107.01,95.16,1
125,107.37,95.46,1
120,107.62,95.71,1
121,107.89,95.96,1
122,108.17,96.22,1
123,108.47,96.49,1
128,108.86,96.80,1
121,109.10,97.05,1
126,109.44,97.33,1
123,109.71,97.59,1
121,109.94,97.83,1
122,110.18,98.07,1
128,110.54,98.37,1
134,111.00,98.72,1
132,111.42,99.06,1
124,111.68,99.31,1
134,112.12,99.65,1
140,112.68,100.06,1
139,113.21,100.44,1
134,113.62,100.78,1
137,114.09,101.14,1
136,114.53,101.49,1
133,114.90,101.81,1
135,115.30,102.14,1
133,115.65,102.45,1
140,116.14,102.82,1
148,116.78,103.27,1
139,117.22,103.63,1
135,117.58,103.95,1
137,117.97,104.28,1
136,118.33,104.59,1
134,118.64,104.89,1
139,119.05,105.23,1
139,119.45,105.57,1
141,119.88,105.92,1
139,120.26,106.25,1
136,120.58,106.55,1
137,120.90,106.85,1
135,121.19,107.13,1
138,121.52,107.44,1
140,121.89,107.77,1
137,122.19,108.06,1
139,122.53,108.37,1
143,122.94,108.72,1
142,123.32,109.05,1
141,123.67,109.37,1
141,124.02,109.69,1
138,124.30,109.97,1
142,124.65,110.29,1
143,125.02,110.62,1
139,125.30,110.90,1
139,125.57,111.18,1
141,125.88,111.48,1
144,126.25,111.80,1
141,126.54,112.10,1
139,126.79,112.37,1
144,127.13,112.68,1
141,127.41,112.96,1
140,127.66,113.24,1
145,128.01,113.55,1
139,128.23,113.81,1
141,128.48,114.08,1
141,128.74,114.35,1
143,129.02,114.63,1
141,129.26,114.90,1
139,129.45,115.14,1
141,129.69,115.40,1
139,129.87,115.63,1
149,130.25,115.97,1
147,130.59,116.28,1
141,130.80,116.53,1
144,131.06,116.80,1
147,131.38,117.10,1
143,131.61,117.36,1
144,131.86,117.63,1
145,132.12,117.90,1
143,132.34,118.15,1
143,132.55,118.40,1
145,132.80,118.67,1
145,133.05,118.93,1
142,133.23,119.16,1
143,133.42,119.40,1
143,133.61,119.64,1
145,133.84,119.89,1
143,134.02,120.12,1
143,134.20,120.35,1
141,134.34,120.56,1
146,134.57,120.81,1
144,134.76,121.04,1
144,134.95,121.27,1
141,135.07,121.47,1
144,135.25,121.69,1
141,135.36,121.89,1
145,135.55,122.12,1
147,135.78,122.37,1
144,135.95,122.58,1
143,136.09,122.79,1
142,136.21,122.98,1
145,136.38,123.20,1
145,136.55,123.42,1
145,136.72,123.63,1
143,136.85,123.83,1
148,137.07,124.07,1
149,137.31,124.32,1
148,137.52,124.55,1
146,137.69,124.77,1
145,137.84,124.97,1
151,138.10,125.23,1
158,138.50,125.56,1
152,138.77,125.82,1
147,138.94,126.04,1
152,139.20,126.30,1
153,139.47,126.56,1
151,139.70,126.81,1
149,139.89,127.03,1
149,140.07,127.25,1
151,140.29,127.49,1
153,140.54,127.74,1
155,140.83,128.01,1
153,141.08,128.26,1
150,141.26,128.48,1
160,141.63,128.80,1
158,141.96,129.09,1
154,142.20,129.34,1
153,142.41,129.57,1
155,142.67,129.83,1
155,142.91,130.08,1
151,143.07,130.29,1
153,143.27,130.52,1
157,143.55,130.78,1
161,143.90,131.08,1
155,144.12,131.32,1
157,144.38,131.58,1
161,144.71,131.87,1
161,145.03,132.16,1
159,145.31,132.43,1
157,145.55,132.68,1
163,145.90,132.98,1
166,146.30,133.31,1
161,146.59,133.59,1
161,146.88,133.86,1
164,147.22,134.16,1
161,147.50,134.43,1
160,147.75,134.69,1
159,147.97,134.93,1
158,148.17,135.16,1
166,148.53,135.47,1
167,148.90,135.79,1
161,149.14,136.04,1
164,149.44,136.32,1
164,149.73,136.59,1
160,149.94,136.83,1
161,150.16,137.07,1
161,150.37,137.31,1
163,150.63,137.57,1
165,150.91,137.84,1
164,151.18,138.10,1
163,151.41,138.35,1
161,151.60,138.58,1
165,151.87,138.84,1
166,152.15,139.11,1
164,152.39,139.36,1
161,152.56,139.58,1
161,152.73,139.79,1
161,152.90,140.01,1
161,153.06,140.22,1
160,153.20,140.41,1
161,153.35,140.62,1
163,153.55,140.84,1
161,153.70,141.04,1
162,153.86,141.25,1
161,154.01,141.45,1
161,154.15,141.65,1
161,154.28,141.84,1
160,154.40,142.02,1
160,154.51,142.20,1
159,154.60,142.37,1
159,154.69,142.54,1
159,154.77,142.70,1
159,154.86,142.86,1
159,154.94,143.03,1
159,155.02,143.18,1
158,155.08,143.33,1
158,155.14,143.48,1
157,155.18,143.61,1
160,155.27,143.78,1
158,155.33,143.92,1
157,155.36,144.05,1
157,155.39,144.18,1
157,155.43,144.31,1
157,155.46,144.44,1
157,155.49,144.56,1
157,155.52,144.69,1
155,155.51,144.79,1
156,155.52,144.90,1
155,155.51,145.00,1
156,155.52,145.11,1
155,155.51,145.21,1
155,155.50,145.31,1
159,155.57,145.45,1
155,155.56,145.54,1
155,155.54,145.64,1
154,155.51,145.72,1
154,155.48,145.80,1
153,155.43,145.87,1
153,155.39,145.95,1
155,155.38,146.04,1
156,155.39,146.14,1
153,155.34,146.20,1
153,155.30,146.27,1
153,155.25,146.34,1
153,155.20,146.41,1
153,155.16,146.47,1
153,155.12,146.54,1
152,155.05,146.59,1
152,154.99,146.65,1
151,154.91,146.69,1
152,154.86,146.74,1
151,154.78,146.79,1
152,154.72,146.84,1
151,154.65,146.88,1
150,154.56,146.91,1
149,154.44,146.93,1
151,154.38,146.97,1
149,154.27,146.99,1
150,154.18,147.02,1
149,154.08,147.04,1
149,153.98,147.06,1
149,153.88,147.08,1
147,153.74,147.08,1
148,153.63,147.09,1
148,153.51,147.10,1
147,153.38,147.10,1
147,153.26,147.10,1
147,153.13,147.10,1
149,153.05,147.11,1
148,152.95,147.12,1
147,152.83,147.12,1
150,152.77,147.15,1
148,152.68,147.16,1
148,152.58,147.17,1
151,152.55,147.21,1
147,152.44,147.20,1
145,152.29,147.18,1
145,152.14,147.16,1
147,152.04,147.16,1
148,151.96,147.17,1
146,151.84,147.16,1
147,151.75,147.15,1
146,151.63,147.14,1
145,151.50,147.12,1
145,151.37,147.10,1
145,151.24,147.08,1
144,151.10,147.05,1
145,150.97,147.03,1
143,150.81,146.99,1
144,150.68,146.96,1
144,150.54,146.93,1
145,150.43,146.91,1
145,150.32,146.89,1
145,150.22,146.87,1
145,150.11,146.85,1
143,149.97,146.81,1
144,149.85,146.79,1
143,149.72,146.75,1
143,149.58,146.71,1
143,149.45,146.67,1
141,149.28,146.62,1
143,149.15,146.58,1
141,148.99,146.52,1
141,148.83,146.47,1
141,148.68,146.41,1
142,148.54,146.37,1
141,148.39,146.32,1
140,148.22,146.25,1
141,148.08,146.20,1
139,147.90,146.13,1
139,147.72,146.06,1
139,147.54,145.99,1
140,147.39,145.93,1
139,147.23,145.86,1
140,147.08,145.80,1
139,146.92,145.73,1
137,146.72,145.64,1
138,146.55,145.57,1
138,146.38,145.49,1
137,146.19,145.41,1
138,146.02,145.33,1
137,145.84,145.25,1
139,145.71,145.19,1
137,145.53,145.11,1
137,145.36,145.02,1
137,145.20,144.94,1
136,145.01,144.85,1
136,144.83,144.77,2
136,144.65,144.68,2
135,144.46,144.58,3
135,144.27,144.49,3
135,144.09,144.39,3
135,143.91,144.30,3
136,143.75,144.21,3
134,143.55,144.11,3
134,143.36,144.01,3
134,143.17,143.91,3
135,143.01,143.82,3
133,142.81,143.71,3
134,142.63,143.62,3
133,142.44,143.51,3
133,142.25,143.40,3
133,142.07,143.30,3
133,141.89,143.20,3
133,141.71,143.10,3
132,141.51,142.98,3
132,141.32,142.88,3
131,141.12,142.76,3
132,140.94,142.65,3
131,140.74,142.53,3
131,140.54,142.42,3
131,140.35,142.30,3
130,140.14,142.18,3
130,139.94,142.06,3
132,139.78,141.96,3
129,139.57,141.83,3
129,139.36,141.70,3
129,139.15,141.57,3
129,138.95,141.45,3
129,138.75,141.32,3
129,138.55,141.20,3
128,138.34,141.07,3
128,138.13,140.94,3
129,137.95,140.82,3
127,137.73,140.68,3
127,137.52,140.54,3
127,137.31,140.41,3
128,137.12,140.28,3
127,136.92,140.15,3
127,136.72,140.02,3
126,136.51,139.88,3
127,136.32,139.75,3
125,136.09,139.60,3
127,135.91,139.48,3
125,135.69,139.33,3
125,135.48,139.19,3
125,135.27,139.05,3
125,135.06,138.91,3
125,134.86,138.77,3
125,134.66,138.63,3
125,134.47,138.49,3
125,134.28,138.36,3
125,134.09,138.22,3
124,133.89,138.08,3
121,133.63,137.91,3
123,133.42,137.76,3
125,133.25,137.63,3
124,133.07,137.50,3
123,132.87,137.35,3
123,132.67,137.21,3
123,132.48,137.07,3
123,132.29,136.93,3
123,132.10,136.79,3
122,131.90,136.64,3
123,131.72,136.50,3
121,131.51,136.35,3
121,131.30,136.19,3
121,131.09,136.04,3
121,130.89,135.89,3
121,130.69,135.74,3
121,130.50,135.60,3
121,130.31,135.45,3
121,130.12,135.31,3
121,129.94,135.16,3
120,129.74,135.01,3
120,129.54,134.86,3
120,129.35,134.71,3
120,129.17,134.56,3
120,128.98,134.42,3
119,128.78,134.27,3
119,128.59,134.11,3
119,128.40,133.96,3
119,128.21,133.81,3
119,128.02,133.66,3
119,127.84,133.52,3
118,127.65,133.36,3
118,127.45,133.21,3
117,127.24,133.05,3
119,127.08,132.91,3
119,126.92,132.77,3
120,126.78,132.64,3
117,126.58,132.48,3
117,126.39,132.33,3
117,126.20,132.17,3
118,126.04,132.03,3
117,125.86,131.88,3
117,125.68,131.73,3
117,125.51,131.59,3
117,125.34,131.44,3
117,125.17,131.30,3
116,124.99,131.14,3
116,124.81,130.99,3
116,124.63,130.84,3
115,124.44,130.68,3
115,124.25,130.53,3
116,124.09,130.38,3
115,123.90,130.23,3
115,123.73,130.07,3
115,123.55,129.92,3
115,123.38,129.77,3
114,123.19,129.62,3
114,123.01,129.46,3
113,122.81,129.30,3
113,122.61,129.13,3
113,122.42,128.97,3
113,122.23,128.81,3
113,122.05,128.65,3
113,121.87,128.50,3
113,121.69,128.34,3
113,121.52,128.19,3
113,121.35,128.04,3
112,121.16,127.88,3
111,120.96,127.71,3
111,120.76,127.54,3
112,120.58,127.39,3
111,120.39,127.22,3
112,120.22,127.07,3
111,120.04,126.91,3
111,119.86,126.75,3
111,119.68,126.59,3
111,119.51,126.44,3
111,119.34,126.28,3
110,119.15,126.12,3
111,118.99,125.97,3
111,118.83,125.82,3
109,118.63,125.65,3
110,118.46,125.49,3
109,118.27,125.33,3
109,118.08,125.17,3
109,117.90,125.00,3
109,117.72,124.84,3
109,117.55,124.69,3
109,117.38,124.53,3
110,117.23,124.38,3
108,117.05,124.22,3
109,116.88,124.07,3
109,116.73,123.92,3
107,116.53,123.75,3
105,116.30,123.56,3
107,116.12,123.39,3
108,115.95,123.24,3
107,115.77,123.08,3
108,115.62,122.93,3
107,115.45,122.77,3
109,115.32,122.63,3
107,115.15,122.47,3
107,114.99,122.32,3
105,114.79,122.15,3
106,114.61,121.98,3
106,114.44,121.82,3
106,114.27,121.67,3
105,114.09,121.50,3
105,113.90,121.33,3
105,113.73,121.17,3
105,113.55,121.01,3
106,113.40,120.86,3
105,113.23,120.70,3
105,113.07,120.54,3
105,112.91,120.39,3
105,112.75,120.23,3
104,112.57,120.07,3
104,112.40,119.91,3
104,112.23,119.75,3
104,112.07,119.60,3
104,111.91,119.44,3
105,111.77,119.29,3
104,111.61,119.14,3
103,111.44,118.98,3
103,111.27,118.82,3
103,111.11,118.66,3
103,110.95,118.51,3
104,110.81,118.36,3
103,110.65,118.21,3
102,110.48,118.04,3
101,110.29,117.87,3
103,110.14,117.73,3
103,110.00,117.58,3
102,109.84,117.42,3
103,109.70,117.28,3
101,109.53,117.12,3
102,109.38,116.96,3
101,109.21,116.80,3
102,109.07,116.66,3
101,108.91,116.50,3
101,108.75,116.35,3
101,108.59,116.19,3
101,108.44,116.04,3
100,108.27,115.88,3
100,108.11,115.72,3
100,107.94,115.56,3
99,107.76,115.40,3
99,107.59,115.23,3
99,107.42,115.07,3
98,107.23,114.90,3
100,107.08,114.75,3
100,106.94,114.60,3
102,106.84,114.48,3
101,106.73,114.34,3
103,106.65,114.23,3
101,106.54,114.10,3
101,106.43,113.97,3
103,106.36,113.86,3
103,106.29,113.75,3
101,106.19,113.62,3
101,106.08,113.49,3
101,105.98,113.37,3
101,105.88,113.25,3
104,105.84,113.15,3
100,105.73,113.02,3
103,105.67,112.92,3
105,105.66,112.84,3
106,105.67,112.77,3
101,105.57,112.66,3
102,105.50,112.55,3
102,105.43,112.44,3
102,105.36,112.34,3
102,105.30,112.24,3
102,105.23,112.13,3
103,105.19,112.04,3
101,105.10,111.93,3
101,105.02,111.82,3
101,104.94,111.72,3
101,104.86,111.61,3
100,104.76,111.49,3
100,104.67,111.38,3
99,104.55,111.25,3
99,104.44,111.13,3
101,104.37,111.03,3
101,104.31,110.93,3
99,104.20,110.81,3
99,104.10,110.69,3
100,104.02,110.58,3
99,103.91,110.47,3
100,103.84,110.36,3
98,103.72,110.24,3
99,103.63,110.13,3
99,103.53,110.02,3
98,103.42,109.90,3
99,103.33,109.79,3
98,103.23,109.67,3
100,103.16,109.57,3
99,103.08,109.47,3
99,103.00,109.36,3
98,102.90,109.25,3
98,102.80,109.14,3
98,102.70,109.03,3
98,102.61,108.92,3
98,102.52,108.81,3
98,102.43,108.70,3
97,102.32,108.58,3
98,102.23,108.48,3
98,102.15,108.37,3
98,102.06,108.27,3
98,101.98,108.16,3
97,101.88,108.05,3
97,101.79,107.94,3
96,101.67,107.82,3
96,101.56,107.70,3
96,101.45,107.59,3
96,101.34,107.47,3
96,101.23,107.36,3
98,101.17,107.26,3
96,101.06,107.15,3
96,100.96,107.04,3
96,100.86,106.93,3
95,100.74,106.81,3
100,100.73,106.74,3
96,100.64,106.63,3
95,100.52,106.52,3
95,100.41,106.40,3
94,100.28,106.28,3
95,100.18,106.17,3
96,100.09,106.06,3
96,100.01,105.96,3
95,99.91,105.85,3
94,99.79,105.73,3
95,99.70,105.63,3
94,99.58,105.51,3
95,99.49,105.41,3
94,99.38,105.29,3
93,99.26,105.17,3
93,99.13,105.05,3
94,99.03,104.94,3
93,98.91,104.82,3
94,98.81,104.71,3
93,98.69,104.59,3
94,98.60,104.49,3
93,98.49,104.37,3
93,98.38,104.26,3
93,98.27,104.15,3
92,98.14,104.02,3
93,98.04,103.91,3
92,97.92,103.79,3
93,97.82,103.69,3
92,97.71,103.57,3
92,97.59,103.45,3
92,97.48,103.34,3
93,97.39,103.24,3
93,97.30,103.13,3
93,97.22,103.03,3
93,97.13,102.93,3
95,97.09,102.85,3
91,96.97,102.73,3
92,96.87,102.63,3
91,96.75,102.51,3
91,96.64,102.40,3
91,96.52,102.28,3
93,96.45,102.19,3
91,96.34,102.08,3
91,96.24,101.97,3
89,96.09,101.84,3
90,95.97,101.72,3
89,95.83,101.59,3
92,95.75,101.49,3
90,95.64,101.38,3
90,95.53,101.27,3
91,95.44,101.16,3
88,95.29,101.03,3
89,95.16,100.91,3
89,95.04,100.79,3
89,94.92,100.67,3
89,94.80,100.56,3
90,94.70,100.45,3
89,94.59,100.34,3
91,94.52,100.24,3
89,94.41,100.13,3
89,94.30,100.02,3
89,94.19,99.91,3
89,94.09,99.80,3
89,93.99,99.69,3
89,93.89,99.59,3
89,93.79,99.48,3
89,93.69,99.38,3
92,93.66,99.30,3
89,93.57,99.20,3
88,93.46,99.09,3
88,93.35,98.98,3
87,93.22,98.86,3
88,93.11,98.75,3
88,93.01,98.64,3
88,92.91,98.53,3
87,92.79,98.42,3
88,92.70,98.31,3
86,92.56,98.19,3
87,92.45,98.08,3
87,92.34,97.97,3
85,92.20,97.84,3
86,92.07,97.72,3
87,91.97,97.61,3
85,91.83,97.49,3
86,91.72,97.37,3
86,91.60,97.26,3
86,91.49,97.15,3
86,91.38,97.03,3
86,91.27,96.92,3
86,91.17,96.81,3
86,91.06,96.71,3
85,90.94,96.59,3
85,90.82,96.47,3
84,90.69,96.35,3
85,90.57,96.24,3
85,90.46,96.12,3
84,90.33,96.00,3
84,90.21,95.88,3
85,90.10,95.77,3
85,90.00,95.67,3
84,89.88,95.55,3
84,89.76,95.43,3
85,89.67,95.33,3
85,89.57,95.23,3
83,89.44,95.10,3
83,89.31,94.98,3
84,89.21,94.87,3
84,89.10,94.76,3
83,88.98,94.65,3
82,88.84,94.52,3
84,88.74,94.41,3
84,88.65,94.31,3
83,88.54,94.20,3
82,88.41,94.08,3
83,88.30,93.96,3
83,88.19,93.85,3
82,88.07,93.74,3
82,87.95,93.62,3
83,87.85,93.51,3
84,87.77,93.42,3
82,87.65,93.30,3
82,87.54,93.19,3
82,87.43,93.08,3
82,87.32,92.97,3
82,87.22,92.86,3
82,87.11,92.75,3
82,87.01,92.64,3
82,86.91,92.54,3
82,86.81,92.43,3
82,86.71,92.33,3
82,86.62,92.22,3
81,86.51,92.11,3
80,86.38,91.99,3
80,86.25,91.87,3
81,86.15,91.76,3
81,86.04,91.65,3
80,85.92,91.54,3
80,85.80,91.42,3
82,85.73,91.33,3
80,85.61,91.21,3
80,85.50,91.10,3
79,85.37,90.98,3
79,85.24,90.86,3
80,85.14,90.75,3
80,85.04,90.64,3
79,84.91,90.53,3
80,84.82,90.42,3
79,84.70,90.31,3
80,84.61,90.21,3
79,84.49,90.09,3
79,84.38,89.98,3
79,84.28,89.87,3
78,84.15,89.75,3
78,84.03,89.64,3
79,83.93,89.53,3
80,83.85,89.43,3
80,83.77,89.34,3
78,83.66,89.23,3
79,83.56,89.12,3
78,83.45,89.01,3
78,83.34,88.90,3
78,83.24,88.79,3
78,83.13,88.69,3
78,83.03,88.58,3
77,82.91,88.46,3
79,82.83,88.37,3
78,82.73,88.27,3
78,82.64,88.16,3
77,82.53,88.05,3
78,82.44,87.95,3
82,82.43,87.89,3
78,82.34,87.79,3
77,82.23,87.68,3
77,82.13,87.58,3
78,82.04,87.48,3
77,81.94,87.38,3
76,81.82,87.26,3
76,81.71,87.15,3
78,81.63,87.06,3
76,81.52,86.95,3
76,81.41,86.84,3
77,81.32,86.74,3
77,81.24,86.64,3
77,81.15,86.55,3
76,81.05,86.44,3
76,80.95,86.34,3
76,80.85,86.23,3
76,80.75,86.13,3
77,80.68,86.04,3
76,80.58,85.94,3
76,80.49,85.84,3
76,80.40,85.74,3
76,80.31,85.64,3
75,80.21,85.54,3
78,80.16,85.46,3
76,80.08,85.37,3
76,80.00,85.27,3
76,79.92,85.18,3
75,79.82,85.08,3
76,79.74,84.99,3
74,79.63,84.88,3
74,79.52,84.77,3
74,79.41,84.66,3
74,79.30,84.56,3
74,79.19,84.45,3
74,79.09,84.35,3
74,78.99,84.24,3
74,78.89,84.14,3
74,78.79,84.04,3
74,78.69,83.94,3
75,78.62,83.85,3
75,78.55,83.76,3
74,78.46,83.66,3
74,78.37,83.57,3
73,78.26,83.46,3
73,78.15,83.36,3
74,78.07,83.26,3
74,77.99,83.17,3
74,77.91,83.08,3
74,77.83,82.99,3
74,77.75,82.90,3
72,77.64,82.79,3
72,77.53,82.68,3
73,77.44,82.58,3
74,77.37,82.50,3
72,77.26,82.39,3
72,77.16,82.29,3
73,77.07,82.20,3
72,76.97,82.09,3
72,76.87,81.99,3
72,76.77,81.89,3
72,76.68,81.79,3
74,76.62,81.72,3
72,76.53,81.62,3
73,76.46,81.53,3
73,76.39,81.45,3
72,76.30,81.35,3
72,76.22,81.26,3
73,76.15,81.18,3
74,76.11,81.11,3
72,76.03,81.01,3
72,75.95,80.92,3
73,75.89,80.84,3
74,75.85,80.78,3
72,75.77,80.69,3
74,75.74,80.62,3
73,75.68,80.55,3
72,75.61,80.46,3
75,75.60,80.41,3
74,75.57,80.34,3
75,75.56,80.29,3
72,75.48,80.21,3
74,75.45,80.14,3
73,75.41,80.07,3
72,75.34,79.99,3
74,75.31,79.93,3
72,75.24,79.85,3
72,75.18,79.77,3
73,75.14,79.71,3
72,75.07,79.63,3
72,75.01,79.55,3
72,74.95,79.48,3
72,74.89,79.40,3
71,74.81,79.32,3
70,74.72,79.22,3
72,74.66,79.15,3
72,74.61,79.08,3
71,74.54,79.00,3
72,74.49,78.93,3
70,74.40,78.84,3
72,74.35,78.77,3
71,74.28,78.69,3
73,74.26,78.64,3
71,74.19,78.56,3
71,74.13,78.49,3
74,74.13,78.44,3
72,74.08,78.38,3
72,74.04,78.31,3
71,73.98,78.24,3
73,73.96,78.19,3
72,73.92,78.13,3
71,73.86,78.05,3
72,73.83,77.99,3
72,73.79,77.93,3
74,73.79,77.89,3
74,73.80,77.86,3
74,73.80,77.82,3
76,73.85,77.80,3
72,73.81,77.74,3
71,73.75,77.67,3
73,73.74,77.63,3
73,73.72,77.58,3
74,73.73,77.54,3
74,73.73,77.51,3
72,73.70,77.45,3
73,73.69,77.41,3
74,73.69,77.38,3
73,73.68,77.33,3
73,73.66,77.29,3
73,73.65,77.25,3
72,73.62,77.19,3
76,73.67,77.18,3
72,73.63,77.13,3
72,73.60,77.08,3
72,73.57,77.03,3
72,73.54,76.98,3
71,73.49,76.92,3
73,73.48,76.88,3
71,73.43,76.82,3
71,73.38,76.76,3
70,73.31,76.69,3
73,73.30,76.66,3
74,73.32,76.63,3
70,73.25,76.56,3
72,73.23,76.52,3
73,73.22,76.48,3
74,73.24,76.46,3
72,73.21,76.41,3
71,73.17,76.36,3
73,73.17,76.33,3
74,73.18,76.30,3
74,73.20,76.28,3
72,73.17,76.24,3
72,73.15,76.19,3
72,73.13,76.15,3
74,73.15,76.13,3
73,73.14,76.10,3
72,73.12,76.06,3
72,73.10,76.02,3
72,73.08,75.98,3
72,73.05,75.94,3
73,73.05,75.91,3
72,73.03,75.87,3
73,73.03,75.84,3
72,73.01,75.80,3
72,72.99,75.76,3
72,72.97,75.73,3
71,72.93,75.68,3
72,72.91,75.64,3
75,72.95,75.64,3
72,72.94,75.60,3
72,72.92,75.56,3
74,72.94,75.55,3
72,72.92,75.51,3
72,72.90,75.48,3
74,72.92,75.46,3
76,72.98,75.47,3
75,73.02,75.46,3
74,73.04,75.45,3
74,73.06,75.43,3
74,73.08,75.42,3
74,73.10,75.41,3
74,73.12,75.39,3
74,73.14,75.38,3
76,73.19,75.38,3
76,73.25,75.39,3
74,73.26,75.38,3
74,73.28,75.36,3
75,73.31,75.36,3
74,73.33,75.35,3
74,73.34,75.33,3
74,73.35,75.32,3
74,73.37,75.31,3
76,73.42,75.31,3
73,73.41,75.29,3
74,73.42,75.28,3
74,73.43,75.26,3
74,73.45,75.25,3
76,73.50,75.26,3
75,73.53,75.26,3
73,73.52,75.23,3
74,73.53,75.22,3
74,73.54,75.21,3
76,73.58,75.22,3
75,73.61,75.21,3
74,73.62,75.20,3
74,73.63,75.19,3
73,73.62,75.17,3
74,73.62,75.16,3
74,73.63,75.15,3
74,73.64,75.13,3
72,73.61,75.10,3
73,73.59,75.08,3
73,73.58,75.06,3
74,73.59,75.05,3
72,73.56,75.02,3
74,73.57,75.01,3
73,73.56,74.99,3
76,73.60,75.00,3
72,73.57,74.97,3
73,73.56,74.95,3
73,73.55,74.93,3
72,73.52,74.90,3
74,73.53,74.89,3
73,73.52,74.87,3
76,73.57,74.88,3
74,73.58,74.88,3
73,73.56,74.86,3
72,73.53,74.83,3
73,73.52,74.81,3
74,73.53,74.80,3
73,73.52,74.78,3
73,73.51,74.77,3
74,73.52,74.76,3
72,73.49,74.73,3
72,73.46,74.70,3
72,73.43,74.68,3
72,73.40,74.65,3
74,73.41,74.64,3
74,73.43,74.64,3
74,73.44,74.63,3
72,73.41,74.60,3
72,73.38,74.58,3
74,73.39,74.57,3
74,73.41,74.57,3
73,73.40,74.55,3
78,73.49,74.59,3
72,73.46,74.56,3
73,73.45,74.54,3
72,73.42,74.52,3
73,73.41,74.50,3
72,73.38,74.48,3
72,73.36,74.45,3
73,73.35,74.44,3
71,73.30,74.40,3
72,73.28,74.38,3
72,73.25,74.36,3
72,73.23,74.33,3
72,73.20,74.31,3
74,73.22,74.31,3
72,73.19,74.28,3
72,73.17,74.26,3
72,73.15,74.24,3
72,73.12,74.22,3
73,73.12,74.20,3
74,73.14,74.20,3
72,73.12,74.18,3
72,73.09,74.16,3
76,73.15,74.18,3
74,73.17,74.17,3
72,73.15,74.15,3
77,73.22,74.18,3
76,73.28,74.20,3
75,73.31,74.21,3
74,73.33,74.21,3
74,73.34,74.20,3
73,73.33,74.19,3
74,73.35,74.19,3
74,73.36,74.19,3
76,73.41,74.21,3
75,73.44,74.21,3
74,73.45,74.21,3
74,73.47,74.21,3
74,73.48,74.21,3
73,73.47,74.19,3
72,73.44,74.17,3
72,73.41,74.15,3
74,73.42,74.15,3
74,73.43,74.15,3
75,73.46,74.16,3
74,73.47,74.16,3
74,73.48,74.15,3
75,73.52,74.16,3
75,73.54,74.17,3
73,73.53,74.16,3
74,73.54,74.16,3
74,73.55,74.16,3
74,73.56,74.15,3
73,73.55,74.14,3
74,73.56,74.14,3
74,73.57,74.14,3
74,73.58,74.14,3
74,73.59,74.14,3
73,73.57,74.13,3
73,73.56,74.11,3
74,73.57,74.11,3
74,73.58,74.11,3
74,73.59,74.11,3
74,73.60,74.11,3
73,73.58,74.10,3
74,73.59,74.10,3
74,73.60,74.10,3
76,73.65,74.12,3
74,73.66,74.11,3
76,73.70,74.13,3
74,73.71,74.13,3
74,73.71,74.13,3
73,73.70,74.12,3
73,73.69,74.11,3
72,73.65,74.09,3
75,73.68,74.10,3
74,73.69,74.10,3
77,73.75,74.12,3
74,73.76,74.12,3
74,73.76,74.12,3
76,73.81,74.14,3
73,73.79,74.13,3
74,73.79,74.13,3
74,73.80,74.13,3
74,73.80,74.13,3
73,73.79,74.11,3
73,73.77,74.10,3
73,73.76,74.09,3
73,73.74,74.08,3
72,73.71,74.06,3
73,73.69,74.05,3
73,73.68,74.04,3
74,73.68,74.04,3
75,73.71,74.05,3
74,73.72,74.05,3
76,73.76,74.07,3
76,73.81,74.09,3
76,73.85,74.11,3
74,73.85,74.10,3
78,73.94,74.14,3
79,74.04,74.19,3
76,74.08,74.21,3
78,74.16,74.25,3
76,74.19,74.27,3
75,74.21,74.27,3
76,74.24,74.29,3
76,74.28,74.31,3
79,74.37,74.35,3
78,74.45,74.39,3
75,74.46,74.40,3
76,74.49,74.41,3
76,74.52,74.43,3
75,74.53,74.43,3
74,74.52,74.43,3
74,74.51,74.43,3
76,74.54,74.44,3
79,74.63,74.49,3
74,74.61,74.48,3
76,74.64,74.50,3
76,74.67,74.51,3
75,74.68,74.52,3
76,74.70,74.53,3
76,74.73,74.55,3
76,74.75,74.56,3
75,74.76,74.57,3
78,74.82,74.60,3
76,74.85,74.61,3
75,74.85,74.62,3
76,74.87,74.63,3
76,74.90,74.65,3
76,74.92,74.66,3
77,74.96,74.68,3
75,74.96,74.69,3
78,75.02,74.72,3
76,75.04,74.73,3
75,75.04,74.73,3
74,75.02,74.73,3
74,75.00,74.72,3
76,75.02,74.73,3
75,75.02,74.74,3
78,75.08,74.77,3
78,75.14,74.80,3
78,75.19,74.83,3
76,75.21,74.84,3
78,75.27,74.88,3
78,75.32,74.91,3
76,75.33,74.92,3
79,75.41,74.96,3
78,75.46,74.99,3
78,75.51,75.02,3
77,75.54,75.04,3
78,75.59,75.07,3
76,75.60,75.08,3
77,75.62,75.10,3
76,75.63,75.11,3
77,75.66,75.12,3
78,75.71,75.15,3
76,75.71,75.16,3
78,75.76,75.19,3
79,75.82,75.23,3
82,75.95,75.30,3
78,75.99,75.32,3
76,75.99,75.33,3
79,76.05,75.37,3
85,76.23,75.46,3
81,76.32,75.52,3
80,76.40,75.56,3
79,76.45,75.60,3
82,76.56,75.66,3
84,76.71,75.75,3
84,76.85,75.83,3
79,76.90,75.86,3
80,76.96,75.90,3
80,77.02,75.94,3
80,77.08,75.98,3
83,77.20,76.05,3
84,77.33,76.13,3
84,77.47,76.21,3
84,77.60,76.29,3
86,77.77,76.39,3
83,77.87,76.45,3
86,78.03,76.55,3
86,78.19,76.64,3
92,78.47,76.80,3
93,78.76,76.96,3
84,78.86,77.03,3
88,79.05,77.14,3
90,79.27,77.27,3
90,79.48,77.39,3
88,79.65,77.50,3
86,79.78,77.58,3
87,79.92,77.68,3
86,80.04,77.76,3
86,80.16,77.84,3
86,80.28,77.93,3
86,80.39,78.01,3
87,80.53,78.10,3
91,80.74,78.23,3
90,80.92,78.34,3
89,81.08,78.45,3
89,81.24,78.56,3
88,81.38,78.65,3
90,81.55,78.76,3
90,81.72,78.88,3
88,81.84,78.97,3
90,82.01,79.08,3
88,82.13,79.17,3
88,82.24,79.25,3
87,82.34,79.33,3
86,82.41,79.40,3
89,82.54,79.50,3
96,82.81,79.66,3
96,83.08,79.82,3
94,83.30,79.97,3
90,83.43,80.07,3
90,83.56,80.17,3
96,83.81,80.32,3
100,84.13,80.52,3
101,84.47,80.72,3
99,84.76,80.91,3
93,84.93,81.03,3
93,85.09,81.15,3
93,85.25,81.27,3
93,85.40,81.38,3
93,85.55,81.50,3
91,85.66,81.60,3
93,85.81,81.71,3
95,85.99,81.84,3
94,86.15,81.96,3
92,86.27,82.06,3
97,86.48,82.21,3
95,86.65,82.34,3
98,86.88,82.50,3
98,87.10,82.65,3
98,87.32,82.81,3
98,87.54,82.96,3
98,87.74,83.11,3
96,87.91,83.24,3
100,88.15,83.41,3
98,88.35,83.55,3
96,88.50,83.68,3
96,88.65,83.80,3
99,88.86,83.95,3
99,89.06,84.10,3
100,89.28,84.26,3
103,89.55,84.45,3
106,89.88,84.66,3
102,90.13,84.84,3
99,90.30,84.98,3
98,90.46,85.11,3
100,90.65,85.26,3
101,90.85,85.42,3
100,91.04,85.56,3
101,91.24,85.72,3
101,91.43,85.87,3
100,91.60,86.01,3
97,91.71,86.12,3
96,91.80,86.22,3
100,91.96,86.36,3
98,92.08,86.47,3
98,92.20,86.59,3
98,92.32,86.70,3
97,92.41,86.80,3
107,92.70,87.01,3
103,92.91,87.17,3
101,93.07,87.31,3
107,93.35,87.50,3
112,93.72,87.75,3
109,94.03,87.96,3
106,94.27,88.14,3
111,94.60,88.37,3
113,94.97,88.61,3
115,95.37,88.88,3
108,95.62,89.07,3
112,95.95,89.30,3
115,96.33,89.56,3
116,96.72,89.82,3
109,96.97,90.01,3
113,97.29,90.24,3
112,97.58,90.46,3
114,97.91,90.70,3
113,98.21,90.92,3
118,98.61,91.19,3
115,98.94,91.43,3
113,99.22,91.64,3
112,99.48,91.85,3
116,99.81,92.09,3
117,100.15,92.34,3
117,100.49,92.58,3
121,100.90,92.87,3
117,101.22,93.11,3
123,101.65,93.41,3
115,101.92,93.62,3
115,102.18,93.84,3
114,102.42,94.04,3
116,102.69,94.26,3
118,103.00,94.50,3
114,103.22,94.69,3
115,103.45,94.89,3
114,103.66,95.09,3
116,103.91,95.29,3
114,104.11,95.48,3
116,104.35,95.69,3
129,104.84,96.02,3
130,105.35,96.36,3
118,105.60,96.58,3
119,105.87,96.80,3
116,106.07,96.99,3
118,106.31,97.20,3
116,106.50,97.39,3
118,106.73,97.60,3
116,106.92,97.78,3
124,107.26,98.04,3
128,107.67,98.34,3
127,108.06,98.63,3
124,108.38,98.88,3
128,108.77,99.17,3
128,109.16,99.46,3
124,109.45,99.71,3
122,109.70,99.93,3
125,110.01,100.18,3
122,110.25,100.40,3
123,110.50,100.63,3
123,110.75,100.85,3
121,110.96,101.05,3
126,111.26,101.30,3
125,111.54,101.54,3
124,111.78,101.76,3
126,112.07,102.00,3
128,112.39,102.26,3
124,112.62,102.48,3
131,112.99,102.77,3
135,113.43,103.09,3
133,113.82,103.39,3
131,114.16,103.66,3
128,114.44,103.91,3
127,114.69,104.14,3
131,115.02,104.41,3
143,115.58,104.79,3
141,116.09,105.16,3
136,116.48,105.46,3
135,116.85,105.76,3
143,117.38,106.13,3
135,117.73,106.42,3
136,118.09,106.72,3
140,118.53,107.05,3
141,118.98,107.39,3
137,119.34,107.68,3
153,120.02,108.14,3
150,120.62,108.56,3
143,121.06,108.90,3
146,121.56,109.27,3
146,122.05,109.64,3
149,122.59,110.03,3
141,122.96,110.34,3
150,123.50,110.74,3
151,124.05,111.14,3
145,124.47,111.48,3
145,124.88,111.82,3
153,125.44,112.23,3
151,125.95,112.61,3
153,126.49,113.02,3
149,126.94,113.38,3
153,127.46,113.77,3
149,127.89,114.13,3
151,128.36,114.50,3
150,128.79,114.85,3
147,129.15,115.17,3
151,129.59,115.53,3
153,130.06,115.91,3
153,130.52,116.28,3
157,131.05,116.68,3
155,131.53,117.07,3
161,132.12,117.51,3
159,132.65,117.92,3
164,133.28,118.38,3
168,133.98,118.88,3
173,134.76,119.42,3
157,135.20,119.79,3
172,135.94,120.32,3
169,136.60,120.80,3
174,137.35,121.34,3
170,138.00,121.82,3
165,138.54,122.25,3
168,139.13,122.71,3
167,139.69,123.15,3
165,140.19,123.57,3
164,140.67,123.98,3
169,141.23,124.43,3
166,141.73,124.84,3
165,142.20,125.24,3
165,142.65,125.64,3
164,143.08,126.03,3
165,143.52,126.42,3
165,143.95,126.80,3
177,144.61,127.30,3
173,145.18,127.76,3
168,145.63,128.16,3
179,146.30,128.67,3
176,146.89,129.14,3
172,147.40,129.57,3
171,147.87,129.99,3
177,148.45,130.46,3
177,149.02,130.92,3
175,149.54,131.36,3
181,150.17,131.86,3
178,150.73,132.32,3
172,151.15,132.72,3
182,151.77,133.21,3
190,152.53,133.78,3
186,153.20,134.30,3
181,153.76,134.77,3
179,154.26,135.21,3
192,155.02,135.78,3
191,155.74,136.33,3
182,156.26,136.79,3
183,156.80,137.25,3
181,157.28,137.69,3
185,157.84,138.16,3
184,158.36,138.62,3
188,158.95,139.11,3
187,159.51,139.59,3
187,160.06,140.07,3
194,160.74,140.60,3
188,161.29,141.08,3
184,161.74,141.51,3
189,162.29,141.98,3
189,162.82,142.45,3
193,163.42,142.96,3
194,164.04,143.47,3
187,164.50,143.90,3
196,165.13,144.42,3
191,165.64,144.89,3
187,166.07,145.31,3
199,166.73,145.85,3
193,167.25,146.32,3
190,167.71,146.76,3
197,168.29,147.26,3
194,168.81,147.73,3
192,169.27,148.17,3
193,169.75,148.62,3
193,170.21,149.06,3
190,170.61,149.47,3
189,170.98,149.87,3
191,171.38,150.28,3
193,171.81,150.70,3
193,172.23,151.13,3
193,172.65,151.55,3
191,173.02,151.94,3
197,173.49,152.39,3
197,173.96,152.84,3
195,174.39,153.26,3
194,174.78,153.67,3
190,175.08,154.03,3
195,175.48,154.44,3
197,175.91,154.87,3
193,176.25,155.25,3
192,176.57,155.61,3
193,176.90,155.99,3
192,177.20,156.35,3
192,177.49,156.70,3
192,177.78,157.06,3
194,178.11,157.43,3
191,178.37,157.76,3
195,178.70,158.14,3
193,178.99,158.48,3
192,179.25,158.82,3
192,179.50,159.15,3
195,179.81,159.51,3
192,180.05,159.83,3
193,180.31,160.17,3
191,180.53,160.47,3
191,180.74,160.78,3
190,180.92,161.07,3
191,181.12,161.37,3
189,181.28,161.65,3
190,181.46,161.93,3
189,181.61,162.20,3
189,181.75,162.47,3
188,181.88,162.72,3
187,181.98,162.97,3
189,182.12,163.23,3
189,182.26,163.49,3
189,182.39,163.74,3
189,182.53,163.99,3
189,182.66,164.24,3
188,182.76,164.48,3
187,182.85,164.71,3
187,182.93,164.93,3
189,183.05,165.17,3
187,183.13,165.39,3
187,183.21,165.60,3
185,183.24,165.80,3
185,183.28,165.99,3
186,183.33,166.19,3
185,183.37,166.38,3
185,183.40,166.56,3
185,183.43,166.75,3
185,183.46,166.93,3
185,183.49,167.11,3
187,183.56,167.31,3
183,183.55,167.47,3
184,183.56,167.63,3
183,183.55,167.79,3
184,183.56,167.95,3
183,183.55,168.10,3
183,183.54,168.25,3
183,183.53,168.40,3
182,183.50,168.53,3
182,183.47,168.67,3
182,183.44,168.80,3
181,183.39,168.92,3
181,183.34,169.04,3
180,183.27,169.15,3
181,183.23,169.27,3
181,183.18,169.39,3
179,183.10,169.48,3
180,183.04,169.59,3
179,182.96,169.68,3
180,182.90,169.79,3
178,182.80,169.87,3
179,182.72,169.96,3
177,182.61,170.03,3
177,182.50,170.10,3
177,182.39,170.17,3
177,182.28,170.24,3
177,182.17,170.31,3
176,182.05,170.36,3
176,181.93,170.42,3
175,181.79,170.46,3
175,181.66,170.51,3
175,181.52,170.55,3
175,181.39,170.60,3
175,181.26,170.64,3
174,181.12,170.68,3
174,180.98,170.71,3
174,180.84,170.74,3
173,180.68,170.77,3
173,180.53,170.79,3
173,180.38,170.81,3
173,180.23,170.83,3
173,180.08,170.85,3
172,179.92,170.87,3
172,179.76,170.88,3
171,179.59,170.88,3
171,179.42,170.88,3
171,179.25,170.88,3
171,179.08,170.88,3
171,178.92,170.88,3
170,178.74,170.87,3
170,178.57,170.86,3
169,178.38,170.85,3
169,178.19,170.83,3
172,178.07,170.84,3
169,177.88,170.82,3
169,177.71,170.80,3
168,177.51,170.77,3
167,177.30,170.74,3
169,177.14,170.72,3
167,176.93,170.68,3
167,176.73,170.65,3
