Teste de posicionamento 4(EMG tendao-inervacao (Vermelho A, Verde C) + Ref no cotovelo) - 19/10/2024 - teste9 - 5 contrações
long frequencia = 1000;                 //frequência de aquisição do sinal, neste caso, 1000 sinais por segundo
float fator1 = 0.02, fator2 = 0.01;
float incerteza = 0.13;
float pico_basal = 130; // Mínimo para ser considerado um pico de contração
int filtro_horizontal=200000; //intervalo de 200ms valores não pode ter mais de 1 contração

Biceps_D,mediaMovel_1,mediaMovel_2,Contracao
41,0.82,0.41,0
39,1.58,0.80,0
41,2.37,1.20,0
43,3.18,1.62,0
41,3.94,2.01,0
40,4.66,2.39,0
41,5.39,2.78,0
39,6.06,3.14,0
42,6.78,3.53,0
40,7.44,3.89,0
38,8.06,4.23,0
41,8.71,4.60,0
38,9.30,4.93,0
41,9.93,5.29,0
39,10.52,5.63,0
39,11.08,5.97,0
40,11.66,6.31,0
40,12.23,6.64,0
39,12.77,6.97,0
40,13.31,7.30,0
42,13.88,7.64,0
39,14.39,7.96,0
39,14.88,8.27,0
40,15.38,8.59,0
40,15.87,8.90,0
40,16.36,9.21,0
39,16.81,9.51,0
39,17.25,9.80,0
39,17.69,10.10,0
39,18.11,10.38,0
39,18.53,10.67,0
39,18.94,10.95,0
43,19.42,11.27,0
41,19.85,11.57,0
38,20.22,11.84,0
40,20.61,12.12,0
39,20.98,12.39,0
40,21.36,12.66,0
40,21.73,12.94,0
39,22.08,13.20,0
42,22.48,13.48,0
40,22.83,13.75,0
40,23.17,14.01,0
39,23.49,14.26,0
42,23.86,14.54,0
39,24.16,14.78,0
39,24.46,15.03,0
39,24.75,15.27,0
37,24.99,15.48,0
39,25.27,15.72,0
39,25.55,15.95,0
39,25.82,16.18,0
41,26.12,16.43,0
39,26.38,16.66,0
40,26.65,16.89,0
39,26.90,17.11,0
40,27.16,17.34,0
39,27.40,17.56,0
38,27.61,17.76,0
38,27.82,17.96,0
39,28.04,18.17,0
38,28.24,18.37,0
38,28.43,18.57,0
38,28.63,18.76,0
39,28.83,18.96,0
39,29.04,19.16,0
38,29.22,19.35,0
38,29.39,19.54,0
40,29.60,19.74,0
39,29.79,19.94,0
38,29.96,20.12,0
38,30.12,20.30,0
39,30.29,20.48,0
39,30.47,20.67,0
38,30.62,20.84,0
38,30.77,21.01,0
40,30.95,21.20,0
38,31.09,21.37,0
37,31.21,21.53,0
39,31.37,21.70,0
39,31.52,21.87,0
40,31.69,22.06,0
38,31.81,22.22,0
38,31.94,22.37,0
40,32.10,22.55,0
40,32.26,22.72,0
38,32.37,22.88,0
40,32.53,23.05,0
39,32.65,23.21,0
38,32.76,23.36,0
38,32.87,23.50,0
38,32.97,23.65,0
39,33.09,23.80,0
38,33.19,23.94,0
38,33.28,24.08,0
38,33.38,24.22,0
40,33.51,24.38,0
38,33.60,24.52,0
40,33.73,24.67,0
39,33.83,24.81,0
38,33.92,24.95,0
38,34.00,25.08,0
38,34.08,25.21,0
38,34.16,25.33,0
38,34.23,25.46,0
38,34.31,25.59,0
40,34.42,25.73,0
38,34.49,25.85,0
39,34.59,25.98,0
38,34.65,26.10,0
38,34.72,26.22,0
39,34.81,26.35,0
39,34.89,26.48,0
38,34.95,26.59,0
38,35.01,26.71,0
38,35.07,26.82,0
39,35.15,26.94,0
38,35.21,27.05,0
38,35.26,27.16,0
39,35.34,27.28,0
38,35.39,27.39,0
39,35.46,27.50,0
38,35.51,27.61,0
38,35.56,27.71,0
39,35.63,27.83,0
38,35.68,27.93,0
39,35.75,28.04,0
38,35.79,28.14,0
38,35.84,28.24,0
40,35.92,28.35,0
38,35.96,28.45,0
39,36.02,28.56,0
38,36.06,28.65,0
40,36.14,28.76,0
38,36.18,28.86,0
38,36.21,28.95,0
38,36.25,29.04,0
38,36.28,29.13,0
38,36.32,29.22,0
38,36.35,29.30,0
39,36.41,29.40,0
38,36.44,29.49,0
38,36.47,29.57,0
38,36.50,29.66,0
40,36.57,29.76,0
38,36.60,29.84,0
38,36.63,29.92,0
42,36.73,30.04,0
37,36.74,30.11,0
37,36.74,30.18,0
38,36.77,30.26,0
38,36.79,30.34,0
39,36.84,30.43,0
38,36.86,30.50,0
38,36.88,30.58,0
38,36.91,30.65,0
39,36.95,30.73,0
38,36.97,30.81,0
38,36.99,30.88,0
38,37.01,30.95,0
39,37.05,31.03,0
38,37.07,31.10,0
38,37.09,31.17,0
37,37.09,31.23,0
38,37.10,31.29,0
38,37.12,31.36,0
38,37.14,31.43,0
38,37.16,31.49,0
38,37.17,31.56,0
38,37.19,31.62,0
38,37.21,31.69,0
38,37.22,31.75,0
39,37.26,31.82,0
39,37.29,31.89,0
38,37.31,31.96,0
38,37.32,32.02,0
38,37.33,32.08,0
40,37.39,32.16,0
38,37.40,32.21,0
38,37.41,32.27,0
39,37.44,32.34,0
39,37.47,32.41,0
38,37.49,32.46,0
38,37.50,32.52,0
38,37.51,32.57,0
38,37.52,32.63,0
38,37.53,32.68,0
40,37.57,32.75,0
40,37.62,32.83,0
38,37.63,32.88,0
38,37.64,32.93,0
38,37.65,32.98,0
39,37.67,33.04,0
38,37.68,33.09,0
40,37.73,33.16,0
40,37.77,33.23,0
39,37.80,33.28,0
40,37.84,33.35,0
38,37.84,33.40,0
40,37.89,33.46,0
39,37.91,33.52,0
39,37.93,33.57,0
39,37.95,33.63,0
39,37.97,33.68,0
38,37.97,33.72,0
38,37.97,33.77,0
38,37.97,33.81,0
39,37.99,33.86,0
38,37.99,33.90,0
39,38.01,33.95,0
40,38.05,34.01,0
39,38.07,34.06,0
39,38.09,34.11,0
40,38.13,34.17,0
38,38.13,34.21,0
39,38.14,34.26,0
39,38.16,34.31,0
40,38.20,34.36,0
38,38.19,34.40,0
39,38.21,34.45,0
38,38.21,34.48,0
39,38.22,34.53,0
38,38.22,34.56,0
39,38.23,34.61,0
38,38.23,34.64,0
38,38.22,34.67,0
38,38.22,34.71,0
38,38.22,34.74,0
39,38.23,34.78,0
39,38.25,34.82,0
38,38.24,34.86,0
38,38.24,34.89,0
40,38.27,34.94,0
38,38.27,34.97,0
38,38.26,35.00,0
38,38.26,35.03,0
39,38.27,35.07,0
38,38.27,35.10,0
38,38.26,35.13,0
38,38.26,35.16,0
37,38.23,35.17,0
38,38.23,35.20,0
38,38.22,35.23,0
38,38.22,35.26,0
39,38.23,35.30,0
38,38.23,35.32,0
38,38.22,35.35,0
38,38.22,35.38,0
39,38.23,35.41,0
37,38.21,35.43,0
39,38.23,35.46,0
38,38.22,35.49,0
39,38.24,35.52,0
38,38.23,35.55,0
38,38.23,35.57,0
38,38.22,35.60,0
38,38.22,35.62,0
38,38.21,35.65,0
38,38.21,35.67,0
38,38.21,35.69,0
38,38.20,35.72,0
38,38.20,35.74,0
42,38.27,35.80,0
38,38.27,35.82,0
39,38.28,35.85,0
38,38.28,35.88,0
38,38.27,35.90,0
38,38.27,35.92,0
39,38.28,35.95,0
39,38.29,35.98,0
38,38.29,36.00,0
38,38.28,36.02,0
39,38.30,36.05,0
39,38.31,36.08,0
38,38.31,36.10,0
40,38.34,36.14,0
39,38.35,36.17,0
38,38.35,36.18,0
36,38.30,36.18,0
38,38.29,36.20,0
38,38.29,36.22,0
38,38.28,36.24,0
40,38.32,36.27,0
39,38.33,36.30,0
42,38.40,36.36,0
40,38.43,36.40,0
38,38.43,36.41,0
39,38.44,36.44,0
40,38.47,36.47,0
40,38.50,36.51,0
39,38.51,36.53,0
39,38.52,36.56,0
39,38.53,36.58,0
40,38.56,36.62,0
40,38.59,36.65,0
39,38.59,36.67,0
40,38.62,36.71,0
39,38.63,36.73,0
40,38.66,36.76,0
39,38.66,36.78,0
38,38.65,36.80,0
39,38.66,36.82,0
40,38.69,36.85,0
39,38.69,36.87,0
39,38.70,36.89,0
38,38.68,36.90,0
40,38.71,36.94,0
39,38.72,36.96,0
39,38.72,36.98,0
41,38.77,37.02,0
40,38.79,37.05,0
39,38.80,37.07,0
39,38.80,37.09,0
40,38.82,37.11,0
40,38.85,37.14,0
39,38.85,37.16,0
39,38.85,37.18,0
40,38.88,37.21,0
39,38.88,37.23,0
40,38.90,37.25,0
39,38.90,37.27,0
40,38.93,37.30,0
39,38.93,37.32,0
40,38.95,37.34,0
41,38.99,37.38,0
40,39.01,37.41,0
40,39.03,37.43,0
40,39.05,37.46,0
41,39.09,37.49,0
40,39.11,37.52,0
40,39.12,37.54,0
40,39.14,37.57,0
40,39.16,37.59,0
40,39.18,37.62,0
40,39.19,37.64,0
40,39.21,37.66,0
40,39.22,37.69,0
42,39.28,37.73,0
40,39.29,37.75,0
40,39.31,37.77,0
40,39.32,37.80,0
41,39.36,37.83,0
40,39.37,37.85,0
40,39.38,37.87,0
41,39.41,37.90,0
42,39.47,37.94,0
42,39.52,37.99,0
42,39.57,38.03,0
44,39.65,38.08,0
42,39.70,38.12,0
42,39.75,38.16,0
42,39.79,38.20,0
42,39.84,38.24,0
42,39.88,38.28,0
42,39.92,38.31,0
42,39.96,38.35,0
42,40.00,38.39,0
43,40.06,38.43,0
42,40.10,38.47,0
42,40.14,38.50,0
42,40.18,38.54,0
42,40.21,38.57,0
42,40.25,38.61,0
44,40.33,38.66,0
43,40.38,38.71,0
42,40.41,38.74,0
42,40.44,38.77,0
42,40.47,38.80,0
43,40.52,38.85,0
42,40.55,38.88,0
42,40.58,38.91,0
42,40.61,38.94,0
42,40.64,38.97,0
42,40.67,39.00,0
44,40.73,39.05,0
42,40.76,39.08,0
42,40.78,39.11,0
42,40.81,39.14,0
42,40.83,39.17,0
44,40.89,39.21,0
44,40.96,39.26,0
42,40.98,39.29,0
42,41.00,39.32,0
44,41.06,39.36,0
42,41.08,39.39,0
46,41.18,39.46,0
44,41.23,39.50,0
43,41.27,39.54,0
43,41.30,39.57,0
46,41.40,39.64,0
42,41.41,39.66,0
44,41.46,39.70,0
43,41.49,39.74,0
43,41.52,39.77,0
44,41.57,39.81,0
44,41.62,39.85,0
45,41.69,39.90,0
44,41.73,39.94,0
44,41.78,39.99,0
44,41.82,40.03,0
46,41.91,40.09,0
44,41.95,40.12,0
44,41.99,40.16,0
45,42.05,40.21,0
44,42.09,40.25,0
45,42.15,40.30,0
45,42.20,40.34,0
46,42.28,40.40,0
47,42.37,40.47,0
45,42.43,40.51,0
44,42.46,40.55,0
44,42.49,40.58,0
44,42.52,40.62,0
45,42.57,40.66,0
44,42.60,40.69,0
44,42.63,40.73,0
45,42.67,40.77,0
44,42.70,40.80,0
44,42.73,40.83,0
44,42.75,40.86,0
45,42.80,40.91,0
45,42.84,40.95,0
44,42.86,40.98,0
45,42.91,41.02,0
45,42.95,41.06,0
44,42.97,41.09,0
44,42.99,41.12,0
44,43.01,41.14,0
45,43.05,41.18,0
45,43.09,41.22,0
44,43.11,41.25,0
44,43.12,41.28,0
45,43.16,41.31,0
46,43.22,41.36,0
44,43.23,41.39,0
44,43.25,41.41,0
45,43.28,41.45,0
44,43.30,41.47,0
44,43.31,41.50,0
44,43.33,41.53,0
45,43.36,41.56,0
45,43.39,41.59,0
44,43.41,41.62,0
44,43.42,41.64,0
46,43.47,41.69,0
46,43.52,41.73,0
46,43.57,41.77,0
46,43.62,41.81,0
46,43.67,41.86,0
46,43.71,41.90,0
46,43.76,41.94,0
46,43.80,41.98,0
48,43.89,42.04,0
46,43.93,42.08,0
46,43.97,42.12,0
46,44.01,42.16,0
47,44.07,42.21,0
46,44.11,42.24,0
46,44.15,42.28,0
47,44.20,42.33,0
46,44.24,42.36,0
46,44.28,42.40,0
47,44.33,42.45,0
46,44.36,42.48,0
46,44.40,42.52,0
46,44.43,42.55,0
46,44.46,42.59,0
46,44.49,42.62,0
46,44.52,42.65,0
46,44.55,42.69,0
46,44.58,42.72,0
47,44.63,42.76,0
46,44.65,42.80,0
46,44.68,42.83,0
47,44.73,42.87,0
47,44.77,42.91,0
46,44.80,42.94,0
50,44.90,43.01,0
46,44.92,43.04,0
46,44.95,43.07,0
46,44.97,43.10,0
48,45.03,43.15,0
46,45.05,43.18,0
47,45.09,43.22,0
47,45.12,43.26,0
48,45.18,43.30,0
46,45.20,43.33,0
46,45.21,43.36,0
47,45.25,43.39,0
49,45.32,43.45,0
48,45.38,43.49,0
47,45.41,43.53,0
48,45.46,43.57,0
47,45.49,43.61,0
48,45.54,43.65,0
47,45.57,43.69,0
47,45.60,43.72,0
49,45.67,43.77,0
48,45.72,43.81,0
47,45.74,43.85,0
52,45.87,43.93,0
49,45.93,43.98,0
49,45.99,44.03,0
50,46.07,44.09,0
49,46.13,44.14,0
50,46.21,44.20,0
50,46.28,44.25,0
50,46.36,44.31,0
52,46.47,44.39,0
50,46.54,44.44,0
50,46.61,44.50,0
49,46.66,44.54,0
49,46.70,44.59,0
50,46.77,44.64,0
50,46.83,44.70,0
50,46.90,44.75,0
48,46.92,44.78,0
51,47.00,44.84,0
50,47.06,44.90,0
51,47.14,44.96,0
52,47.24,45.03,0
51,47.31,45.09,0
52,47.41,45.16,0
52,47.50,45.23,0
52,47.59,45.29,0
52,47.68,45.36,0
52,47.76,45.43,0
52,47.85,45.49,0
53,47.95,45.57,0
51,48.01,45.62,0
52,48.09,45.69,0
52,48.17,45.75,0
53,48.27,45.82,0
52,48.34,45.88,0
52,48.41,45.94,0
52,48.49,46.00,0
53,48.58,46.07,0
54,48.68,46.15,0
54,48.79,46.23,0
54,48.90,46.31,0
54,49.00,46.39,0
54,49.10,46.46,0
54,49.20,46.54,0
54,49.29,46.61,0
54,49.39,46.69,0
54,49.48,46.76,0
54,49.57,46.83,0
54,49.66,46.90,0
55,49.76,46.98,0
54,49.85,47.06,0
54,49.93,47.12,0
54,50.01,47.19,0
54,50.09,47.26,0
56,50.21,47.35,0
58,50.37,47.46,0
59,50.54,47.57,0
58,50.69,47.67,0
56,50.79,47.76,0
58,50.94,47.86,0
58,51.08,47.96,0
61,51.28,48.09,0
62,51.49,48.23,0
60,51.66,48.35,0
61,51.85,48.48,0
62,52.05,48.61,0
63,52.27,48.75,0
62,52.47,48.89,0
62,52.66,49.02,0
62,52.84,49.15,0
64,53.07,49.30,0
66,53.33,49.46,0
65,53.56,49.62,0
64,53.77,49.76,0
65,53.99,49.92,0
66,54.23,50.08,0
67,54.49,50.25,0
67,54.74,50.41,0
69,55.02,50.60,0
66,55.24,50.75,0
66,55.46,50.91,0
67,55.69,51.07,0
67,55.92,51.23,0
68,56.16,51.39,0
66,56.35,51.54,0
70,56.63,51.72,0
68,56.85,51.89,0
66,57.04,52.03,0
68,57.26,52.19,0
66,57.43,52.33,0
67,57.62,52.47,0
67,57.81,52.62,0
68,58.01,52.77,0
69,58.23,52.93,0
69,58.45,53.09,0
68,58.64,53.24,0
70,58.87,53.41,0
69,59.07,53.57,0
70,59.29,53.73,0
70,59.50,53.89,0
71,59.73,54.07,0
72,59.98,54.24,0
75,60.28,54.45,0
72,60.51,54.63,0
72,60.74,54.80,0
73,60.99,54.98,0
72,61.21,55.15,0
72,61.42,55.32,0
74,61.68,55.51,0
75,61.94,55.70,0
74,62.18,55.89,0
74,62.42,56.07,0
74,62.65,56.25,0
73,62.86,56.41,0
73,63.06,56.58,0
74,63.28,56.75,0
74,63.49,56.93,0
75,63.72,57.11,0
74,63.93,57.28,0
74,64.13,57.44,0
76,64.37,57.63,0
77,64.62,57.82,0
76,64.85,58.00,0
76,65.07,58.18,0
76,65.29,58.36,0
77,65.52,58.55,0
78,65.77,58.74,0
78,66.02,58.94,0
76,66.22,59.11,0
77,66.43,59.29,0
78,66.67,59.47,0
78,66.89,59.66,0
78,67.11,59.84,0
78,67.33,60.02,0
78,67.55,60.20,0
78,67.75,60.38,0
78,67.96,60.56,0
79,68.18,60.74,0
78,68.38,60.91,0
78,68.57,61.09,0
78,68.76,61.25,0
79,68.96,61.43,0
80,69.18,61.62,0
79,69.38,61.79,0
79,69.57,61.96,0
79,69.76,62.13,0
81,69.99,62.32,0
82,70.23,62.52,0
82,70.46,62.71,0
82,70.69,62.91,0
84,70.96,63.12,0
84,71.22,63.33,0
84,71.47,63.53,0
85,71.74,63.75,0
84,71.99,63.95,0
84,72.23,64.15,0
85,72.49,64.36,0
84,72.72,64.56,0
86,72.98,64.77,0
86,73.24,64.98,0
86,73.50,65.19,0
86,73.75,65.40,0
88,74.03,65.63,0
86,74.27,65.83,0
85,74.49,66.02,0
86,74.72,66.22,0
88,74.98,66.44,0
86,75.20,66.64,0
86,75.42,66.83,0
87,75.65,67.03,0
90,75.94,67.26,0
86,76.14,67.45,0
87,76.36,67.64,0
86,76.55,67.83,0
88,76.78,68.03,0
88,77.00,68.23,0
88,77.22,68.43,0
88,77.44,68.62,0
89,77.67,68.83,0
89,77.90,69.03,0
91,78.16,69.25,0
91,78.41,69.46,0
90,78.65,69.67,0
90,78.87,69.87,0
92,79.14,70.09,0
94,79.43,70.33,0
93,79.70,70.56,0
93,79.97,70.78,0
93,80.23,71.01,0
94,80.51,71.24,0
92,80.74,71.44,0
92,80.96,71.65,0
92,81.18,71.85,0
93,81.42,72.06,0
94,81.67,72.28,0
94,81.92,72.50,0
92,82.12,72.70,0
93,82.34,72.90,0
93,82.55,73.10,0
94,82.78,73.31,0
96,83.04,73.54,0
95,83.28,73.75,0
94,83.50,73.95,0
94,83.71,74.15,0
94,83.91,74.35,0
95,84.13,74.56,0
95,84.35,74.76,0
96,84.58,74.98,0
96,84.81,75.19,0
95,85.02,75.38,0
97,85.26,75.60,0
96,85.47,75.80,0
96,85.68,76.01,0
95,85.87,76.20,0
98,86.11,76.41,0
98,86.35,76.63,0
97,86.56,76.83,0
95,86.73,77.02,0
98,86.96,77.23,0
98,87.18,77.43,0
98,87.39,77.64,0
100,87.64,77.86,0
99,87.87,78.07,0
99,88.09,78.28,0
99,88.31,78.49,0
98,88.51,78.69,0
98,88.70,78.88,0
100,88.92,79.09,0
98,89.10,79.28,0
98,89.28,79.47,0
98,89.46,79.65,0
98,89.63,79.83,0
99,89.81,80.03,0
98,89.98,80.21,0
98,90.14,80.38,0
98,90.30,80.56,0
97,90.43,80.72,0
97,90.56,80.89,0
98,90.71,81.06,0
98,90.86,81.23,0
99,91.02,81.41,0
98,91.16,81.57,0
98,91.30,81.74,0
98,91.43,81.90,0
97,91.54,82.05,0
98,91.67,82.21,0
98,91.80,82.37,0
98,91.92,82.52,0
98,92.04,82.68,0
98,92.16,82.83,0
98,92.28,82.98,0
98,92.39,83.13,0
95,92.44,83.25,0
97,92.54,83.39,0
98,92.65,83.54,0
98,92.75,83.68,0
97,92.84,83.81,0
98,92.94,83.96,0
98,93.04,84.10,0
98,93.14,84.23,0
98,93.24,84.37,0
98,93.33,84.51,0
98,93.43,84.64,0
100,93.56,84.80,0
98,93.65,84.93,0
100,93.77,85.08,0
98,93.86,85.21,0
99,93.96,85.35,0
97,94.02,85.46,0
98,94.10,85.59,0
98,94.18,85.71,0
97,94.24,85.83,0
98,94.31,85.95,0
97,94.37,86.06,0
98,94.44,86.18,0
97,94.49,86.29,0
98,94.56,86.40,0
98,94.63,86.52,0
98,94.70,86.63,0
99,94.78,86.76,0
98,94.85,86.87,0
98,94.91,86.98,0
98,94.97,87.09,0
98,95.03,87.20,0
98,95.09,87.31,0
98,95.15,87.42,0
98,95.21,87.52,0
98,95.26,87.63,0
98,95.32,87.73,0
98,95.37,87.83,0
96,95.38,87.91,0
95,95.38,87.98,0
97,95.41,88.08,0
96,95.42,88.15,0
98,95.47,88.25,0
98,95.52,88.35,0
96,95.53,88.43,0
96,95.54,88.50,0
96,95.55,88.58,0
95,95.54,88.64,0
96,95.55,88.72,0
96,95.56,88.79,0
98,95.61,88.88,0
95,95.59,88.94,0
96,95.60,89.01,0
96,95.61,89.08,0
96,95.62,89.15,0
97,95.65,89.23,0
96,95.65,89.30,0
96,95.66,89.36,0
96,95.67,89.43,0
100,95.75,89.54,0
95,95.74,89.59,0
96,95.74,89.66,0
96,95.75,89.72,0
96,95.75,89.78,0
95,95.74,89.83,0
95,95.72,89.89,0
96,95.73,89.95,0
96,95.73,90.01,0
96,95.74,90.07,0
95,95.73,90.12,0
95,95.71,90.16,0
94,95.68,90.20,0
95,95.66,90.25,0
95,95.65,90.30,0
94,95.62,90.34,0
98,95.66,90.41,0
95,95.65,90.46,0
95,95.64,90.50,0
94,95.61,90.54,0
94,95.57,90.57,0
96,95.58,90.63,0
95,95.57,90.67,0
94,95.54,90.70,0
94,95.51,90.74,0
95,95.50,90.78,0
94,95.47,90.81,0
94,95.44,90.84,0
94,95.41,90.88,0
93,95.36,90.90,0
94,95.33,90.93,0
94,95.31,90.96,0
91,95.22,90.96,0
93,95.18,90.98,0
92,95.11,90.99,0
93,95.07,91.01,0
92,95.01,91.02,0
94,94.99,91.05,0
93,94.95,91.07,0
93,94.91,91.09,0
94,94.89,91.12,0
93,94.85,91.14,0
92,94.80,91.15,0
92,94.74,91.15,0
93,94.71,91.17,0
93,94.67,91.19,0
94,94.66,91.22,0
92,94.61,91.23,0
92,94.55,91.23,0
92,94.50,91.24,0
91,94.43,91.24,0
91,94.36,91.24,0
92,94.32,91.24,0
91,94.25,91.24,0
90,94.17,91.23,0
92,94.12,91.24,0
90,94.04,91.22,0
90,93.96,91.21,0
91,93.90,91.21,0
90,93.82,91.20,0
90,93.75,91.19,0
90,93.67,91.17,0
90,93.60,91.16,0
90,93.53,91.15,0
90,93.45,91.14,0
90,93.39,91.13,0
89,93.30,91.11,0
89,93.21,91.09,0
90,93.15,91.08,0
88,93.04,91.04,0
90,92.98,91.03,0
89,92.90,91.01,0
89,92.83,90.99,0
89,92.75,90.97,0
89,92.67,90.95,0
88,92.58,90.92,0
88,92.49,90.90,0
89,92.42,90.88,0
88,92.33,90.85,0
88,92.24,90.82,0
88,92.16,90.79,0
89,92.10,90.77,0
88,92.01,90.75,0
88,91.93,90.72,0
88,91.86,90.69,0
88,91.78,90.66,0
89,91.72,90.65,0
86,91.61,90.60,0
86,91.50,90.55,0
88,91.43,90.53,0
88,91.36,90.50,0
88,91.29,90.48,0
86,91.18,90.43,0
88,91.12,90.41,0
88,91.06,90.39,0
87,90.98,90.35,0
86,90.88,90.31,0
87,90.80,90.27,0
86,90.70,90.23,0
87,90.63,90.20,0
86,90.54,90.16,0
86,90.45,90.12,0
86,90.36,90.08,0
86,90.27,90.03,0
86,90.19,89.99,0
86,90.10,89.95,0
86,90.02,89.91,0
91,90.04,89.93,0
86,89.96,89.89,0
86,89.88,89.85,0
86,89.80,89.81,0
86,89.73,89.77,0
86,89.65,89.73,0
86,89.58,89.70,0
85,89.49,89.65,0
86,89.42,89.61,0
86,89.35,89.58,0
85,89.26,89.53,0
86,89.20,89.50,0
84,89.09,89.44,0
86,89.03,89.41,0
85,88.95,89.36,0
84,88.85,89.31,0
85,88.77,89.26,0
84,88.68,89.21,0
85,88.60,89.17,0
84,88.51,89.12,0
84,88.42,89.07,0
85,88.35,89.03,0
84,88.27,88.98,0
84,88.18,88.93,0
88,88.18,88.92,0
84,88.09,88.87,0
84,88.01,88.82,0
85,87.95,88.78,0
85,87.89,88.74,0
84,87.82,88.70,0
84,87.74,88.65,0
84,87.66,88.60,0
84,87.59,88.56,0
84,87.52,88.51,0
83,87.43,88.46,0
83,87.34,88.40,0
85,87.29,88.37,0
83,87.21,88.31,0
82,87.10,88.25,0
83,87.02,88.20,0
81,86.90,88.13,0
82,86.80,88.06,0
83,86.73,88.01,0
84,86.67,87.97,0
82,86.58,87.91,0
82,86.49,87.86,0
82,86.40,87.80,0
82,86.31,87.74,0
82,86.22,87.68,0
82,86.14,87.62,0
84,86.10,87.59,0
82,86.01,87.53,0
82,85.93,87.48,0
82,85.86,87.42,0
82,85.78,87.37,0
81,85.68,87.30,0
82,85.61,87.25,0
82,85.54,87.20,0
81,85.45,87.14,0
83,85.40,87.10,0
81,85.31,87.03,0
82,85.24,86.98,0
82,85.18,86.93,0
81,85.09,86.87,0
80,84.99,86.81,0
80,84.89,86.74,0
80,84.80,86.67,0
83,84.76,86.63,0
82,84.70,86.59,0
80,84.61,86.52,0
80,84.52,86.46,0
80,84.43,86.39,0
80,84.34,86.33,0
80,84.25,86.26,0
79,84.15,86.19,0
80,84.06,86.13,0
80,83.98,86.07,0
80,83.90,86.01,0
80,83.83,85.95,0
80,83.75,85.89,0
80,83.67,85.83,0
78,83.56,85.75,0
80,83.49,85.69,0
80,83.42,85.64,0
78,83.31,85.56,0
80,83.24,85.51,0
80,83.18,85.45,0
82,83.16,85.42,0
78,83.05,85.34,0
79,82.97,85.28,0
79,82.89,85.22,0
78,82.79,85.14,0
78,82.70,85.07,0
78,82.60,85.00,0
80,82.55,84.95,0
80,82.50,84.90,0
78,82.41,84.83,0
79,82.34,84.77,0
79,82.28,84.72,0
78,82.19,84.65,0
78,82.11,84.58,0
78,82.02,84.52,0
79,81.96,84.46,0
78,81.89,84.40,0
78,81.81,84.33,0
78,81.73,84.27,0
78,81.66,84.21,0
79,81.60,84.15,0
78,81.53,84.09,0
78,81.46,84.03,0
78,81.39,83.97,0
78,81.32,83.91,0
77,81.24,83.84,0
78,81.17,83.78,0
78,81.11,83.73,0
78,81.05,83.67,0
77,80.97,83.60,0
78,80.91,83.55,0
78,80.85,83.49,0
78,80.79,83.44,0
77,80.72,83.37,0
77,80.64,83.31,0
78,80.59,83.26,0
81,80.60,83.23,0
78,80.54,83.18,0
77,80.47,83.12,0
79,80.44,83.08,0
79,80.42,83.04,0
78,80.37,82.99,0
77,80.30,82.93,0
78,80.25,82.88,0
78,80.21,82.83,0
78,80.16,82.78,0
77,80.10,82.72,0
77,80.04,82.67,0
77,79.98,82.61,0
77,79.92,82.55,0
77,79.86,82.50,0
76,79.78,82.43,0
82,79.83,82.43,0
76,79.75,82.36,0
76,79.68,82.30,0
78,79.64,82.26,0
76,79.57,82.19,0
76,79.50,82.13,0
76,79.43,82.07,0
76,79.36,82.01,0
76,79.29,81.95,0
76,79.23,81.89,0
75,79.14,81.82,0
77,79.10,81.77,0
77,79.06,81.73,0
76,79.00,81.67,0
75,78.92,81.60,0
76,78.86,81.55,0
73,78.74,81.46,0
75,78.67,81.40,0
74,78.57,81.32,0
75,78.50,81.26,0
76,78.45,81.21,0
75,78.38,81.14,0
74,78.29,81.07,0
76,78.25,81.02,0
76,78.20,80.97,0
76,78.16,80.92,0
74,78.08,80.85,0
76,78.03,80.80,0
75,77.97,80.75,0
74,77.89,80.68,0
76,77.86,80.63,0
76,77.82,80.59,0
74,77.74,80.52,0
74,77.67,80.45,0
74,77.60,80.39,0
75,77.54,80.34,0
74,77.47,80.27,0
74,77.40,80.21,0
74,77.33,80.15,0
74,77.27,80.09,0
74,77.20,80.03,0
74,77.14,79.97,0
74,77.08,79.91,0
74,77.01,79.85,0
74,76.95,79.79,0
74,76.90,79.73,0
76,76.88,79.69,0
74,76.82,79.64,0
74,76.76,79.58,0
74,76.71,79.52,0
74,76.65,79.47,0
73,76.58,79.40,0
74,76.53,79.35,0
74,76.48,79.30,0
74,76.43,79.24,0
74,76.38,79.19,0
74,76.33,79.14,0
74,76.29,79.09,0
74,76.24,79.04,0
74,76.20,78.99,0
72,76.11,78.92,0
74,76.07,78.87,0
72,75.99,78.80,0
73,75.93,78.74,0
74,75.89,78.69,0
73,75.83,78.64,0
74,75.80,78.59,0
73,75.74,78.53,0
76,75.74,78.51,0
73,75.69,78.45,0
72,75.62,78.39,0
73,75.56,78.34,0
72,75.49,78.27,0
73,75.44,78.22,0
72,75.37,78.16,0
72,75.31,78.10,0
76,75.32,78.07,0
72,75.25,78.01,0
72,75.19,77.95,0
73,75.14,77.90,0
72,75.08,77.84,0
72,75.02,77.79,0
72,74.96,77.73,0
72,74.90,77.67,0
75,74.90,77.64,0
74,74.88,77.61,0
74,74.87,77.57,0
74,74.85,77.54,0
73,74.81,77.49,0
73,74.78,77.45,0
72,74.72,77.39,0
72,74.67,77.34,0
73,74.63,77.29,0
72,74.58,77.24,0
72,74.53,77.19,0
73,74.50,77.15,0
73,74.47,77.11,0
72,74.42,77.05,0
72,74.37,77.00,0
72,74.32,76.95,0
72,74.28,76.90,0
71,74.21,76.85,0
72,74.17,76.80,0
71,74.10,76.74,0
72,74.06,76.69,0
71,74.00,76.63,0
72,73.96,76.59,0
71,73.90,76.53,0
71,73.84,76.48,0
70,73.77,76.41,0
70,73.69,76.35,0
71,73.64,76.29,0
71,73.58,76.24,0
72,73.55,76.20,0
70,73.48,76.14,0
75,73.51,76.13,0
72,73.48,76.08,0
70,73.41,76.02,0
72,73.38,75.98,0
71,73.34,75.93,0
71,73.29,75.88,0
70,73.22,75.83,0
70,73.16,75.77,0
75,73.20,75.76,0
71,73.15,75.71,0
70,73.09,75.66,0
70,73.03,75.60,0
71,72.99,75.55,0
70,72.93,75.50,0
70,72.87,75.44,0
70,72.81,75.39,0
67,72.69,75.30,0
70,72.64,75.25,0
70,72.59,75.20,0
70,72.54,75.15,0
70,72.49,75.09,0
70,72.44,75.04,0
70,72.39,74.99,0
70,72.34,74.94,0
68,72.25,74.87,0
70,72.21,74.83,0
70,72.16,74.78,0
70,72.12,74.73,0
70,72.08,74.68,0
70,72.04,74.64,0
69,71.98,74.58,0
70,71.94,74.53,0
70,71.90,74.49,0
68,71.82,74.42,0
72,71.82,74.40,0
68,71.75,74.33,0
69,71.69,74.28,0
68,71.62,74.22,0
68,71.55,74.16,0
70,71.51,74.11,0
69,71.46,74.06,0
68,71.39,74.00,0
69,71.35,73.95,0
68,71.28,73.89,0
68,71.21,73.83,0
71,71.21,73.81,0
69,71.17,73.76,0
68,71.10,73.70,0
68,71.04,73.64,0
70,71.02,73.61,0
68,70.96,73.55,0
68,70.90,73.50,0
68,70.84,73.44,0
68,70.79,73.39,0
68,70.73,73.33,0
68,70.68,73.28,0
68,70.62,73.23,0
71,70.63,73.20,0
68,70.58,73.15,0
68,70.53,73.10,0
67,70.45,73.04,0
68,70.41,72.99,0
67,70.34,72.93,0
68,70.29,72.88,0
68,70.24,72.83,0
69,70.22,72.79,0
68,70.18,72.74,0
67,70.11,72.69,0
68,70.07,72.64,0
68,70.03,72.59,0
68,69.99,72.55,0
67,69.93,72.49,0
66,69.85,72.43,0
68,69.81,72.38,0
68,69.78,72.34,0
68,69.74,72.30,0
68,69.71,72.25,0
68,69.67,72.21,0
68,69.64,72.17,0
67,69.59,72.12,0
68,69.55,72.08,0
67,69.50,72.02,0
67,69.45,71.97,0
69,69.44,71.94,0
68,69.41,71.91,0
67,69.37,71.86,0
68,69.34,71.82,0
66,69.27,71.76,0
68,69.25,71.72,0
67,69.20,71.67,0
67,69.16,71.63,0
66,69.09,71.57,0
67,69.05,71.53,0
67,69.01,71.48,0
66,68.95,71.43,0
66,68.89,71.37,0
67,68.85,71.33,0
66,68.80,71.27,0
66,68.74,71.22,0
66,68.69,71.17,0
67,68.65,71.13,0
66,68.60,71.08,0
66,68.55,71.03,0
66,68.50,70.98,0
67,68.47,70.94,0
66,68.42,70.89,0
66,68.37,70.84,0
66,68.32,70.79,0
66,68.28,70.74,0
66,68.23,70.69,0
66,68.19,70.65,0
66,68.14,70.60,0
67,68.12,70.56,0
66,68.08,70.52,0
66,68.04,70.47,0
70,68.07,70.47,0
67,68.05,70.43,0
67,68.03,70.40,0
66,67.99,70.36,0
68,67.99,70.33,0
66,67.95,70.29,0
66,67.91,70.25,0
66,67.87,70.20,0
72,67.96,70.22,0
67,67.94,70.19,0
66,67.90,70.15,0
65,67.84,70.10,0
66,67.80,70.06,0
66,67.77,70.01,0
66,67.73,69.97,0
66,67.70,69.93,0
64,67.62,69.88,0
66,67.59,69.84,0
66,67.56,69.80,0
66,67.53,69.76,0
66,67.50,69.72,0
67,67.49,69.70,0
66,67.46,69.66,0
66,67.43,69.62,0
64,67.36,69.57,0
66,67.33,69.53,0
66,67.31,69.49,0
65,67.26,69.45,0
65,67.22,69.41,0
66,67.19,69.37,0
66,67.17,69.34,0
66,67.14,69.30,0
66,67.12,69.27,0
66,67.10,69.24,0
65,67.06,69.20,0
65,67.02,69.15,0
65,66.98,69.11,0
65,66.94,69.07,0
65,66.90,69.03,0
66,66.88,69.00,0
66,66.86,68.97,0
66,66.84,68.94,0
65,66.81,68.90,0
68,66.83,68.89,0
66,66.81,68.86,0
65,66.78,68.82,0
65,66.74,68.79,0
66,66.73,68.76,0
66,66.71,68.73,0
66,66.70,68.70,0
65,66.67,68.67,0
66,66.65,68.64,0
66,66.64,68.61,0
65,66.61,68.58,0
66,66.59,68.55,0
66,66.58,68.53,0
65,66.55,68.49,0
66,66.54,68.47,0
67,66.55,68.45,0
65,66.52,68.42,0
66,66.51,68.39,0
65,66.48,68.36,0
66,66.47,68.34,0
65,66.44,68.30,0
64,66.39,68.26,0
65,66.36,68.23,0
65,66.33,68.19,0
64,66.29,68.15,0
64,66.24,68.11,0
66,66.24,68.09,0
66,66.23,68.07,0
66,66.23,68.05,0
66,66.22,68.03,0
66,66.22,68.01,0
65,66.19,67.98,0
66,66.19,67.96,0
66,66.19,67.94,0
65,66.16,67.91,0
66,66.16,67.89,0
66,66.16,67.87,0
66,66.15,67.85,0
66,66.15,67.83,0
66,66.15,67.81,0
66,66.14,67.80,0
68,66.18,67.80,0
66,66.18,67.78,0
66,66.17,67.76,0
66,66.17,67.75,0
68,66.21,67.75,0
67,66.22,67.74,0
66,66.22,67.72,0
66,66.21,67.71,0
66,66.21,67.69,0
65,66.19,67.66,0
66,66.18,67.65,0
66,66.18,67.63,0
66,66.17,67.61,0
67,66.19,67.61,0
66,66.19,67.59,0
66,66.18,67.57,0
66,66.18,67.56,0
66,66.18,67.54,0
66,66.17,67.53,0
68,66.21,67.53,0
66,66.21,67.52,0
66,66.20,67.50,0
66,66.20,67.49,0
66,66.19,67.47,0
66,66.19,67.46,0
65,66.17,67.43,0
66,66.16,67.42,0
68,66.20,67.42,0
65,66.18,67.40,0
65,66.15,67.38,0
65,66.13,67.35,0
68,66.17,67.36,0
65,66.14,67.34,0
64,66.10,67.30,0
66,66.10,67.29,0
65,66.08,67.27,0
64,66.03,67.23,0
65,66.01,67.21,0
66,66.01,67.20,0
70,66.09,67.23,0
64,66.05,67.19,0
65,66.03,67.17,0
65,66.01,67.15,0
66,66.01,67.14,0
66,66.01,67.13,0
66,66.01,67.12,0
65,65.99,67.10,0
65,65.97,67.07,0
65,65.95,67.05,0
65,65.93,67.03,0
66,65.93,67.02,0
65,65.91,67.00,0
66,65.92,66.99,0
67,65.94,66.99,0
65,65.92,66.97,0
64,65.88,66.94,0
64,65.84,66.91,0
65,65.83,66.89,0
65,65.81,66.88,0
65,65.79,66.86,0
66,65.80,66.85,0
65,65.78,66.83,0
66,65.79,66.82,0
66,65.79,66.81,0
66,65.79,66.81,0
66,65.80,66.80,0
70,65.88,66.83,0
66,65.88,66.82,0
66,65.89,66.81,0
66,65.89,66.80,0
66,65.89,66.80,0
66,65.89,66.79,0
66,65.90,66.78,0
68,65.94,66.79,0
69,66.00,66.81,0
66,66.00,66.81,0
66,66.00,66.80,0
68,66.04,66.81,0
66,66.04,66.80,0
66,66.04,66.79,0
66,66.04,66.79,0
68,66.08,66.80,0
66,66.07,66.79,0
66,66.07,66.78,0
66,66.07,66.78,0
67,66.09,66.78,0
66,66.09,66.77,0
66,66.09,66.76,0
66,66.08,66.75,0
67,66.10,66.76,0
66,66.10,66.75,0
66,66.10,66.74,0
68,66.14,66.75,0
66,66.13,66.75,0
66,66.13,66.74,0
66,66.13,66.73,0
68,66.17,66.74,0
65,66.14,66.73,0
66,66.14,66.72,0
66,66.14,66.71,0
68,66.17,66.73,0
68,66.21,66.74,0
66,66.21,66.73,0
66,66.20,66.72,0
68,66.24,66.74,0
67,66.25,66.74,0
68,66.29,66.75,0
68,66.32,66.76,0
67,66.34,66.77,0
67,66.35,66.77,0
68,66.38,66.78,0
66,66.38,66.77,0
66,66.37,66.77,0
66,66.36,66.76,0
68,66.39,66.77,0
68,66.43,66.78,0
66,66.42,66.77,0
65,66.39,66.76,0
70,66.46,66.79,0
67,66.47,66.79,0
66,66.46,66.78,0
67,66.47,66.79,0
67,66.48,66.79,0
68,66.51,66.80,0
67,66.52,66.80,0
67,66.53,66.80,0
70,66.60,66.84,0
68,66.63,66.85,0
67,66.64,66.85,0
67,66.64,66.85,0
68,66.67,66.86,0
66,66.66,66.85,0
66,66.65,66.85,0
67,66.65,66.85,0
65,66.62,66.83,0
66,66.61,66.82,0
66,66.59,66.81,0
67,66.60,66.81,0
66,66.59,66.81,0
67,66.60,66.81,0
66,66.59,66.80,0
68,66.62,66.81,0
69,66.66,66.83,0
66,66.65,66.82,0
67,66.66,66.83,0
66,66.64,66.82,0
68,66.67,66.83,0
68,66.70,66.84,0
67,66.70,66.84,0
67,66.71,66.85,0
68,66.74,66.86,0
67,66.74,66.86,0
66,66.73,66.85,0
68,66.75,66.86,0
70,66.82,66.89,0
68,66.84,66.90,0
66,66.82,66.89,0
67,66.83,66.90,0
68,66.85,66.91,0
67,66.85,66.91,0
66,66.84,66.90,0
66,66.82,66.89,0
66,66.80,66.88,0
66,66.79,66.87,0
66,66.77,66.86,0
66,66.76,66.85,0
67,66.76,66.86,0
67,66.77,66.86,0
68,66.79,66.87,0
68,66.81,66.88,0
68,66.84,66.89,0
68,66.86,66.90,0
68,66.88,66.91,0
68,66.91,66.92,0
67,66.91,66.92,0
68,66.93,66.94,0
68,66.95,66.95,0
68,66.97,66.96,0
68,66.99,66.97,0
68,67.01,66.98,0
68,67.03,66.99,0
68,67.05,67.00,0
70,67.11,67.03,0
68,67.13,67.04,0
68,67.15,67.05,0
68,67.16,67.06,0
68,67.18,67.07,0
68,67.20,67.08,0
68,67.21,67.08,0
70,67.27,67.11,0
71,67.34,67.15,0
70,67.40,67.18,0
69,67.43,67.20,0
70,67.48,67.23,0
70,67.53,67.26,0
72,67.62,67.30,0
70,67.67,67.33,0
70,67.71,67.36,0
70,67.76,67.38,0
70,67.80,67.41,0
70,67.85,67.43,0
70,67.89,67.46,0
70,67.93,67.49,0
70,67.97,67.51,0
70,68.02,67.54,0
69,68.03,67.55,0
70,68.07,67.58,0
69,68.09,67.59,0
70,68.13,67.61,0
70,68.17,67.64,0
70,68.20,67.66,0
70,68.24,67.68,0
71,68.30,67.72,0
70,68.33,67.74,0
72,68.40,67.78,0
70,68.44,67.81,0
70,68.47,67.83,0
71,68.52,67.86,0
72,68.59,67.90,0
71,68.64,67.93,0
71,68.68,67.96,0
72,68.75,68.00,0
73,68.83,68.05,0
72,68.90,68.09,0
72,68.96,68.13,0
72,69.02,68.17,0
72,69.08,68.21,0
72,69.14,68.25,0
72,69.20,68.28,0
72,69.25,68.32,0
73,69.33,68.37,0
73,69.40,68.41,0
73,69.47,68.46,0
74,69.56,68.51,0
74,69.65,68.57,0
73,69.72,68.61,0
72,69.76,68.65,0
71,69.79,68.67,0
73,69.85,68.71,0
72,69.90,68.75,0
72,69.94,68.78,0
73,70.00,68.82,0
74,70.08,68.87,0
73,70.14,68.92,0
74,70.21,68.97,0
74,70.29,69.02,0
74,70.36,69.07,0
74,70.44,69.12,0
74,70.51,69.16,0
76,70.62,69.23,0
74,70.69,69.28,0
74,70.75,69.33,0
74,70.82,69.37,0
73,70.86,69.41,0
76,70.96,69.48,0
74,71.02,69.52,0
74,71.08,69.57,0
74,71.14,69.61,0
75,71.22,69.66,0
74,71.28,69.71,0
74,71.33,69.75,0
76,71.42,69.81,0
75,71.49,69.87,0
74,71.54,69.91,0
74,71.59,69.95,0
76,71.68,70.01,0
76,71.77,70.07,0
76,71.85,70.13,0
74,71.90,70.17,0
78,72.02,70.24,0
76,72.10,70.30,0
76,72.18,70.36,0
78,72.29,70.44,0
77,72.39,70.50,0
78,72.50,70.58,0
78,72.61,70.65,0
78,72.72,70.72,0
79,72.84,70.81,0
79,72.97,70.89,0
78,73.07,70.96,0
78,73.16,71.03,0
79,73.28,71.11,0
79,73.40,71.19,0
78,73.49,71.26,0
79,73.60,71.33,0
77,73.67,71.39,0
78,73.75,71.46,0
80,73.88,71.54,0
78,73.96,71.61,0
79,74.06,71.68,0
78,74.14,71.74,0
81,74.28,71.84,0
78,74.35,71.90,0
80,74.46,71.98,0
78,74.54,72.04,0
81,74.66,72.13,0
79,74.75,72.20,0
81,74.88,72.29,0
80,74.98,72.36,0
81,75.10,72.45,0
81,75.22,72.53,0
82,75.35,72.63,0
84,75.53,72.74,0
82,75.66,72.84,0
82,75.78,72.93,0
82,75.91,73.02,0
82,76.03,73.11,0
82,76.15,73.20,0
82,76.26,73.28,0
82,76.38,73.37,0
85,76.55,73.49,0
84,76.70,73.59,0
85,76.87,73.71,0
85,77.03,73.82,0
87,77.23,73.95,0
86,77.40,74.07,0
85,77.56,74.18,0
87,77.75,74.31,0
88,77.95,74.45,0
88,78.15,74.58,0
90,78.39,74.74,0
90,78.62,74.89,0
89,78.83,75.03,0
89,79.03,75.17,0
90,79.25,75.32,0
91,79.49,75.48,0
91,79.72,75.63,0
92,79.96,75.79,0
92,80.20,75.96,0
95,80.50,76.15,0
97,80.83,76.36,0
98,81.17,76.57,0
98,81.51,76.79,0
99,81.86,77.01,0
101,82.24,77.25,0
100,82.60,77.48,0
101,82.96,77.71,0
100,83.31,77.93,0
100,83.64,78.15,0
100,83.97,78.37,0
101,84.31,78.60,0
100,84.62,78.81,0
101,84.95,79.04,0
101,85.27,79.25,0
102,85.60,79.48,0
101,85.91,79.70,0
101,86.21,79.91,0
101,86.51,80.12,0
101,86.80,80.33,0
105,87.16,80.58,0
106,87.54,80.83,0
105,87.89,81.07,0
108,88.29,81.34,0
106,88.65,81.59,0
105,88.97,81.82,0
106,89.31,82.06,0
103,89.59,82.27,0
105,89.90,82.50,0
107,90.24,82.75,0
106,90.55,82.98,0
107,90.88,83.22,0
107,91.20,83.46,0
106,91.50,83.68,0
108,91.83,83.93,0
108,92.15,84.17,0
108,92.47,84.40,0
107,92.76,84.63,0
109,93.09,84.87,0
110,93.42,85.13,0
111,93.78,85.38,0
110,94.10,85.63,0
109,94.40,85.86,0
109,94.69,86.10,0
109,94.98,86.32,0
110,95.28,86.56,0
110,95.57,86.80,0
110,95.86,87.03,0
110,96.14,87.26,0
109,96.40,87.47,0
109,96.65,87.69,0
111,96.94,87.92,0
111,97.22,88.15,0
111,97.50,88.38,0
112,97.79,88.62,0
115,98.13,88.88,0
115,98.47,89.14,0
114,98.78,89.39,0
116,99.12,89.66,0
116,99.46,89.92,0
116,99.79,90.18,0
115,100.09,90.43,0
115,100.39,90.68,0
115,100.69,90.92,0
115,100.97,91.16,0
116,101.27,91.41,0
114,101.53,91.63,0
116,101.82,91.88,0
116,102.10,92.12,0
117,102.40,92.37,0
118,102.71,92.62,0
119,103.04,92.89,0
120,103.37,93.16,0
120,103.71,93.43,0
120,104.03,93.69,0
121,104.37,93.97,0
119,104.67,94.22,0
119,104.95,94.46,0
120,105.25,94.72,0
122,105.59,94.99,0
122,105.92,95.26,0
120,106.20,95.51,0
120,106.47,95.76,0
124,106.82,96.04,0
120,107.09,96.28,0
121,107.37,96.52,0
122,107.66,96.78,0
120,107.91,97.01,0
120,108.15,97.24,0
124,108.46,97.51,0
120,108.70,97.73,0
122,108.96,97.98,0
122,109.22,98.22,0
122,109.48,98.45,0
121,109.71,98.68,0
122,109.95,98.91,0
122,110.19,99.14,0
124,110.47,99.39,0
124,110.74,99.64,0
125,111.03,99.89,0
124,111.29,100.13,0
126,111.58,100.39,0
125,111.85,100.64,0
125,112.11,100.88,0
125,112.37,101.12,0
127,112.66,101.38,0
127,112.95,101.64,0
127,113.23,101.89,0
128,113.53,102.15,0
125,113.75,102.38,0
126,114.00,102.62,0
127,114.26,102.86,0
126,114.49,103.09,0
127,114.74,103.33,0
126,114.97,103.56,0
127,115.21,103.79,0
127,115.45,104.02,0
126,115.66,104.24,0
126,115.86,104.46,0
127,116.09,104.69,0
125,116.27,104.89,0
127,116.48,105.11,0
125,116.65,105.31,0
125,116.82,105.51,0
126,117.00,105.71,0
127,117.20,105.93,0
127,117.40,106.14,0
127,117.59,106.34,0
127,117.78,106.55,0
127,117.96,106.76,0
127,118.14,106.96,0
128,118.34,107.17,0
127,118.51,107.37,0
128,118.70,107.57,0
128,118.89,107.78,0
128,119.07,107.98,0
127,119.23,108.17,0
127,119.38,108.36,0
127,119.54,108.54,0
127,119.69,108.73,0
127,119.83,108.91,0
125,119.94,109.07,0
127,120.08,109.25,0
126,120.20,109.42,0
127,120.33,109.60,0
127,120.47,109.77,0
127,120.60,109.94,0
125,120.68,110.09,0
125,120.77,110.24,0
125,120.85,110.39,0
126,120.96,110.54,0
125,121.04,110.69,0
126,121.14,110.84,0
125,121.22,110.98,0
125,121.29,111.12,0
125,121.36,111.26,0
124,121.42,111.39,0
124,121.47,111.52,0
125,121.54,111.65,0
125,121.61,111.78,0
124,121.66,111.91,0
123,121.68,112.02,0
124,121.73,112.14,0
123,121.76,112.25,0
124,121.80,112.36,0
123,121.82,112.47,0
124,121.87,112.59,0
123,121.89,112.69,0
123,121.91,112.79,0
122,121.91,112.88,0
123,121.94,112.99,0
122,121.94,113.08,0
122,121.94,113.17,0
121,121.92,113.24,0
122,121.92,113.33,0
122,121.92,113.42,0
123,121.94,113.51,0
121,121.93,113.59,0
121,121.91,113.66,0
121,121.89,113.74,0
121,121.87,113.81,0
123,121.89,113.90,0
121,121.88,113.97,0
121,121.86,114.04,0
121,121.84,114.11,0
121,121.82,114.18,0
121,121.81,114.25,0
121,121.79,114.32,0
124,121.84,114.41,0
121,121.82,114.48,0
121,121.80,114.54,0
122,121.81,114.62,0
121,121.79,114.68,0
123,121.81,114.77,0
121,121.80,114.83,0
121,121.78,114.89,0
121,121.77,114.95,0
121,121.75,115.01,0
121,121.74,115.07,0
121,121.72,115.13,0
121,121.71,115.19,0
120,121.67,115.24,0
121,121.66,115.29,0
120,121.63,115.34,0
117,121.53,115.36,0
120,121.50,115.40,0
119,121.45,115.44,0
119,121.40,115.48,0
120,121.38,115.52,0
119,121.33,115.56,0
120,121.30,115.60,0
119,121.26,115.63,0
119,121.21,115.67,0
119,121.17,115.70,0
119,121.12,115.73,0
118,121.06,115.76,0
118,121.00,115.78,0
117,120.92,115.79,0
117,120.84,115.80,0
117,120.76,115.82,0
117,120.69,115.83,0
117,120.62,115.84,0
117,120.54,115.85,0
117,120.47,115.86,0
117,120.40,115.87,0
117,120.33,115.89,0
116,120.25,115.89,0
116,120.16,115.89,0
116,120.08,115.89,0
116,120.00,115.89,0
117,119.94,115.90,0
117,119.88,115.91,0
115,119.78,115.90,0
115,119.69,115.89,0
115,119.59,115.89,0
115,119.50,115.88,0
115,119.41,115.87,0
115,119.32,115.86,0
115,119.24,115.85,0
115,119.15,115.84,0
114,119.05,115.82,0
114,118.95,115.81,0
116,118.89,115.81,0
115,118.81,115.80,0
113,118.69,115.77,0
113,118.58,115.74,0
113,118.47,115.72,0
113,118.36,115.69,0
113,118.25,115.66,0
113,118.15,115.64,0
113,118.04,115.61,0
113,117.94,115.58,0
113,117.84,115.56,0
111,117.71,115.51,0
113,117.61,115.49,0
112,117.50,115.45,0
112,117.39,115.42,0
111,117.26,115.37,0
112,117.16,115.34,0
111,117.04,115.30,0
111,116.91,115.25,0
111,116.80,115.21,0
111,116.68,115.17,0
112,116.59,115.14,0
111,116.47,115.09,0
111,116.37,115.05,0
111,116.26,115.01,0
111,116.15,114.97,0
111,116.05,114.93,0
110,115.93,114.88,0
110,115.81,114.84,0
109,115.67,114.78,0
109,115.54,114.72,0
109,115.41,114.66,0
109,115.28,114.61,0
108,115.14,114.54,0
109,115.01,114.48,0
109,114.89,114.43,0
109,114.78,114.37,0
109,114.66,114.32,0
109,114.55,114.27,0
109,114.44,114.22,0
109,114.33,114.16,0
109,114.22,114.11,0
109,114.12,114.06,0
109,114.01,114.01,0
109,113.91,113.96,0
109,113.81,113.91,0
107,113.68,113.84,0
108,113.57,113.78,0
107,113.43,113.71,0
108,113.33,113.66,0
107,113.20,113.59,0
108,113.09,113.54,0
107,112.97,113.47,0
107,112.85,113.40,0
107,112.74,113.34,0
106,112.60,113.27,0
103,112.41,113.16,0
106,112.28,113.09,0
105,112.14,113.01,0
106,112.01,112.94,0
106,111.89,112.87,0
105,111.75,112.79,0
105,111.62,112.72,0
105,111.49,112.64,0
105,111.36,112.56,0
105,111.23,112.49,0
105,111.11,112.41,0
105,110.98,112.34,0
105,110.86,112.26,0
105,110.75,112.19,0
104,110.61,112.11,0
104,110.48,112.03,0
104,110.35,111.95,0
104,110.22,111.87,0
104,110.10,111.79,0
105,110.00,111.72,0
105,109.90,111.66,0
105,109.80,111.59,0
103,109.66,111.50,0
103,109.53,111.42,0
103,109.40,111.33,0
103,109.27,111.25,0
103,109.15,111.17,0
103,109.02,111.09,0
103,108.90,111.01,0
103,108.78,110.93,0
102,108.65,110.84,0
103,108.54,110.76,0
102,108.40,110.67,0
103,108.30,110.59,0
101,108.15,110.50,0
101,108.01,110.40,0
101,107.87,110.31,0
101,107.73,110.22,0
101,107.60,110.12,0
105,107.54,110.07,0
101,107.41,109.98,0
101,107.28,109.89,0
101,107.16,109.80,0
101,107.04,109.71,0
100,106.90,109.62,0
100,106.76,109.52,0
100,106.62,109.43,0
100,106.49,109.33,0
101,106.38,109.25,0
99,106.23,109.15,0
99,106.09,109.04,0
100,105.97,108.95,0
100,105.85,108.86,0
99,105.71,108.77,0
99,105.58,108.67,0
99,105.44,108.57,0
98,105.29,108.47,0
98,105.15,108.36,0
98,105.01,108.26,0
98,104.87,108.15,0
97,104.71,108.04,0
98,104.57,107.94,0
98,104.44,107.84,0
98,104.31,107.75,0
98,104.19,107.65,0
98,104.06,107.55,0
98,103.94,107.46,0
98,103.82,107.36,0
98,103.71,107.27,0
97,103.57,107.16,0
97,103.44,107.06,0
96,103.29,106.95,0
96,103.15,106.84,0
96,103.00,106.73,0
96,102.86,106.63,0
96,102.73,106.52,0
96,102.59,106.42,0
96,102.46,106.31,0
96,102.33,106.21,0
96,102.20,106.11,0
95,102.06,106.00,0
96,101.94,105.90,0
96,101.82,105.80,0
96,101.70,105.70,0
95,101.57,105.59,0
95,101.44,105.49,0
96,101.33,105.39,0
94,101.18,105.28,0
97,101.10,105.19,0
95,100.98,105.09,0
97,100.90,105.01,0
96,100.80,104.92,0
96,100.70,104.83,0
94,100.57,104.72,0
95,100.46,104.63,0
94,100.33,104.52,0
94,100.20,104.41,0
94,100.08,104.31,0
94,99.96,104.21,0
95,99.86,104.12,0
95,99.76,104.02,0
94,99.65,103.92,0
94,99.53,103.82,0
93,99.40,103.72,0
93,99.27,103.61,0
93,99.15,103.50,0
94,99.05,103.41,0
94,98.94,103.31,0
94,98.85,103.22,0
95,98.77,103.14,0
93,98.65,103.04,0
94,98.56,102.95,0
94,98.47,102.86,0
93,98.36,102.76,0
95,98.29,102.68,0
93,98.19,102.58,0
93,98.08,102.49,0
93,97.98,102.39,0
93,97.88,102.30,0
93,97.78,102.21,0
94,97.71,102.12,0
93,97.61,102.03,0
93,97.52,101.94,0
93,97.43,101.85,0
93,97.34,101.77,0
93,97.26,101.68,0
93,97.17,101.59,0
93,97.09,101.51,0
93,97.01,101.42,0
91,96.89,101.32,0
93,96.81,101.23,0
92,96.71,101.14,0
93,96.64,101.06,0
92,96.54,100.97,0
92,96.45,100.88,0
92,96.36,100.79,0
92,96.28,100.70,0
92,96.19,100.61,0
92,96.11,100.53,0
93,96.05,100.45,0
91,95.95,100.36,0
92,95.87,100.28,0
91,95.77,100.18,0
91,95.67,100.09,0
92,95.60,100.01,0
91,95.51,99.92,0
93,95.46,99.85,0
92,95.39,99.77,0
92,95.32,99.69,0
90,95.21,99.60,0
92,95.15,99.52,0
92,95.09,99.45,0
91,95.01,99.36,0
92,94.95,99.29,0
92,94.89,99.22,0
91,94.81,99.13,0
90,94.71,99.04,0
90,94.62,98.95,0
92,94.57,98.88,0
91,94.49,98.80,0
90,94.40,98.72,0
90,94.32,98.63,0
92,94.27,98.56,0
91,94.20,98.49,0
90,94.12,98.40,0
91,94.06,98.33,0
90,93.98,98.24,0
90,93.90,98.16,0
90,93.82,98.08,0
91,93.76,98.01,0
89,93.67,97.92,0
90,93.59,97.84,0
90,93.52,97.76,0
90,93.45,97.68,0
89,93.36,97.60,0
91,93.32,97.53,0
89,93.23,97.45,0
90,93.17,97.37,0
90,93.10,97.30,0
89,93.02,97.21,0
89,92.94,97.13,0
90,92.88,97.06,0
89,92.80,96.98,0
89,92.73,96.90,0
89,92.65,96.82,0
89,92.58,96.74,0
89,92.51,96.67,0
89,92.44,96.59,0
89,92.37,96.51,0
88,92.28,96.43,0
88,92.20,96.34,0
89,92.13,96.27,0
89,92.07,96.20,0
88,91.99,96.12,0
88,91.91,96.03,0
88,91.83,95.95,0
88,91.75,95.87,0
88,91.68,95.80,0
88,91.60,95.72,0
86,91.49,95.62,0
88,91.42,95.54,0
88,91.35,95.47,0
87,91.27,95.38,0
91,91.26,95.34,0
88,91.20,95.27,0
87,91.11,95.18,0
88,91.05,95.11,0
87,90.97,95.03,0
88,90.91,94.96,0
86,90.81,94.87,0
86,90.72,94.78,0
87,90.64,94.71,0
88,90.59,94.64,0
87,90.52,94.56,0
87,90.45,94.49,0
88,90.40,94.42,0
88,90.35,94.36,0
88,90.30,94.29,0
88,90.26,94.23,0
86,90.17,94.15,0
87,90.11,94.08,0
86,90.03,94.00,0
88,89.99,93.94,0
88,89.95,93.88,0
87,89.89,93.81,0
86,89.81,93.73,0
86,89.73,93.65,0
88,89.70,93.60,0
88,89.66,93.54,0
86,89.59,93.46,0
87,89.54,93.40,0
87,89.49,93.34,0
86,89.42,93.26,0
86,89.35,93.19,0
88,89.32,93.14,0
88,89.30,93.09,0
86,89.23,93.02,0
86,89.17,92.95,0
86,89.10,92.88,0
87,89.06,92.82,0
86,89.00,92.75,0
86,88.94,92.68,0
86,88.88,92.62,0
87,88.84,92.56,0
86,88.79,92.49,0
86,88.73,92.43,0
86,88.68,92.36,0
85,88.60,92.29,0
86,88.55,92.23,0
86,88.50,92.17,0
86,88.45,92.10,0
85,88.38,92.03,0
86,88.33,91.97,0
86,88.29,91.91,0
86,88.24,91.85,0
86,88.20,91.79,0
86,88.15,91.74,0
86,88.11,91.68,0
85,88.05,91.61,0
85,87.99,91.55,0
84,87.91,91.47,0
85,87.85,91.41,0
84,87.77,91.33,0
86,87.74,91.28,0
86,87.70,91.23,0
84,87.63,91.15,0
84,87.55,91.08,0
85,87.50,91.02,0
84,87.43,90.95,0
86,87.40,90.90,0
85,87.36,90.84,0
86,87.33,90.79,0
85,87.28,90.74,0
86,87.26,90.69,0
85,87.21,90.63,0
85,87.17,90.58,0
87,87.16,90.54,0
85,87.12,90.48,0
86,87.10,90.44,0
85,87.06,90.39,0
85,87.02,90.33,0
84,86.96,90.27,0
84,86.90,90.21,0
84,86.84,90.14,0
85,86.80,90.09,0
84,86.75,90.03,0
84,86.69,89.97,0
84,86.64,89.91,0
84,86.58,89.85,0
84,86.53,89.79,0
84,86.48,89.74,0
84,86.43,89.68,0
85,86.40,89.63,0
83,86.34,89.57,0
84,86.29,89.51,0
85,86.26,89.46,0
84,86.22,89.41,0
83,86.15,89.35,0
82,86.07,89.27,0
84,86.03,89.22,0
84,85.99,89.17,0
83,85.93,89.11,0
84,85.89,89.05,0
84,85.85,89.00,0
85,85.83,88.96,0
84,85.80,88.91,0
82,85.72,88.85,0
84,85.69,88.80,0
84,85.65,88.75,0
82,85.58,88.68,0
82,85.51,88.61,0
82,85.44,88.55,0
82,85.37,88.48,0
82,85.30,88.42,0
82,85.24,88.35,0
82,85.17,88.29,0
82,85.11,88.23,0
82,85.05,88.17,0
84,85.03,88.12,0
82,84.97,88.06,0
82,84.91,88.00,0
82,84.85,87.94,0
82,84.79,87.88,0
82,84.73,87.82,0
82,84.68,87.77,0
82,84.63,87.71,0
84,84.61,87.67,0
81,84.54,87.60,0
82,84.49,87.55,0
80,84.40,87.47,0
79,84.29,87.39,0
81,84.23,87.32,0
82,84.18,87.27,0
82,84.14,87.22,0
78,84.02,87.13,0
81,83.96,87.06,0
82,83.92,87.01,0
80,83.84,86.94,0
80,83.76,86.87,0
80,83.69,86.81,0
80,83.61,86.74,0
81,83.56,86.68,0
80,83.49,86.61,0
82,83.46,86.57,0
82,83.43,86.52,0
80,83.36,86.46,0
80,83.29,86.39,0
81,83.25,86.34,0
80,83.18,86.27,0
81,83.14,86.22,0
81,83.10,86.17,0
80,83.04,86.11,0
81,82.99,86.06,0
80,82.93,86.00,0
79,82.86,85.93,0
80,82.80,85.87,0
81,82.76,85.82,0
79,82.69,85.75,0
79,82.61,85.68,0
79,82.54,85.62,0
79,82.47,85.55,0
80,82.42,85.49,0
79,82.35,85.43,0
79,82.29,85.36,0
79,82.22,85.30,0
80,82.18,85.25,0
79,82.11,85.19,0
79,82.05,85.12,0
79,81.99,85.06,0
78,81.91,84.99,0
79,81.85,84.93,0
78,81.77,84.86,0
80,81.74,84.81,0
79,81.68,84.76,0
79,81.63,84.70,0
78,81.56,84.63,0
78,81.49,84.57,0
79,81.44,84.51,0
78,81.37,84.44,0
78,81.30,84.38,0
81,81.29,84.35,0
78,81.23,84.28,0
78,81.16,84.22,0
78,81.10,84.16,0
80,81.08,84.12,0
78,81.02,84.05,0
78,80.96,83.99,0
78,80.90,83.93,0
79,80.86,83.88,0
78,80.80,83.83,0
78,80.75,83.77,0
77,80.67,83.70,0
77,80.60,83.63,0
78,80.55,83.58,0
78,80.50,83.52,0
78,80.45,83.47,0
77,80.38,83.40,0
78,80.33,83.35,0
78,80.28,83.29,0
77,80.22,83.23,0
78,80.17,83.18,0
78,80.13,83.13,0
78,80.09,83.08,0
78,80.04,83.02,0
77,79.98,82.96,0
78,79.94,82.91,0
78,79.91,82.87,0
78,79.87,82.82,0
77,79.81,82.76,0
76,79.73,82.69,0
76,79.66,82.62,0
78,79.63,82.58,0
77,79.57,82.52,0
76,79.50,82.46,0
78,79.47,82.41,0
78,79.44,82.37,0
78,79.41,82.32,0
78,79.39,82.28,0
77,79.34,82.23,0
77,79.29,82.18,0
78,79.26,82.13,0
78,79.24,82.09,0
78,79.21,82.05,0
77,79.17,82.00,0
76,79.11,81.94,0
76,79.04,81.88,0
77,79.00,81.83,0
77,78.96,81.79,0
76,78.90,81.73,0
76,78.85,81.67,0
76,78.79,81.61,0
77,78.75,81.57,0
76,78.70,81.51,0
78,78.68,81.48,0
76,78.63,81.42,0
76,78.58,81.37,0
76,78.53,81.31,0
77,78.50,81.27,0
76,78.45,81.22,0
76,78.40,81.17,0
76,78.35,81.11,0
79,78.36,81.09,0
76,78.32,81.04,0
76,78.27,80.99,0
76,78.22,80.94,0
76,78.18,80.89,0
76,78.14,80.84,0
76,78.09,80.79,0
76,78.05,80.75,0
75,77.99,80.69,0
76,77.95,80.64,0
77,77.93,80.61,0
77,77.91,80.57,0
78,77.91,80.54,0
77,77.90,80.51,0
78,77.90,80.48,0
78,77.90,80.46,0
76,77.86,80.41,0
77,77.84,80.38,0
79,77.87,80.37,0
78,77.87,80.34,0
77,77.85,80.31,0
78,77.86,80.29,0
77,77.84,80.25,0
77,77.82,80.22,0
76,77.79,80.18,0
76,77.75,80.14,0
77,77.74,80.11,0
77,77.72,80.07,0
77,77.71,80.04,0
76,77.67,80.00,0
77,77.66,79.97,0
77,77.65,79.94,0
76,77.61,79.90,0
76,77.58,79.87,0
76,77.55,79.83,0
76,77.52,79.79,0
76,77.49,79.75,0
76,77.46,79.71,0
76,77.43,79.68,0
77,77.42,79.65,0
75,77.37,79.60,0
74,77.30,79.55,0
76,77.28,79.51,0
76,77.25,79.48,0
76,77.23,79.44,0
74,77.16,79.39,0
78,77.18,79.37,0
76,77.16,79.34,0
76,77.13,79.31,0
76,77.11,79.27,0
77,77.11,79.25,0
76,77.09,79.22,0
76,77.06,79.19,0
76,77.04,79.15,0
77,77.04,79.13,0
78,77.06,79.12,0
78,77.08,79.11,0
78,77.10,79.10,0
78,77.12,79.09,0
77,77.11,79.07,0
78,77.13,79.06,0
78,77.15,79.05,0
77,77.15,79.02,0
77,77.14,79.00,0
78,77.16,78.99,0
78,77.18,78.98,0
77,77.17,78.96,0
77,77.17,78.94,0
78,77.19,78.94,0
78,77.20,78.93,0
77,77.20,78.91,0
77,77.19,78.89,0
77,77.19,78.87,0
78,77.21,78.86,0
77,77.20,78.84,0
78,77.22,78.83,0
78,77.23,78.82,0
78,77.25,78.82,0
78,77.26,78.81,0
76,77.24,78.78,0
76,77.21,78.75,0
78,77.23,78.75,0
77,77.23,78.73,0
76,77.20,78.70,0
76,77.18,78.67,0
76,77.15,78.65,0
76,77.13,78.62,0
78,77.15,78.61,0
77,77.15,78.60,0
76,77.12,78.57,0
76,77.10,78.55,0
76,77.08,78.52,0
76,77.06,78.50,0
76,77.04,78.47,0
76,77.01,78.45,0
79,77.05,78.45,0
76,77.03,78.43,0
76,77.01,78.40,0
76,76.99,78.38,0
76,76.97,78.35,0
76,76.95,78.33,0
76,76.93,78.31,0
76,76.92,78.28,0
76,76.90,78.26,0
76,76.88,78.24,0
76,76.86,78.22,0
75,76.82,78.18,0
78,76.85,78.18,0
76,76.83,78.16,0
76,76.81,78.14,0
76,76.80,78.12,0
76,76.78,78.10,0
76,76.77,78.08,0
76,76.75,78.06,0
77,76.76,78.04,0
80,76.82,78.06,0
76,76.80,78.04,0
75,76.77,78.01,0
76,76.75,77.99,0
76,76.74,77.97,0
75,76.70,77.94,0
76,76.69,77.92,0
76,76.68,77.90,0
73,76.60,77.86,0
76,76.59,77.84,0
76,76.58,77.82,0
78,76.61,77.82,0
76,76.59,77.80,0
75,76.56,77.77,0
74,76.51,77.74,0
74,76.46,77.70,0
76,76.45,77.68,0
75,76.42,77.66,0
74,76.37,77.62,0
76,76.37,77.60,0
76,76.36,77.59,0
74,76.31,77.55,0
74,76.27,77.52,0
74,76.22,77.48,0
75,76.20,77.46,0
74,76.15,77.42,0
74,76.11,77.39,0
74,76.07,77.35,0
75,76.05,77.33,0
74,76.00,77.30,0
74,75.96,77.26,0
75,75.95,77.24,0
75,75.93,77.22,0
74,75.89,77.19,0
76,75.89,77.17,0
77,75.91,77.17,0
78,75.95,77.18,0
78,76.00,77.19,0
77,76.02,77.19,0
77,76.03,77.18,0
78,76.07,77.19,0
78,76.11,77.20,0
77,76.13,77.20,0
77,76.15,77.20,0
78,76.18,77.21,0
78,76.22,77.21,0
78,76.26,77.22,0
78,76.29,77.23,0
78,76.33,77.24,0
78,76.36,77.24,0
78,76.39,77.25,0
78,76.42,77.26,0
78,76.46,77.27,0
78,76.49,77.27,0
78,76.52,77.28,0
77,76.53,77.28,0
78,76.56,77.29,0
78,76.58,77.29,0
78,76.61,77.30,0
78,76.64,77.31,0
78,76.67,77.31,0
79,76.71,77.33,0
78,76.74,77.34,0
79,76.79,77.35,0
78,76.81,77.36,0
78,76.83,77.37,0
78,76.86,77.37,0
78,76.88,77.38,0
78,76.90,77.39,0
77,76.90,77.38,0
78,76.93,77.39,0
79,76.97,77.40,0
80,77.03,77.43,0
78,77.05,77.44,0
78,77.07,77.44,0
78,77.09,77.45,0
79,77.12,77.46,0
78,77.14,77.47,0
78,77.16,77.47,0
78,77.18,77.48,0
77,77.17,77.47,0
78,77.19,77.48,0
78,77.20,77.48,0
79,77.24,77.50,0
77,77.24,77.49,0
81,77.31,77.53,0
79,77.34,77.54,0
80,77.40,77.57,0
79,77.43,77.58,0
79,77.46,77.60,0
79,77.49,77.61,0
80,77.54,77.63,0
81,77.61,77.67,0
80,77.66,77.69,0
78,77.67,77.69,0
78,77.67,77.70,0
80,77.72,77.72,0
79,77.74,77.73,0
78,77.75,77.74,0
79,77.77,77.75,0
80,77.82,77.77,0
79,77.84,77.78,0
79,77.87,77.80,0
78,77.87,77.80,0
80,77.91,77.82,0
79,77.93,77.83,0
78,77.93,77.83,0
79,77.96,77.85,0
79,77.98,77.86,0
80,78.02,77.88,0
78,78.02,77.88,0
79,78.04,77.89,0
81,78.10,77.92,0
79,78.11,77.93,0
79,78.13,77.94,0
82,78.21,77.98,0
80,78.24,78.00,0
80,78.28,78.02,0
80,78.31,78.04,0
79,78.33,78.05,0
80,78.36,78.07,0
80,78.39,78.09,0
82,78.47,78.13,0
81,78.52,78.16,0
81,78.57,78.19,0
82,78.64,78.23,0
82,78.70,78.26,0
82,78.77,78.30,0
82,78.83,78.34,0
82,78.90,78.38,0
82,78.96,78.41,0
84,79.06,78.47,0
82,79.12,78.50,0
82,79.18,78.54,0
82,79.23,78.57,0
83,79.31,78.62,0
82,79.36,78.65,0
84,79.45,78.70,0
84,79.55,78.76,0
85,79.65,78.82,0
83,79.72,78.86,0
84,79.81,78.91,0
86,79.93,78.98,0
83,79.99,79.02,0
84,80.07,79.07,0
84,80.15,79.12,0
84,80.23,79.17,0
85,80.32,79.23,0
84,80.40,79.28,0
85,80.49,79.33,0
84,80.56,79.38,0
85,80.65,79.44,0
86,80.75,79.50,0
88,80.90,79.59,0
86,81.00,79.65,0
87,81.12,79.73,0
88,81.26,79.81,0
89,81.41,79.90,0
88,81.55,79.98,0
89,81.70,80.07,0
90,81.86,80.17,0
90,82.02,80.27,0
90,82.18,80.37,0
90,82.34,80.46,0
91,82.51,80.57,0
92,82.70,80.68,0
92,82.89,80.80,0
92,83.07,80.91,0
93,83.27,81.03,0
92,83.44,81.14,0
92,83.62,81.25,0
91,83.76,81.34,0
91,83.91,81.44,0
92,84.07,81.55,0
92,84.23,81.65,0
91,84.36,81.74,0
92,84.52,81.85,0
92,84.67,81.95,0
92,84.81,82.05,0
92,84.96,82.15,0
93,85.12,82.26,0
92,85.25,82.35,0
92,85.39,82.45,0
92,85.52,82.55,0
93,85.67,82.65,0
92,85.80,82.74,0
91,85.90,82.83,0
93,86.04,82.93,0
93,86.18,83.03,0
92,86.30,83.12,0
92,86.41,83.21,0
92,86.53,83.30,0
94,86.67,83.40,0
95,86.84,83.52,0
94,86.98,83.62,0
94,87.12,83.73,0
93,87.24,83.82,0
94,87.38,83.92,0
94,87.51,84.02,0
95,87.66,84.13,0
95,87.81,84.24,0
95,87.95,84.35,0
94,88.07,84.45,0
95,88.21,84.55,0
95,88.35,84.66,0
94,88.46,84.75,0
94,88.57,84.84,0
95,88.70,84.94,0
95,88.82,85.04,0
95,88.95,85.14,0
96,89.09,85.25,0
95,89.21,85.35,0
98,89.38,85.48,0
98,89.56,85.60,0
99,89.74,85.73,0
95,89.85,85.83,0
98,90.01,85.95,0
98,90.17,86.07,0
98,90.33,86.19,0
98,90.48,86.31,0
96,90.59,86.40,0
98,90.74,86.52,0
98,90.89,86.63,0
99,91.05,86.76,0
99,91.21,86.88,0
98,91.34,86.99,0
100,91.52,87.12,0
98,91.65,87.23,0
101,91.83,87.37,0
99,91.98,87.48,0
100,92.14,87.61,0
99,92.27,87.72,0
100,92.43,87.85,0
100,92.58,87.97,0
100,92.73,88.09,0
100,92.87,88.21,0
100,93.02,88.33,0
101,93.18,88.45,0
105,93.41,88.62,0
102,93.58,88.75,0
101,93.73,88.87,0
103,93.92,89.02,0
103,94.10,89.16,0
105,94.32,89.31,0
104,94.51,89.46,0
104,94.70,89.61,0
105,94.91,89.76,0
106,95.13,89.92,0
104,95.31,90.06,0
103,95.46,90.19,0
103,95.61,90.32,0
104,95.78,90.46,0
104,95.94,90.59,0
103,96.08,90.72,0
103,96.22,90.84,0
103,96.36,90.96,0
106,96.55,91.11,0
105,96.72,91.25,0
105,96.89,91.39,0
105,97.05,91.52,0
105,97.21,91.66,0
104,97.34,91.78,0
104,97.48,91.90,0
105,97.63,92.04,0
108,97.83,92.20,0
109,98.06,92.36,0
108,98.26,92.52,0
108,98.45,92.67,0
109,98.66,92.84,0
110,98.89,93.01,0
111,99.13,93.19,0
111,99.37,93.37,0
113,99.64,93.56,0
111,99.87,93.74,0
113,100.13,93.93,0
115,100.43,94.14,0
116,100.74,94.36,0
116,101.04,94.58,0
116,101.34,94.79,0
116,101.64,95.00,0
118,101.96,95.23,0
118,102.28,95.46,0
120,102.64,95.71,0
121,103.01,95.96,0
122,103.39,96.22,0
121,103.74,96.47,0
122,104.10,96.72,0
122,104.46,96.97,0
122,104.81,97.23,0
122,105.16,97.47,0
122,105.49,97.72,0
122,105.82,97.96,0
122,106.15,98.20,0
124,106.50,98.46,0
124,106.85,98.71,0
124,107.20,98.97,0
124,107.53,99.22,0
124,107.86,99.47,0
124,108.18,99.71,0
125,108.52,99.96,0
125,108.85,100.21,0
127,109.21,100.48,0
128,109.59,100.76,0
127,109.94,101.02,0
128,110.30,101.29,0
130,110.69,101.58,0
129,111.06,101.85,0
129,111.42,102.12,0
129,111.77,102.39,0
130,112.13,102.67,0
129,112.47,102.93,0
129,112.80,103.19,0
132,113.19,103.48,0
131,113.54,103.75,0
131,113.89,104.03,0
131,114.23,104.30,0
131,114.57,104.56,0
131,114.90,104.83,0
131,115.22,105.09,0
131,115.54,105.35,0
133,115.88,105.63,0
131,116.19,105.88,0
134,116.54,106.16,0
133,116.87,106.43,0
135,117.23,106.71,0
134,117.57,106.99,0
137,117.96,107.29,0
138,118.36,107.59,0
139,118.77,107.91,0
140,119.20,108.23,0
139,119.59,108.54,0
143,120.06,108.88,0
143,120.52,109.22,0
143,120.97,109.56,0
143,121.41,109.90,0
145,121.88,110.25,0
143,122.30,110.57,0
145,122.76,110.92,0
146,123.22,111.27,0
145,123.66,111.61,0
145,124.09,111.94,0
145,124.50,112.27,0
146,124.93,112.61,0
148,125.40,112.96,0
148,125.85,113.31,0
147,126.27,113.65,0
148,126.70,113.99,0
147,127.11,114.32,0
147,127.51,114.65,0
149,127.94,114.99,0
154,128.46,115.38,0
151,128.91,115.74,0
151,129.35,116.09,0
150,129.77,116.43,0
151,130.19,116.78,0
149,130.57,117.10,0
150,130.95,117.43,0
150,131.34,117.75,0
151,131.73,118.09,0
151,132.11,118.42,0
151,132.49,118.74,0
151,132.86,119.06,0
151,133.22,119.38,0
152,133.60,119.71,0
151,133.95,120.02,0
151,134.29,120.33,0
152,134.64,120.65,0
153,135.01,120.97,0
151,135.33,121.27,0
153,135.68,121.59,0
151,135.99,121.88,0
152,136.31,122.19,0
151,136.60,122.47,0
151,136.89,122.76,0
151,137.17,123.04,0
151,137.45,123.32,0
150,137.70,123.59,0
151,137.97,123.86,0
149,138.19,124.11,0
149,138.40,124.36,0
149,138.62,124.61,0
150,138.84,124.86,0
149,139.05,125.10,0
149,139.25,125.34,0
149,139.44,125.58,0
151,139.67,125.83,0
149,139.86,126.06,0
150,140.06,126.30,0
150,140.26,126.54,0
153,140.52,126.81,0
150,140.71,127.04,0
149,140.87,127.26,0
151,141.07,127.49,0
149,141.23,127.71,0
149,141.39,127.92,0
149,141.54,128.13,0
149,141.69,128.34,0
150,141.86,128.56,0
149,142.00,128.76,0
149,142.14,128.97,0
149,142.28,129.17,0
149,142.41,129.36,0
149,142.54,129.56,0
149,142.67,129.75,0
148,142.78,129.94,0
151,142.94,130.15,0
147,143.02,130.32,0
149,143.14,130.50,0
147,143.22,130.67,0
148,143.32,130.84,0
147,143.39,131.00,0
147,143.46,131.16,0
147,143.53,131.32,0
146,143.58,131.47,0
146,143.63,131.61,0
146,143.68,131.76,0
145,143.70,131.89,0
145,143.73,132.02,0
145,143.76,132.15,0
146,143.80,132.29,0
143,143.78,132.40,0
145,143.81,132.52,0
145,143.83,132.65,0
145,143.86,132.77,0
146,143.90,132.90,0
145,143.92,133.02,0
145,143.94,133.14,0
145,143.96,133.26,0
145,143.98,133.38,0
145,144.00,133.50,0
146,144.04,133.62,0
144,144.04,133.72,0
145,144.06,133.84,0
145,144.08,133.95,0
144,144.08,134.05,0
144,144.08,134.15,0
144,144.08,134.25,0
144,144.07,134.35,0
143,144.05,134.43,0
143,144.03,134.52,0
143,144.01,134.60,0
144,144.01,134.70,0
142,143.97,134.77,0
143,143.95,134.85,0
143,143.93,134.93,0
143,143.91,135.01,0
141,143.86,135.07,0
142,143.82,135.14,0
141,143.76,135.20,0
141,143.71,135.26,0
141,143.65,135.32,0
141,143.60,135.37,0
142,143.57,135.44,0
141,143.52,135.50,0
141,143.47,135.55,0
140,143.40,135.60,0
140,143.33,135.64,0
139,143.24,135.67,0
140,143.18,135.72,0
140,143.11,135.76,0
137,142.99,135.77,0
140,142.93,135.81,0
140,142.87,135.86,0
139,142.80,135.89,0
139,142.72,135.92,0
139,142.65,135.95,0
137,142.53,135.96,0
138,142.44,135.98,0
138,142.35,136.00,0
137,142.25,136.01,0
137,142.14,136.02,0
137,142.04,136.03,0
137,141.94,136.04,0
137,141.84,136.05,0
137,141.74,136.06,0
137,141.65,136.07,0
137,141.55,136.08,0
136,141.44,136.08,0
136,141.33,136.08,0
137,141.25,136.08,0
136,141.14,136.08,0
137,141.06,136.09,0
136,140.96,136.09,0
136,140.86,136.09,0
136,140.76,136.09,0
135,140.65,136.08,0
135,140.53,136.07,0
135,140.42,136.06,0
135,140.31,136.05,0
134,140.19,136.03,0
133,140.04,136.00,0
135,139.94,135.99,0
133,139.81,135.96,0
135,139.71,135.95,0
136,139.63,135.95,0
135,139.54,135.94,0
137,139.49,135.95,0
134,139.38,135.93,0
135,139.29,135.92,0
136,139.23,135.92,0
134,139.12,135.90,0
134,139.02,135.88,0
133,138.90,135.85,0
133,138.78,135.83,0
133,138.67,135.80,0
133,138.55,135.77,0
133,138.44,135.74,0
133,138.33,135.71,0
133,138.23,135.69,0
133,138.12,135.66,0
132,138.00,135.62,0
133,137.90,135.60,0
131,137.76,135.55,0
131,137.63,135.51,0
132,137.51,135.47,0
129,137.34,135.41,0
132,137.24,135.37,0
131,137.11,135.33,0
131,136.99,135.28,0
131,136.87,135.24,0
131,136.75,135.20,0
131,136.64,135.16,0
131,136.53,135.12,0
131,136.41,135.07,0
130,136.29,135.02,0
130,136.16,134.97,0
131,136.06,134.93,0
129,135.92,134.87,0
131,135.82,134.84,0
129,135.68,134.78,0
129,135.55,134.72,0
129,135.42,134.66,0
129,135.29,134.61,0
129,135.16,134.55,0
130,135.06,134.50,0
128,134.92,134.44,0
129,134.80,134.39,0
128,134.66,134.32,0
127,134.51,134.25,0
127,134.36,134.18,0
127,134.21,134.10,1
127,134.07,134.03,1
127,133.93,133.96,2
127,133.79,133.89,2
127,133.65,133.82,2
125,133.48,133.74,2
127,133.35,133.67,2
127,133.22,133.60,2
125,133.06,133.52,2
127,132.94,133.45,2
125,132.78,133.37,2
127,132.66,133.30,2
125,132.51,133.22,2
125,132.36,133.14,2
125,132.21,133.06,2
125,132.07,132.98,2
125,131.93,132.90,2
124,131.77,132.81,2
124,131.61,132.72,2
125,131.48,132.64,2
125,131.35,132.56,2
124,131.20,132.48,2
125,131.08,132.40,2
122,130.90,132.30,2
123,130.74,132.21,2
124,130.61,132.13,2
124,130.47,132.04,2
123,130.32,131.95,2
123,130.18,131.86,2
123,130.03,131.78,2
122,129.87,131.68,2
123,129.74,131.59,2
122,129.58,131.50,2
123,129.45,131.41,2
122,129.30,131.32,2
121,129.13,131.21,2
121,128.97,131.11,2
121,128.81,131.01,2
121,128.66,130.91,2
121,128.50,130.81,2
121,128.35,130.71,2
121,128.21,130.62,2
121,128.06,130.52,2
122,127.94,130.43,2
121,127.80,130.34,2
121,127.67,130.25,2
120,127.51,130.14,2
120,127.36,130.04,2
120,127.22,129.94,2
120,127.07,129.84,2
119,126.91,129.73,2
119,126.75,129.63,2
119,126.60,129.52,2
119,126.44,129.42,2
119,126.30,129.31,2
119,126.15,129.21,2
118,125.99,129.10,2
118,125.83,128.98,2
119,125.69,128.89,2
117,125.52,128.77,2
119,125.39,128.67,2
117,125.22,128.55,2
117,125.05,128.44,2
117,124.89,128.32,2
117,124.74,128.21,2
117,124.58,128.10,2
117,124.43,127.99,2
117,124.28,127.88,2
116,124.11,127.76,2
115,123.93,127.63,2
116,123.77,127.51,2
117,123.64,127.41,2
116,123.49,127.29,2
116,123.34,127.18,2
115,123.17,127.06,2
116,123.03,126.95,2
115,122.87,126.83,2
117,122.75,126.73,2
115,122.59,126.61,2
115,122.44,126.50,2
113,122.25,126.36,2
116,122.13,126.26,2
114,121.96,126.14,2
114,121.81,126.01,2
114,121.65,125.89,2
114,121.50,125.78,2
114,121.35,125.66,2
113,121.18,125.53,2
114,121.04,125.42,2
113,120.88,125.29,2
113,120.72,125.17,2
113,120.56,125.05,2
113,120.41,124.93,2
113,120.26,124.81,2
113,120.12,124.69,2
113,119.98,124.57,2
112,119.82,124.45,2
113,119.68,124.33,2
113,119.55,124.22,2
112,119.40,124.10,2
111,119.23,123.97,2
111,119.06,123.84,2
111,118.90,123.71,2
111,118.74,123.58,2
111,118.59,123.46,2
111,118.44,123.33,2
111,118.29,123.21,2
111,118.14,123.09,2
114,118.06,122.99,2
111,117.92,122.87,2
111,117.78,122.76,2
110,117.62,122.63,2
109,117.45,122.49,2
111,117.32,122.38,2
109,117.16,122.24,2
109,116.99,122.11,2
109,116.83,121.98,2
109,116.68,121.85,2
109,116.52,121.72,2
109,116.37,121.59,2
110,116.25,121.48,2
109,116.10,121.35,2
110,115.98,121.24,2
108,115.82,121.11,2
107,115.64,120.97,2
107,115.47,120.83,2
108,115.32,120.70,2
108,115.17,120.57,2
108,115.03,120.45,2
108,114.89,120.32,2
109,114.77,120.21,2
107,114.62,120.08,2
106,114.44,119.94,2
107,114.30,119.81,2
107,114.15,119.68,2
107,114.01,119.55,2
107,113.87,119.43,2
107,113.73,119.30,2
106,113.57,119.17,2
105,113.40,119.03,2
105,113.24,118.89,2
105,113.07,118.75,2
105,112.91,118.61,2
107,112.79,118.49,2
106,112.65,118.37,2
107,112.54,118.26,2
105,112.39,118.12,2
105,112.24,117.99,2
105,112.10,117.86,2
106,111.98,117.74,2
105,111.84,117.62,2
105,111.70,117.49,2
105,111.57,117.36,2
105,111.43,117.24,2
105,111.31,117.12,2
105,111.18,117.00,2
105,111.06,116.88,2
105,110.94,116.76,2
105,110.82,116.64,2
105,110.70,116.52,2
105,110.59,116.41,2
104,110.45,116.29,2
105,110.35,116.17,2
104,110.22,116.05,2
105,110.11,115.94,2
104,109.99,115.82,2
103,109.85,115.69,2
104,109.73,115.58,2
104,109.62,115.46,2
104,109.51,115.35,2
103,109.38,115.22,2
103,109.25,115.10,2
103,109.13,114.98,2
103,109.00,114.86,2
103,108.88,114.74,2
103,108.76,114.62,2
103,108.65,114.51,2
102,108.52,114.38,2
102,108.39,114.26,2
100,108.22,114.12,2
101,108.07,113.98,2
103,107.97,113.87,2
101,107.83,113.75,2
101,107.70,113.62,2
101,107.56,113.49,2
102,107.45,113.38,2
101,107.32,113.25,2
101,107.20,113.13,2
101,107.07,113.01,2
101,106.95,112.89,2
101,106.83,112.77,2
99,106.67,112.63,2
100,106.54,112.51,2
100,106.41,112.38,2
102,106.32,112.28,2
101,106.22,112.16,2
99,106.07,112.03,2
98,105.91,111.89,2
99,105.77,111.76,2
99,105.64,111.64,2
98,105.48,111.50,2
100,105.37,111.38,2
99,105.25,111.26,2
99,105.12,111.14,2
99,105.00,111.02,2
99,104.88,110.90,2
98,104.74,110.77,2
98,104.61,110.64,2
98,104.47,110.51,2
98,104.35,110.39,2
98,104.22,110.26,2
98,104.09,110.14,2
98,103.97,110.02,2
98,103.85,109.90,2
97,103.72,109.77,2
98,103.60,109.65,2
97,103.47,109.53,2
98,103.36,109.41,2
97,103.23,109.29,2
97,103.11,109.16,2
96,102.97,109.03,2
97,102.85,108.91,2
98,102.75,108.80,2
96,102.61,108.68,2
96,102.48,108.55,2
96,102.35,108.42,2
97,102.25,108.31,2
96,102.12,108.19,2
96,102.00,108.06,2
96,101.88,107.94,2
97,101.78,107.83,2
96,101.67,107.72,2
95,101.53,107.59,2
95,101.40,107.46,2
95,101.27,107.34,2
95,101.15,107.21,2
95,101.02,107.09,2
94,100.88,106.96,2
95,100.77,106.84,2
94,100.63,106.71,2
98,100.58,106.63,2
94,100.45,106.50,2
95,100.34,106.39,2
96,100.25,106.28,2
95,100.15,106.17,2
95,100.04,106.06,2
95,99.94,105.95,2
95,99.84,105.84,2
95,99.75,105.73,2
94,99.63,105.61,2
95,99.54,105.51,2
95,99.45,105.40,2
93,99.32,105.28,2
93,99.19,105.15,2
94,99.09,105.04,2
93,98.97,104.92,2
93,98.85,104.80,2
93,98.73,104.68,2
94,98.64,104.58,2
93,98.52,104.46,2
93,98.41,104.35,2
92,98.29,104.22,2
93,98.18,104.11,2
92,98.06,103.99,2
93,97.95,103.88,2
92,97.84,103.76,2
93,97.74,103.65,2
93,97.64,103.55,2
93,97.55,103.44,2
92,97.44,103.33,2
92,97.33,103.21,2
95,97.28,103.13,2
92,97.18,103.02,2
91,97.06,102.90,2
92,96.95,102.79,2
91,96.84,102.67,2
94,96.78,102.59,2
91,96.66,102.47,2
91,96.55,102.36,2
92,96.46,102.25,2
92,96.37,102.15,2
87,96.18,102.00,2
89,96.04,101.87,2
90,95.92,101.75,2
92,95.84,101.65,2
91,95.74,101.55,2
92,95.67,101.45,2
90,95.55,101.34,2
90,95.44,101.22,2
89,95.31,101.10,2
90,95.21,100.99,2
89,95.08,100.87,2
90,94.98,100.76,2
89,94.86,100.64,2
92,94.81,100.56,2
90,94.71,100.45,2
89,94.60,100.34,2
89,94.48,100.22,2
89,94.37,100.11,2
89,94.27,100.00,2
89,94.16,99.89,2
89,94.06,99.78,2
89,93.96,99.67,2
89,93.86,99.57,2
88,93.74,99.45,2
88,93.63,99.34,2
88,93.51,99.22,2
88,93.40,99.11,2
88,93.29,99.00,2
88,93.19,98.89,2
88,93.08,98.78,2
88,92.98,98.67,2
88,92.88,98.57,2
87,92.77,98.45,2
89,92.69,98.36,2
88,92.60,98.25,2
86,92.46,98.13,2
87,92.36,98.02,2
88,92.27,97.92,2
87,92.16,97.81,2
87,92.06,97.70,2
86,91.94,97.58,2
87,91.84,97.48,2
87,91.74,97.37,2
87,91.65,97.27,2
86,91.54,97.16,2
88,91.46,97.07,2
87,91.38,96.96,2
88,91.31,96.88,2
86,91.20,96.77,2
87,91.12,96.67,2
88,91.06,96.58,2
86,90.95,96.48,2
86,90.86,96.37,2
88,90.80,96.29,2
86,90.70,96.19,2
86,90.61,96.08,2
86,90.52,95.98,2
86,90.43,95.88,2
87,90.36,95.79,2
86,90.27,95.70,2
87,90.20,95.61,2
86,90.12,95.51,2
86,90.04,95.42,2
86,89.96,95.32,2
87,89.90,95.24,2
86,89.82,95.15,2
86,89.74,95.06,2
86,89.67,94.97,2
88,89.64,94.90,2
86,89.56,94.81,2
86,89.49,94.72,2
86,89.42,94.63,2
86,89.35,94.55,2
85,89.27,94.45,2
87,89.22,94.38,2
84,89.12,94.27,2
86,89.05,94.19,2
85,88.97,94.10,2
84,88.87,94.00,2
84,88.78,93.90,2
86,88.72,93.82,2
85,88.65,93.73,2
84,88.55,93.63,2
86,88.50,93.56,2
84,88.41,93.46,2
84,88.32,93.37,2
84,88.24,93.27,2
85,88.17,93.19,2
84,88.09,93.10,2
84,88.01,93.01,2
84,87.93,92.92,2
84,87.85,92.83,2
84,87.77,92.74,2
82,87.66,92.63,2
83,87.56,92.53,2
84,87.49,92.45,2
84,87.42,92.37,2
83,87.33,92.27,2
83,87.25,92.18,2
84,87.18,92.10,2
82,87.08,92.00,2
83,87.00,91.91,2
82,86.90,91.81,2
82,86.80,91.71,2
82,86.70,91.61,2
82,86.61,91.52,2
82,86.52,91.42,2
82,86.43,91.33,2
82,86.34,91.23,2
84,86.29,91.16,2
81,86.19,91.06,2
82,86.10,90.97,2
82,86.02,90.88,2
84,85.98,90.81,2
87,86.00,90.77,2
81,85.90,90.67,2
82,85.82,90.59,2
84,85.79,90.52,2
81,85.69,90.43,2
81,85.60,90.33,2
81,85.50,90.24,2
82,85.43,90.16,2
84,85.41,90.09,2
81,85.32,90.00,2
81,85.23,89.91,2
82,85.17,89.83,2
81,85.08,89.75,2
80,84.98,89.65,2
80,84.88,89.55,2
81,84.80,89.47,2
79,84.69,89.36,2
80,84.59,89.27,2
80,84.50,89.18,2
81,84.43,89.09,2
82,84.38,89.02,2
80,84.30,88.93,2
79,84.19,88.83,2
81,84.13,88.76,2
80,84.04,88.67,2
80,83.96,88.58,2
78,83.84,88.48,2
81,83.79,88.40,2
80,83.71,88.32,2
80,83.64,88.23,2
79,83.54,88.14,2
81,83.49,88.07,2
80,83.42,87.99,2
80,83.35,87.91,2
78,83.25,87.81,2
80,83.18,87.73,2
79,83.10,87.64,2
80,83.04,87.57,2
80,82.98,87.49,2
81,82.94,87.43,2
80,82.88,87.35,2
82,82.86,87.30,2
82,82.84,87.25,2
81,82.81,87.18,2
82,82.79,87.13,2
80,82.73,87.06,2
82,82.72,87.01,2
81,82.69,86.95,2
82,82.67,86.90,2
80,82.62,86.83,2
79,82.55,86.75,2
82,82.53,86.71,2
82,82.52,86.66,2
80,82.47,86.59,2
80,82.42,86.53,2
81,82.40,86.47,2
80,82.35,86.41,2
80,82.30,86.34,2
79,82.23,86.27,2
80,82.19,86.21,2
80,82.15,86.14,2
82,82.14,86.10,2
80,82.10,86.04,2
81,82.08,85.99,2
80,82.04,85.93,2
81,82.02,85.88,2
79,81.96,85.81,2
82,81.96,85.78,2
80,81.92,85.72,2
80,81.88,85.66,2
81,81.86,85.61,2
80,81.82,85.56,2
80,81.79,85.50,2
80,81.75,85.45,2
81,81.74,85.40,2
81,81.72,85.36,2
84,81.77,85.34,2
82,81.77,85.31,2
82,81.78,85.28,2
81,81.76,85.24,2
81,81.75,85.19,2
80,81.71,85.14,2
81,81.70,85.10,2
81,81.68,85.06,2
81,81.67,85.02,2
81,81.66,84.98,2
82,81.66,84.95,2
84,81.71,84.94,2
81,81.70,84.90,2
81,81.68,84.86,2
81,81.67,84.82,2
82,81.67,84.79,2
81,81.66,84.76,2
80,81.63,84.71,2
80,81.60,84.66,2
81,81.58,84.62,2
81,81.57,84.59,2
80,81.54,84.54,2
80,81.51,84.50,2
81,81.50,84.46,2
80,81.47,84.42,2
80,81.44,84.37,2
80,81.41,84.33,2
80,81.38,84.29,2
80,81.36,84.24,2
80,81.33,84.20,2
79,81.28,84.15,2
81,81.28,84.12,2
79,81.23,84.07,2
79,81.19,84.02,2
79,81.14,83.97,2
80,81.12,83.93,2
80,81.10,83.89,2
78,81.04,83.83,2
77,80.95,83.76,2
83,81.00,83.75,2
80,80.98,83.71,2
78,80.92,83.66,2
79,80.88,83.61,2
79,80.84,83.56,2
79,80.80,83.52,2
78,80.75,83.46,2
78,80.69,83.41,2
79,80.66,83.36,2
78,80.61,83.31,2
78,80.55,83.26,2
79,80.52,83.22,2
78,80.47,83.16,2
78,80.42,83.11,2
78,80.37,83.06,2
78,80.33,83.01,2
77,80.26,82.95,2
78,80.21,82.90,2
78,80.17,82.85,2
78,80.13,82.80,2
78,80.08,82.75,2
78,80.04,82.71,2
78,80.00,82.66,2
78,79.96,82.61,2
79,79.94,82.58,2
78,79.90,82.53,2
78,79.87,82.49,2
78,79.83,82.44,2
78,79.79,82.40,2
78,79.76,82.35,2
78,79.72,82.31,2
78,79.69,82.27,2
79,79.67,82.23,2
78,79.64,82.19,2
78,79.61,82.15,2
78,79.57,82.11,2
78,79.54,82.07,2
78,79.51,82.03,2
78,79.48,81.99,2
78,79.45,81.95,2
78,79.42,81.91,2
78,79.39,81.87,2
78,79.37,81.83,2
78,79.34,81.79,2
78,79.31,81.75,2
78,79.29,81.72,2
78,79.26,81.68,2
79,79.26,81.65,2
78,79.23,81.61,2
82,79.29,81.62,2
79,79.28,81.59,2
80,79.29,81.58,2
79,79.29,81.55,2
82,79.34,81.56,2
78,79.32,81.52,2
79,79.31,81.49,2
80,79.32,81.48,2
79,79.32,81.45,2
78,79.29,81.42,2
79,79.28,81.40,2
78,79.26,81.36,2
79,79.25,81.34,2
78,79.23,81.31,2
79,79.22,81.28,2
78,79.20,81.25,2
79,79.20,81.23,2
80,79.21,81.21,2
78,79.19,81.18,2
80,79.20,81.17,2
78,79.18,81.14,2
79,79.18,81.12,2
79,79.17,81.10,2
80,79.19,81.09,2
79,79.19,81.06,2
78,79.16,81.03,2
78,79.14,81.00,2
81,79.18,81.00,2
78,79.15,80.97,2
78,79.13,80.94,2
78,79.11,80.91,2
81,79.14,80.92,2
78,79.12,80.89,2
78,79.10,80.86,2
78,79.08,80.83,2
77,79.04,80.79,2
78,79.01,80.76,2
78,78.99,80.73,2
78,78.97,80.71,2
77,78.94,80.67,2
78,78.92,80.64,2
79,78.92,80.63,2
79,78.92,80.61,2
79,78.92,80.59,2
79,78.92,80.58,2
78,78.90,80.55,2
78,78.89,80.53,2
79,78.89,80.51,2
79,78.89,80.50,2
78,78.87,80.47,2
79,78.88,80.46,2
80,78.90,80.45,2
80,78.92,80.45,2
78,78.90,80.42,2
80,78.92,80.42,2
79,78.93,80.41,2
79,78.93,80.39,2
78,78.91,80.37,2
79,78.91,80.35,2
81,78.95,80.36,2
79,78.95,80.35,2
78,78.93,80.32,2
79,78.94,80.31,2
79,78.94,80.30,2
79,78.94,80.28,2
78,78.92,80.26,2
82,78.98,80.28,2
79,78.98,80.27,2
80,79.00,80.26,2
79,79.00,80.25,2
79,79.00,80.24,2
80,79.02,80.24,2
80,79.04,80.23,2
79,79.04,80.22,2
83,79.12,80.25,2
79,79.12,80.24,2
78,79.09,80.21,2
79,79.09,80.20,2
79,79.09,80.19,2
79,79.09,80.18,2
81,79.13,80.19,2
79,79.12,80.17,2
77,79.08,80.14,2
80,79.10,80.14,2
79,79.10,80.13,2
78,79.08,80.11,2
79,79.07,80.10,2
79,79.07,80.09,2
79,79.07,80.08,2
78,79.05,80.05,2
79,79.05,80.04,2
78,79.03,80.02,2
79,79.03,80.01,2
80,79.05,80.01,2
79,79.05,80.00,2
79,79.05,79.99,2
80,79.06,79.99,2
79,79.06,79.98,2
79,79.06,79.97,2
79,79.06,79.96,2
79,79.06,79.95,2
79,79.06,79.94,2
79,79.06,79.93,2
79,79.06,79.93,2
79,79.06,79.92,2
79,79.05,79.91,2
79,79.05,79.90,2
79,79.05,79.89,2
79,79.05,79.88,2
78,79.03,79.86,2
79,79.03,79.85,2
79,79.03,79.84,2
79,79.03,79.84,2
79,79.03,79.83,2
78,79.01,79.81,2
80,79.03,79.81,2
79,79.03,79.80,2
78,79.01,79.79,2
79,79.01,79.78,2
79,79.01,79.77,2
78,78.99,79.75,2
78,78.97,79.73,2
80,78.99,79.74,2
80,79.01,79.74,2
79,79.01,79.73,2
79,79.01,79.72,2
78,78.99,79.71,2
80,79.01,79.71,2
80,79.03,79.71,2
79,79.03,79.71,2
80,79.05,79.71,2
82,79.10,79.73,2
81,79.14,79.74,2
80,79.16,79.75,2
80,79.18,79.75,2
80,79.19,79.75,2
80,79.21,79.75,2
80,79.22,79.76,2
80,79.24,79.76,2
80,79.26,79.76,2
80,79.27,79.76,2
78,79.24,79.75,2
80,79.26,79.75,2
81,79.29,79.76,2
82,79.35,79.78,2
82,79.40,79.81,2
82,79.45,79.83,2
82,79.50,79.85,2
82,79.55,79.87,2
82,79.60,79.89,2
82,79.65,79.91,2
82,79.70,79.93,2
82,79.74,79.96,2
82,79.79,79.98,2
84,79.87,80.02,2
83,79.94,80.05,2
82,79.98,80.07,2
84,80.06,80.10,2
84,80.14,80.14,2
83,80.19,80.17,2
84,80.27,80.21,2
84,80.34,80.25,2
84,80.42,80.29,2
84,80.49,80.32,2
84,80.56,80.36,2
86,80.67,80.42,2
86,80.78,80.47,2
87,80.90,80.54,2
86,81.00,80.59,2
86,81.10,80.65,2
84,81.16,80.68,2
85,81.24,80.72,2
86,81.33,80.78,2
88,81.47,80.85,2
86,81.56,80.90,2
86,81.64,80.95,2
86,81.73,81.00,2
86,81.82,81.05,2
88,81.94,81.12,2
87,82.04,81.18,2
88,82.16,81.25,2
90,82.32,81.33,2
87,82.41,81.39,2
86,82.48,81.44,2
88,82.59,81.50,2
88,82.70,81.57,2
88,82.81,81.63,2
88,82.91,81.70,2
90,83.05,81.78,2
92,83.23,81.88,2
89,83.35,81.95,2
90,83.48,82.03,2
88,83.57,82.09,2
89,83.68,82.16,2
89,83.79,82.23,2
90,83.91,82.31,2
89,84.01,82.37,2
87,84.07,82.42,2
89,84.17,82.49,2
91,84.31,82.57,2
90,84.42,82.65,2
90,84.53,82.72,2
91,84.66,82.80,2
90,84.77,82.87,2
91,84.89,82.96,2
88,84.96,83.01,2
92,85.10,83.10,2
92,85.23,83.19,2
93,85.39,83.28,2
92,85.52,83.37,2
91,85.63,83.45,2
92,85.76,83.53,2
93,85.90,83.63,2
92,86.03,83.71,2
91,86.13,83.78,2
92,86.24,83.87,2
94,86.40,83.97,2
92,86.51,84.05,2
90,86.58,84.11,2
92,86.69,84.19,2
92,86.79,84.26,2
92,86.90,84.34,2
92,87.00,84.42,2
94,87.14,84.51,2
94,87.28,84.61,2
92,87.37,84.68,2
92,87.46,84.76,2
94,87.60,84.85,2
95,87.74,84.95,2
94,87.87,85.04,2
94,87.99,85.13,2
94,88.11,85.22,2
94,88.23,85.31,2
94,88.34,85.39,2
94,88.46,85.48,2
93,88.55,85.55,2
94,88.66,85.64,2
94,88.76,85.72,2
94,88.87,85.81,2
94,88.97,85.89,2
94,89.07,85.97,2
94,89.17,86.05,2
94,89.27,86.13,2
95,89.38,86.22,2
95,89.49,86.31,2
94,89.58,86.38,2
94,89.67,86.46,2
95,89.78,86.54,2
96,89.90,86.64,2
96,90.03,86.73,2
96,90.15,86.82,2
96,90.26,86.92,2
96,90.38,87.01,2
96,90.49,87.10,2
98,90.64,87.21,2
96,90.75,87.29,2
100,90.93,87.42,2
97,91.05,87.52,2
97,91.17,87.61,2
97,91.29,87.71,2
95,91.36,87.78,2
97,91.48,87.87,2
96,91.57,87.95,2
96,91.65,88.03,2
95,91.72,88.10,2
97,91.83,88.19,2
96,91.91,88.27,2
98,92.03,88.37,2
97,92.13,88.45,2
97,92.23,88.54,2
98,92.34,88.63,2
97,92.44,88.72,2
99,92.57,88.82,2
98,92.68,88.91,2
98,92.78,89.00,2
98,92.89,89.09,2
100,93.03,89.20,2
101,93.19,89.32,2
99,93.31,89.42,2
102,93.48,89.54,2
104,93.69,89.69,2
103,93.88,89.82,2
102,94.04,89.94,2
103,94.22,90.07,2
104,94.41,90.21,2
104,94.61,90.35,2
103,94.77,90.48,2
103,94.94,90.60,2
102,95.08,90.71,2
104,95.26,90.85,2
106,95.47,91.00,2
107,95.70,91.16,2
105,95.89,91.30,2
105,96.07,91.43,2
107,96.29,91.59,2
107,96.50,91.74,2
106,96.69,91.89,2
106,96.88,92.03,2
109,97.12,92.20,2
108,97.34,92.36,2
115,97.69,92.58,2
112,97.98,92.78,2
112,98.26,92.97,2
111,98.51,93.15,2
111,98.76,93.33,2
111,99.01,93.50,2
112,99.27,93.69,2
113,99.54,93.88,2
112,99.79,94.06,2
113,100.06,94.25,2
112,100.30,94.43,2
113,100.55,94.62,2
114,100.82,94.81,2
113,101.06,94.99,2
114,101.32,95.18,2
116,101.61,95.39,2
117,101.92,95.61,2
115,102.18,95.80,2
118,102.50,96.02,2
120,102.85,96.26,2
118,103.15,96.48,2
118,103.45,96.69,2
118,103.74,96.91,2
118,104.03,97.12,2
118,104.31,97.33,2
120,104.62,97.55,2
119,104.91,97.77,2
122,105.25,98.01,2
120,105.54,98.23,2
120,105.83,98.45,2
121,106.14,98.67,2
123,106.47,98.92,2
122,106.78,99.15,2
122,107.09,99.38,2
122,107.39,99.60,2
122,107.68,99.83,2
122,107.97,100.05,2
123,108.27,100.28,2
123,108.56,100.51,2
124,108.87,100.74,2
123,109.15,100.96,2
124,109.45,101.19,2
123,109.72,101.41,2
124,110.01,101.64,2
125,110.31,101.87,2
127,110.64,102.12,2
128,110.99,102.38,2
129,111.35,102.65,2
129,111.70,102.91,2
129,112.05,103.17,2
128,112.37,103.42,2
128,112.68,103.67,2
129,113.00,103.92,2
128,113.30,104.16,2
127,113.58,104.39,2
129,113.89,104.63,2
129,114.19,104.88,2
129,114.49,105.12,2
129,114.78,105.36,2
130,115.08,105.60,2
129,115.36,105.84,2
131,115.67,106.09,2
132,116.00,106.35,2
131,116.30,106.60,2
130,116.57,106.83,2
134,116.92,107.10,2
133,117.24,107.36,2
131,117.52,107.60,2
134,117.85,107.86,2
138,118.25,108.16,2
139,118.67,108.47,2
139,119.07,108.78,2
140,119.49,109.09,2
141,119.92,109.41,2
141,120.34,109.72,2
141,120.76,110.04,2
141,121.16,110.35,2
141,121.56,110.65,2
141,121.95,110.96,2
141,122.33,111.26,2
139,122.66,111.53,2
144,123.09,111.86,2
141,123.45,112.15,2
141,123.80,112.44,2
141,124.14,112.72,2
141,124.48,113.01,2
143,124.85,113.31,2
143,125.21,113.60,2
143,125.57,113.90,2
143,125.92,114.19,2
143,126.26,114.48,2
143,126.59,114.76,2
148,127.02,115.09,2
148,127.44,115.42,2
148,127.85,115.75,2
149,128.27,116.08,2
150,128.71,116.42,2
147,129.07,116.73,2
149,129.47,117.05,2
149,129.86,117.37,2
149,130.25,117.68,2
149,130.62,118.00,2
151,131.03,118.33,2
154,131.49,118.68,2
151,131.88,119.01,2
151,132.26,119.33,2
150,132.62,119.63,2
149,132.94,119.93,2
151,133.30,120.24,2
151,133.66,120.55,2
150,133.99,120.84,2
150,134.31,121.13,2
151,134.64,121.43,2
152,134.99,121.74,2
151,135.31,122.03,2
151,135.62,122.32,2
149,135.89,122.59,2
149,136.15,122.85,2
150,136.43,123.12,2
150,136.70,123.39,2
149,136.95,123.65,2
149,137.19,123.90,2
149,137.42,124.15,2
150,137.67,124.41,2
149,137.90,124.66,2
149,138.12,124.90,2
149,138.34,125.14,2
149,138.55,125.38,2
149,138.76,125.61,2
147,138.93,125.83,2
149,139.13,126.06,2
149,139.33,126.29,2
148,139.50,126.51,2
148,139.67,126.72,2
148,139.84,126.93,2
147,139.98,127.14,2
148,140.14,127.34,2
147,140.28,127.54,2
147,140.41,127.74,2
147,140.54,127.93,2
146,140.65,128.11,2
145,140.74,128.28,2
146,140.84,128.45,2
145,140.93,128.62,2
145,141.01,128.78,2
145,141.09,128.95,2
145,141.17,129.11,2
145,141.24,129.27,2
145,141.32,129.42,2
144,141.37,129.57,2
144,141.43,129.71,2
145,141.50,129.87,2
144,141.55,130.01,2
144,141.60,130.15,2
145,141.66,130.30,2
143,141.69,130.42,2
143,141.72,130.55,2
143,141.74,130.67,2
143,141.77,130.80,2
143,141.79,130.92,2
143,141.82,131.04,2
143,141.84,131.16,2
141,141.82,131.26,2
142,141.83,131.36,2
141,141.81,131.46,2
142,141.81,131.57,2
141,141.80,131.66,2
141,141.78,131.75,2
141,141.77,131.85,2
141,141.75,131.94,2
141,141.74,132.03,2
141,141.72,132.12,2
141,141.71,132.21,2
141,141.69,132.30,2
141,141.68,132.38,2
140,141.65,132.46,2
140,141.61,132.53,2
140,141.58,132.61,2
139,141.53,132.67,2
139,141.48,132.74,2
139,141.43,132.80,2
137,141.34,132.84,2
139,141.29,132.90,2
139,141.25,132.96,2
139,141.20,133.02,2
139,141.16,133.08,2
137,141.08,133.12,2
137,140.99,133.16,2
137,140.91,133.20,2
138,140.86,133.25,2
138,140.80,133.29,2
138,140.74,133.34,2
137,140.67,133.38,2
137,140.59,133.41,2
137,140.52,133.45,2
137,140.45,133.49,2
136,140.36,133.51,2
137,140.30,133.55,2
137,140.23,133.58,2
136,140.15,133.60,2
137,140.08,133.64,2
135,139.98,133.65,2
137,139.92,133.69,2
135,139.82,133.70,2
135,139.73,133.71,2
136,139.65,133.73,2
135,139.56,133.75,2
135,139.47,133.76,2
135,139.38,133.77,2
134,139.27,133.77,2
134,139.16,133.78,2
133,139.04,133.77,2
133,138.92,133.76,2
132,138.78,133.74,2
133,138.67,133.74,2
133,138.55,133.73,2
133,138.44,133.72,2
133,138.33,133.71,2
133,138.23,133.71,2
132,138.10,133.69,2
132,137.98,133.67,2
132,137.86,133.66,2
131,137.72,133.63,2
133,137.63,133.62,2
132,137.52,133.61,2
132,137.41,133.59,2
132,137.30,133.58,2
131,137.17,133.55,2
132,137.07,133.53,2
131,136.95,133.51,2
132,136.85,133.49,2
131,136.73,133.47,2
131,136.62,133.44,2
130,136.48,133.41,2
131,136.37,133.39,2
130,136.25,133.35,2
130,136.12,133.32,2
129,135.98,133.28,2
130,135.86,133.24,2
129,135.72,133.20,2
130,135.61,133.17,2
129,135.48,133.13,2
129,135.35,133.09,2
129,135.22,133.04,2
129,135.10,133.00,2
129,134.97,132.96,2
128,134.83,132.91,2
128,134.70,132.87,2
128,134.56,132.82,2
127,134.41,132.76,2
128,134.28,132.71,2
127,134.14,132.65,2
130,134.06,132.63,2
127,133.91,132.57,2
127,133.78,132.52,2
127,133.64,132.46,2
126,133.49,132.40,2
125,133.32,132.32,2
125,133.15,132.25,2
125,132.99,132.18,2
125,132.83,132.10,2
125,132.67,132.03,2
125,132.52,131.96,2
125,132.37,131.89,2
125,132.22,131.82,2
125,132.08,131.76,2
125,131.94,131.69,2
123,131.76,131.60,2
124,131.60,131.53,3
124,131.45,131.45,3
124,131.30,131.38,4
123,131.13,131.29,4
123,130.97,131.21,4
125,130.85,131.15,4
124,130.72,131.08,4
123,130.56,130.99,4
123,130.41,130.91,4
124,130.28,130.85,4
122,130.12,130.76,4
123,129.97,130.68,4
123,129.83,130.60,4
121,129.66,130.51,4
121,129.48,130.41,4
121,129.31,130.32,4
121,129.15,130.22,4
121,128.99,130.13,4
121,128.83,130.04,4
121,128.67,129.95,4
121,128.52,129.86,4
120,128.35,129.76,4
121,128.20,129.67,4
121,128.05,129.59,4
120,127.89,129.49,4
120,127.74,129.40,4
121,127.60,129.31,4
119,127.43,129.21,4
119,127.26,129.11,4
119,127.10,129.01,4
119,126.93,128.91,4
119,126.77,128.81,4
119,126.62,128.71,4
119,126.47,128.61,4
119,126.32,128.52,4
118,126.15,128.41,4
119,126.01,128.32,4
117,125.83,128.20,4
119,125.69,128.11,4
117,125.52,128.00,4
117,125.35,127.89,4
117,125.18,127.78,4
117,125.02,127.67,4
117,124.86,127.57,4
117,124.70,127.46,4
116,124.53,127.35,4
116,124.35,127.23,4
116,124.19,127.12,4
115,124.00,127.00,4
116,123.84,126.89,4
115,123.67,126.77,4
115,123.49,126.65,4
115,123.32,126.54,4
115,123.16,126.42,4
115,122.99,126.31,4
115,122.83,126.19,4
115,122.68,126.08,4
114,122.50,125.96,4
113,122.31,125.83,4
116,122.19,125.73,4
114,122.02,125.62,4
113,121.84,125.49,4
113,121.67,125.37,4
113,121.49,125.24,4
113,121.32,125.12,4
113,121.16,125.00,4
111,120.95,124.86,4
113,120.79,124.74,4
113,120.64,124.62,4
112,120.47,124.50,4
113,120.32,124.38,4
112,120.15,124.26,4
111,119.97,124.12,4
112,119.81,124.00,4
111,119.63,123.87,4
111,119.46,123.74,4
111,119.29,123.62,4
111,119.12,123.49,4
111,118.96,123.37,4
109,118.76,123.22,4
111,118.61,123.10,4
111,118.46,122.98,4
110,118.29,122.85,4
111,118.14,122.73,4
110,117.98,122.60,4
109,117.80,122.47,4
109,117.62,122.33,4
109,117.45,122.20,4
109,117.28,122.07,4
109,117.11,121.94,4
109,116.95,121.81,4
111,116.83,121.70,4
109,116.68,121.57,4
110,116.54,121.46,4
107,116.35,121.31,4
109,116.21,121.19,4
109,116.06,121.07,4
109,115.92,120.95,4
109,115.78,120.83,4
107,115.61,120.69,4
108,115.45,120.56,4
109,115.32,120.45,4
109,115.20,120.33,4
107,115.03,120.20,4
108,114.89,120.08,4
108,114.76,119.96,4
108,114.62,119.84,4
107,114.47,119.71,4
108,114.34,119.59,4
107,114.19,119.46,4
108,114.07,119.35,4
105,113.89,119.21,4
107,113.75,119.08,4
107,113.61,118.96,4
107,113.48,118.84,4
107,113.35,118.73,4
106,113.21,118.60,4
107,113.08,118.48,4
105,112.92,118.35,4
105,112.76,118.21,4
105,112.61,118.08,4
105,112.45,117.95,4
105,112.30,117.82,4
106,112.18,117.70,4
105,112.04,117.58,4
105,111.89,117.45,4
105,111.76,117.33,4
105,111.62,117.20,4
105,111.49,117.08,4
105,111.36,116.96,4
105,111.23,116.84,4
105,111.11,116.72,4
105,110.99,116.60,4
109,110.95,116.53,4
105,110.83,116.41,4
105,110.71,116.30,4
105,110.60,116.19,4
105,110.48,116.07,4
105,110.37,115.96,4
104,110.25,115.84,4
104,110.12,115.73,4
104,110.00,115.61,4
105,109.90,115.50,4
104,109.78,115.39,4
104,109.67,115.27,4
104,109.55,115.16,4
103,109.42,115.04,4
105,109.33,114.94,4
103,109.21,114.82,4
100,109.02,114.67,4
103,108.90,114.55,4
103,108.78,114.44,4
103,108.67,114.32,4
103,108.55,114.21,4
103,108.44,114.10,4
103,108.33,113.99,4
102,108.21,113.87,4
103,108.10,113.76,4
102,107.98,113.64,4
101,107.84,113.52,4
101,107.71,113.39,4
101,107.57,113.27,4
101,107.44,113.14,4
101,107.31,113.02,4
101,107.18,112.90,4
100,107.04,112.77,4
101,106.92,112.66,4
101,106.80,112.54,4
101,106.69,112.42,4
101,106.57,112.31,4
101,106.46,112.20,4
100,106.33,112.07,4
100,106.20,111.95,4
99,106.06,111.82,4
99,105.92,111.70,4
98,105.76,111.56,4
99,105.63,111.43,4
99,105.49,111.31,4
98,105.34,111.18,4
99,105.22,111.05,4
98,105.07,110.92,4
100,104.97,110.81,4
99,104.85,110.70,4
99,104.73,110.58,4
99,104.62,110.46,4
98,104.49,110.34,4
98,104.36,110.22,4
100,104.27,110.11,4
99,104.17,110.00,4
98,104.04,109.88,4
99,103.94,109.77,4
99,103.84,109.67,4
98,103.73,109.55,4
98,103.61,109.43,4
98,103.50,109.32,4
98,103.39,109.21,4
97,103.26,109.08,4
98,103.16,108.97,4
99,103.07,108.87,4
98,102.97,108.76,4
95,102.81,108.63,4
97,102.70,108.51,4
97,102.58,108.40,4
97,102.47,108.28,4
97,102.36,108.17,4
96,102.23,108.05,4
97,102.13,107.94,4
96,102.01,107.82,4
96,101.89,107.70,4
96,101.77,107.58,4
96,101.65,107.47,4
96,101.54,107.35,4
97,101.45,107.25,4
96,101.34,107.14,4
95,101.21,107.01,4
96,101.11,106.90,4
95,100.99,106.78,4
95,100.87,106.67,4
95,100.75,106.55,4
95,100.63,106.43,4
99,100.60,106.36,4
95,100.49,106.25,4
95,100.38,106.13,4
94,100.25,106.01,4
95,100.15,105.90,4
95,100.04,105.79,4
96,99.96,105.70,4
94,99.84,105.58,4
95,99.75,105.47,4
96,99.67,105.38,4
95,99.58,105.27,4
94,99.47,105.16,4
95,99.38,105.06,4
94,99.27,104.95,4
94,99.17,104.84,4
95,99.08,104.74,4
93,98.96,104.62,4
93,98.84,104.51,4
93,98.72,104.39,4
93,98.61,104.28,4
93,98.50,104.17,4
93,98.39,104.05,4
93,98.28,103.94,4
93,98.17,103.83,4
93,98.07,103.73,4
93,97.97,103.62,4
93,97.87,103.51,4
92,97.75,103.40,4
93,97.66,103.29,4
93,97.56,103.19,4
91,97.43,103.07,4
92,97.32,102.96,4
92,97.22,102.85,4
92,97.11,102.74,4
92,97.01,102.63,4
92,96.91,102.53,4
92,96.81,102.42,4
95,96.78,102.35,4
91,96.66,102.23,4
91,96.55,102.12,4
89,96.40,101.99,4
92,96.31,101.89,4
91,96.20,101.78,4
91,96.10,101.67,4
92,96.02,101.58,4
92,95.94,101.48,4
91,95.84,101.38,4
90,95.72,101.26,4
90,95.61,101.15,4
89,95.47,101.03,4
91,95.38,100.93,4
90,95.28,100.82,4
89,95.15,100.70,4
91,95.07,100.60,4
92,95.01,100.52,4
89,94.89,100.40,4
91,94.81,100.31,4
89,94.69,100.20,4
89,94.58,100.08,4
89,94.47,99.97,4
89,94.36,99.86,4
89,94.25,99.75,4
90,94.17,99.66,4
90,94.08,99.56,4
88,93.96,99.44,4
88,93.84,99.33,4
88,93.73,99.22,4
88,93.61,99.10,4
88,93.50,98.99,4
89,93.41,98.89,4
89,93.32,98.79,4
88,93.21,98.69,4
88,93.11,98.58,4
89,93.03,98.48,4
89,92.95,98.39,4
88,92.85,98.29,4
88,92.75,98.18,4
89,92.68,98.09,4
88,92.58,97.99,4
88,92.49,97.89,4
88,92.40,97.79,4
88,92.31,97.69,4
88,92.23,97.60,4
87,92.12,97.49,4
86,92.00,97.38,4
86,91.88,97.26,4
88,91.80,97.17,4
86,91.69,97.06,4
86,91.57,96.95,4
86,91.46,96.84,4
86,91.35,96.73,4
86,91.24,96.62,4
88,91.18,96.54,4
86,91.08,96.43,4
86,90.97,96.33,4
86,90.88,96.22,4
86,90.78,96.12,4
86,90.68,96.02,4
86,90.59,95.92,4
86,90.50,95.82,4
86,90.41,95.72,4
87,90.34,95.63,4
87,90.27,95.55,4
84,90.15,95.43,4
84,90.02,95.32,4
86,89.94,95.22,4
86,89.86,95.13,4
84,89.75,95.02,4
84,89.63,94.91,4
86,89.56,94.82,4
84,89.45,94.71,4
84,89.34,94.61,4
84,89.23,94.50,4
85,89.15,94.41,4
84,89.04,94.30,4
84,88.94,94.20,4
84,88.85,94.10,4
84,88.75,94.00,4
84,88.65,93.90,4
84,88.56,93.80,4
84,88.47,93.70,4
85,88.40,93.61,4
83,88.29,93.51,4
84,88.21,93.41,4
84,88.12,93.32,4
85,88.06,93.23,4
84,87.98,93.14,4
84,87.90,93.05,4
84,87.82,92.96,4
83,87.72,92.86,4
86,87.69,92.79,4
86,87.66,92.72,4
84,87.58,92.64,4
84,87.51,92.55,4
86,87.48,92.48,4
84,87.41,92.40,4
84,87.34,92.31,4
83,87.26,92.22,4
86,87.23,92.16,4
84,87.17,92.08,4
84,87.10,92.00,4
83,87.02,91.91,4
85,86.98,91.84,4
84,86.92,91.76,4
83,86.84,91.67,4
83,86.77,91.59,4
86,86.75,91.53,4
84,86.70,91.45,4
83,86.62,91.37,4
82,86.53,91.28,4
83,86.46,91.19,4
82,86.37,91.10,4
82,86.28,91.01,4
82,86.20,90.92,4
81,86.09,90.82,4
82,86.01,90.73,4
82,85.93,90.65,4
83,85.87,90.57,4
84,85.83,90.50,4
82,85.76,90.42,4
81,85.66,90.32,4
82,85.59,90.24,4
81,85.50,90.15,4
81,85.41,90.06,4
82,85.34,89.98,4
82,85.27,89.90,4
81,85.19,89.81,4
81,85.10,89.72,4
82,85.04,89.64,4
82,84.98,89.57,4
84,84.96,89.51,4
81,84.88,89.43,4
82,84.82,89.35,4
82,84.77,89.28,4
82,84.71,89.20,4
82,84.66,89.13,4
80,84.56,89.04,4
81,84.49,88.96,4
81,84.42,88.88,4
81,84.36,88.80,4
80,84.27,88.71,4
81,84.20,88.64,4
81,84.14,88.56,4
81,84.08,88.49,4
80,83.99,88.40,4
81,83.93,88.33,4
80,83.86,88.24,4
80,83.78,88.16,4
80,83.70,88.08,4
80,83.63,88.00,4
80,83.56,87.92,4
80,83.49,87.84,4
78,83.38,87.74,4
80,83.31,87.66,4
80,83.24,87.59,4
80,83.18,87.51,4
80,83.11,87.44,4
79,83.03,87.35,4
79,82.95,87.27,4
80,82.89,87.20,4
80,82.83,87.12,4
79,82.76,87.04,4
79,82.68,86.96,4
80,82.63,86.89,4
79,82.56,86.81,4
79,82.48,86.74,4
80,82.44,86.67,4
78,82.35,86.58,4
78,82.26,86.50,4
79,82.19,86.42,4
79,82.13,86.35,4
80,82.09,86.28,4
79,82.03,86.21,4
80,81.99,86.15,4
78,81.91,86.07,4
80,81.87,86.01,4
78,81.79,85.93,4
79,81.73,85.86,4
78,81.66,85.78,4
78,81.59,85.70,4
78,81.51,85.62,4
81,81.50,85.58,4
78,81.43,85.50,4
79,81.39,85.44,4
79,81.34,85.37,4
79,81.29,85.31,4
78,81.23,85.23,4
78,81.16,85.16,4
78,81.10,85.09,4
81,81.10,85.05,4
78,81.03,84.98,4
79,80.99,84.92,4
79,80.95,84.86,4
78,80.89,84.79,4
80,80.88,84.74,4
79,80.84,84.69,4
78,80.78,84.62,4
79,80.75,84.56,4
81,80.75,84.53,4
78,80.70,84.46,4
78,80.64,84.40,4
78,80.59,84.33,4
79,80.56,84.28,4
78,80.51,84.22,4
78,80.46,84.16,4
78,80.41,84.09,4
77,80.34,84.02,4
78,80.29,83.96,4
78,80.25,83.90,4
78,80.20,83.84,4
77,80.14,83.78,4
80,80.13,83.74,4
78,80.09,83.68,4
78,80.05,83.62,4
77,79.99,83.56,4
78,79.95,83.50,4
78,79.91,83.45,4
77,79.85,83.38,4
80,79.86,83.35,4
78,79.82,83.30,4
78,79.78,83.24,4
78,79.75,83.19,4
79,79.73,83.15,4
78,79.70,83.10,4
77,79.64,83.04,4
78,79.61,82.99,4
79,79.60,82.95,4
78,79.57,82.90,4
78,79.53,82.85,4
78,79.50,82.80,4
78,79.47,82.75,4
78,79.44,82.70,4
78,79.42,82.66,4
77,79.37,82.60,4
77,79.32,82.54,4
78,79.29,82.50,4
78,79.27,82.45,4
78,79.24,82.41,4
77,79.20,82.35,4
78,79.17,82.31,4
78,79.15,82.27,4
78,79.13,82.22,4
77,79.08,82.17,4
78,79.06,82.13,4
78,79.04,82.09,4
77,79.00,82.04,4
78,78.98,82.00,4
76,78.92,81.94,4
78,78.90,81.90,4
77,78.86,81.85,4
77,78.83,81.80,4
78,78.81,81.76,4
78,78.79,81.73,4
77,78.76,81.68,4
77,78.72,81.63,4
76,78.67,81.58,4
76,78.62,81.52,4
77,78.58,81.47,4
76,78.53,81.42,4
76,78.48,81.37,4
76,78.43,81.31,4
78,78.42,81.28,4
76,78.37,81.23,4
78,78.37,81.19,4
76,78.32,81.14,4
76,78.27,81.09,4
76,78.23,81.04,4
76,78.18,80.99,4
76,78.14,80.94,4
75,78.08,80.88,4
76,78.03,80.83,4
76,77.99,80.78,4
76,77.95,80.73,4
76,77.92,80.69,4
76,77.88,80.64,4
75,77.82,80.58,4
76,77.78,80.54,4
76,77.75,80.49,4
78,77.75,80.47,4
76,77.72,80.42,4
76,77.68,80.38,4
77,77.67,80.35,4
76,77.64,80.30,4
76,77.60,80.26,4
76,77.57,80.22,4
77,77.56,80.18,4
77,77.55,80.15,4
78,77.56,80.13,4
80,77.61,80.13,4
77,77.59,80.10,4
77,77.58,80.07,4
78,77.59,80.05,4
78,77.60,80.03,4
78,77.61,80.01,4
78,77.61,79.99,4
78,77.62,79.97,4
77,77.61,79.94,4
77,77.60,79.91,4
77,77.59,79.88,4
76,77.55,79.84,4
76,77.52,79.80,4
76,77.49,79.76,4
79,77.52,79.76,4
77,77.51,79.73,4
80,77.56,79.73,4
76,77.53,79.69,4
77,77.52,79.67,4
77,77.51,79.64,4
76,77.48,79.60,4
78,77.49,79.59,4
77,77.48,79.56,4
76,77.45,79.53,4
75,77.40,79.48,4
77,77.39,79.46,4
76,77.37,79.42,4
75,77.32,79.38,4
75,77.27,79.33,4
77,77.27,79.31,4
76,77.24,79.28,4
75,77.20,79.23,4
72,77.09,79.16,4
76,77.07,79.13,4
76,77.05,79.10,4
76,77.03,79.07,4
74,76.97,79.02,4
76,76.95,78.99,4
76,76.93,78.96,4
76,76.91,78.93,4
76,76.89,78.90,4
76,76.87,78.87,4
76,76.86,78.84,4
74,76.80,78.79,4
74,76.74,78.74,4
76,76.73,78.72,4
75,76.69,78.68,4
74,76.64,78.63,4
74,76.59,78.59,4
76,76.58,78.56,4
75,76.54,78.52,4
75,76.51,78.49,4
74,76.46,78.44,4
76,76.45,78.42,4
75,76.43,78.39,4
74,76.38,78.34,4
75,76.35,78.31,4
75,76.32,78.28,4
75,76.30,78.24,4
74,76.25,78.20,4
74,76.20,78.16,4
75,76.18,78.13,4
74,76.14,78.09,4
74,76.09,78.04,4
76,76.09,78.02,4
75,76.07,77.99,4
74,76.03,77.95,4
76,76.03,77.93,4
75,76.01,77.91,4
75,75.99,77.88,4
74,75.95,77.84,4
74,75.91,77.80,4
74,75.87,77.76,4
75,75.85,77.73,4
74,75.82,77.70,4
74,75.78,77.66,4
76,75.78,77.64,4
76,75.79,77.63,4
74,75.75,77.59,4
76,75.76,77.57,4
74,75.72,77.54,4
75,75.71,77.51,4
74,75.67,77.48,4
74,75.64,77.44,4
74,75.61,77.41,4
75,75.60,77.38,4
74,75.56,77.35,4
74,75.53,77.32,4
75,75.52,77.29,4
74,75.49,77.26,4
74,75.46,77.23,4
74,75.43,77.20,4
73,75.38,77.15,4
74,75.36,77.12,4
74,75.33,77.09,4
74,75.30,77.06,4
74,75.28,77.03,4
74,75.25,77.00,4
75,75.25,76.98,4
74,75.22,76.95,4
74,75.20,76.92,4
75,75.19,76.90,4
73,75.15,76.86,4
74,75.13,76.83,4
74,75.10,76.81,4
74,75.08,76.78,4
75,75.08,76.76,4
74,75.06,76.73,4
74,75.04,76.70,4
74,75.02,76.68,4
76,75.04,76.67,4
74,75.02,76.64,4
74,74.99,76.62,4
74,74.97,76.59,4
74,74.96,76.57,4
74,74.94,76.54,4
74,74.92,76.51,4
74,74.90,76.49,4
74,74.88,76.46,4
74,74.86,76.44,4
74,74.85,76.42,4
74,74.83,76.39,4
75,74.83,76.38,4
74,74.82,76.35,4
74,74.80,76.33,4
76,74.82,76.33,4
74,74.81,76.30,4
74,74.79,76.28,4
74,74.78,76.26,4
74,74.76,76.23,4
76,74.78,76.23,4
80,74.89,76.27,4
76,74.91,76.27,4
76,74.93,76.26,4
77,74.97,76.27,4
76,74.99,76.27,4
74,74.97,76.25,4
76,75.00,76.24,4
75,75.00,76.23,4
75,75.00,76.22,4
76,75.02,76.22,4
76,75.04,76.22,4
76,75.05,76.21,4
76,75.07,76.21,4
76,75.09,76.21,4
76,75.11,76.21,4
75,75.11,76.19,4
73,75.07,76.16,4
76,75.08,76.16,4
75,75.08,76.15,4
74,75.06,76.13,4
76,75.08,76.13,4
76,75.10,76.13,4
75,75.10,76.11,4
74,75.07,76.09,4
78,75.13,76.11,4
76,75.15,76.11,4
76,75.17,76.11,4
76,75.18,76.11,4
76,75.20,76.11,4
76,75.22,76.11,4
76,75.23,76.11,4
76,75.25,76.10,4
78,75.30,76.12,4
76,75.32,76.12,4
75,75.31,76.11,4
75,75.30,76.10,4
77,75.34,76.11,4
76,75.35,76.11,4
76,75.36,76.11,4
76,75.38,76.11,4
76,75.39,76.10,4
76,75.40,76.10,4
76,75.41,76.10,4
77,75.45,76.11,4
77,75.48,76.12,4
76,75.49,76.12,4
76,75.50,76.12,4
77,75.53,76.13,4
77,75.56,76.14,4
77,75.59,76.14,4
79,75.65,76.17,4
81,75.76,76.22,4
79,75.83,76.25,4
80,75.91,76.29,4
81,76.01,76.33,4
79,76.07,76.36,4
81,76.17,76.41,4
80,76.25,76.44,4
82,76.36,76.50,4
80,76.43,76.53,4
80,76.50,76.57,4
80,76.57,76.60,4
82,76.68,76.66,4
81,76.77,76.70,4
81,76.85,76.74,4
80,76.92,76.78,4
82,77.02,76.83,4
82,77.12,76.88,4
83,77.24,76.94,4
82,77.33,76.99,4
82,77.42,77.04,4
84,77.56,77.11,4
83,77.67,77.17,4
83,77.77,77.23,4
85,77.92,77.31,4
84,78.04,77.37,4
83,78.14,77.43,4
82,78.21,77.47,4
83,78.31,77.53,4
83,78.40,77.58,4
84,78.52,77.65,4
84,78.63,77.71,4
84,78.73,77.77,4
84,78.84,77.84,4
84,78.94,77.90,4
84,79.04,77.96,4
85,79.16,78.03,4
84,79.26,78.09,4
84,79.35,78.15,4
86,79.49,78.23,4
86,79.62,78.31,4
86,79.74,78.38,4
86,79.87,78.46,4
86,79.99,78.53,4
87,80.13,78.62,4
86,80.25,78.69,4
88,80.40,78.79,4
88,80.56,78.88,4
89,80.73,78.98,4
88,80.87,79.07,4
90,81.05,79.18,4
92,81.27,79.31,4
93,81.51,79.44,4
92,81.72,79.57,4
92,81.92,79.69,4
92,82.12,79.82,4
92,82.32,79.94,4
92,82.52,80.06,4
92,82.70,80.18,4
92,82.89,80.30,4
91,83.05,80.40,4
92,83.23,80.52,4
94,83.45,80.65,4
92,83.62,80.77,4
93,83.81,80.89,4
98,84.09,81.06,4
94,84.29,81.19,4
96,84.52,81.34,4
95,84.73,81.48,4
96,84.96,81.62,4
96,85.18,81.76,4
96,85.39,81.91,4
96,85.61,82.05,4
95,85.79,82.18,4
98,86.04,82.34,4
96,86.24,82.47,4
96,86.43,82.61,4
98,86.66,82.76,4
97,86.87,82.90,4
97,87.07,83.04,4
97,87.27,83.18,4
97,87.47,83.32,4
100,87.72,83.49,4
100,87.96,83.65,4
102,88.24,83.84,4
101,88.50,84.01,4
102,88.77,84.19,4
101,89.01,84.36,4
100,89.23,84.51,4
101,89.47,84.68,4
101,89.70,84.84,4
101,89.93,85.00,4
103,90.19,85.18,4
103,90.44,85.36,4
102,90.67,85.53,4
103,90.92,85.70,4
101,91.12,85.86,4
103,91.36,86.03,4
103,91.59,86.20,4
101,91.78,86.34,4
101,91.97,86.49,4
102,92.17,86.65,4
103,92.38,86.81,4
102,92.57,86.96,4
103,92.78,87.12,4
104,93.01,87.29,4
103,93.21,87.45,4
103,93.40,87.60,4
103,93.60,87.76,4
104,93.80,87.92,4
104,94.01,88.08,4
104,94.21,88.24,4
104,94.40,88.40,4
104,94.60,88.55,4
103,94.76,88.70,4
108,95.03,88.89,4
106,95.25,89.06,4
106,95.46,89.23,4
107,95.69,89.41,4
106,95.90,89.58,4
108,96.14,89.76,4
107,96.36,89.93,4
109,96.61,90.12,4
109,96.86,90.31,4
109,97.10,90.50,4
108,97.32,90.67,4
109,97.55,90.86,4
109,97.78,91.04,4
108,97.99,91.21,4
108,98.19,91.38,4
109,98.40,91.55,4
107,98.58,91.71,4
109,98.78,91.88,4
108,98.97,92.04,4
109,99.17,92.21,4
109,99.37,92.38,4
108,99.54,92.53,4
108,99.71,92.69,4
109,99.89,92.85,4
109,100.08,93.01,4
108,100.23,93.16,4
109,100.41,93.32,4
109,100.58,93.48,4
110,100.77,93.64,4
110,100.95,93.81,4
109,101.11,93.96,4
109,101.27,94.11,4
110,101.45,94.27,4
109,101.60,94.42,4
110,101.77,94.57,4
110,101.93,94.73,4
110,102.09,94.88,4
110,102.25,95.03,4
111,102.43,95.19,4
111,102.60,95.35,4
114,102.82,95.53,4
111,102.99,95.69,4
114,103.21,95.87,4
114,103.42,96.05,4
113,103.62,96.22,4
113,103.80,96.39,4
113,103.99,96.56,4
114,104.19,96.73,4
112,104.34,96.88,4
113,104.52,97.04,4
114,104.71,97.21,4
111,104.83,97.35,4
118,105.10,97.56,4
114,105.27,97.72,4
115,105.47,97.90,4
117,105.70,98.09,4
116,105.91,98.27,4
118,106.15,98.46,4
116,106.34,98.64,4
119,106.60,98.84,4
118,106.83,99.03,4
118,107.05,99.22,4
118,107.27,99.41,4
119,107.50,99.61,4
118,107.71,99.79,4
119,107.94,99.98,4
120,108.18,100.18,4
120,108.42,100.38,4
120,108.65,100.58,4
121,108.89,100.78,4
121,109.14,100.98,4
124,109.43,101.21,4
122,109.69,101.42,4
123,109.95,101.64,4
123,110.21,101.85,4
124,110.49,102.07,4
125,110.78,102.30,4
125,111.06,102.53,4
127,111.38,102.77,4
124,111.63,102.99,4
126,111.92,103.22,4
125,112.18,103.43,4
125,112.44,103.65,4
127,112.73,103.88,4
125,112.98,104.09,4
125,113.22,104.30,4
127,113.49,104.53,4
129,113.80,104.78,4
131,114.15,105.04,4
129,114.44,105.28,4
129,114.73,105.51,4
129,115.02,105.75,4
132,115.36,106.01,4
133,115.71,106.28,4
133,116.06,106.55,4
133,116.40,106.81,4
134,116.75,107.09,4
136,117.13,107.37,4
136,117.51,107.66,4
135,117.86,107.93,4
135,118.20,108.20,4
137,118.58,108.49,4
136,118.93,108.77,4
138,119.31,109.06,4
137,119.66,109.34,4
137,120.01,109.62,4
137,120.35,109.89,4
137,120.68,110.16,4
137,121.01,110.43,4
139,121.37,110.72,4
138,121.70,110.99,4
138,122.03,111.26,4
137,122.33,111.52,4
139,122.66,111.79,4
140,123.01,112.07,4
140,123.35,112.35,4
141,123.70,112.64,4
141,124.05,112.92,4
141,124.39,113.20,4
142,124.74,113.49,4
142,125.08,113.78,4
142,125.42,114.06,4
143,125.77,114.35,4
145,126.16,114.65,4
145,126.53,114.96,4
145,126.90,115.26,4
145,127.27,115.56,4
145,127.62,115.85,4
144,127.95,116.13,4
144,128.27,116.41,4
145,128.60,116.70,4
145,128.93,116.98,4
145,129.25,117.26,4
145,129.57,117.54,4
145,129.88,117.81,4
145,130.18,118.08,4
145,130.48,118.35,4
145,130.77,118.62,4
145,131.05,118.88,4
145,131.33,119.14,4
145,131.60,119.40,4
146,131.89,119.67,4
146,132.17,119.93,4
145,132.43,120.18,4
145,132.68,120.43,4
149,133.01,120.72,4
148,133.31,120.99,4
149,133.62,121.27,4
149,133.93,121.55,4
148,134.21,121.81,4
149,134.51,122.08,4
147,134.76,122.33,4
147,135.00,122.58,4
150,135.30,122.85,4
148,135.55,123.10,4
148,135.80,123.35,4
148,136.05,123.60,4
151,136.35,123.87,4
149,136.60,124.12,4
148,136.83,124.36,4
148,137.05,124.60,4
148,137.27,124.83,4
147,137.46,125.06,4
147,137.66,125.28,4
147,137.84,125.49,4
147,138.03,125.71,4
147,138.20,125.92,4
147,138.38,126.13,4
148,138.57,126.35,4
147,138.74,126.56,4
147,138.91,126.76,4
148,139.09,126.97,4
147,139.25,127.17,4
145,139.36,127.35,4
147,139.51,127.55,4
147,139.66,127.74,4
147,139.81,127.94,4
148,139.98,128.14,4
148,140.14,128.33,4
148,140.29,128.53,4
147,140.43,128.72,4
147,140.56,128.90,4
147,140.69,129.08,4
146,140.79,129.25,4
146,140.90,129.42,4
145,140.98,129.57,4
145,141.06,129.73,4
144,141.12,129.87,4
145,141.20,130.02,4
145,141.27,130.17,4
146,141.37,130.33,4
145,141.44,130.48,4
145,141.51,130.62,4
144,141.56,130.75,4
145,141.63,130.90,4
144,141.68,131.03,4
144,141.72,131.16,4
145,141.79,131.30,4
145,141.85,131.43,4
144,141.90,131.56,4
143,141.92,131.67,4
144,141.96,131.80,4
145,142.02,131.93,4
143,142.04,132.04,4
143,142.06,132.15,4
143,142.08,132.26,4
143,142.10,132.36,4
143,142.11,132.47,4
143,142.13,132.58,4
143,142.15,132.68,4
143,142.17,132.78,4
143,142.18,132.89,4
143,142.20,132.99,4
143,142.22,133.09,4
143,142.23,133.19,4
143,142.25,133.28,4
143,142.26,133.38,4
143,142.28,133.48,4
143,142.29,133.57,4
142,142.29,133.66,4
141,142.26,133.73,4
141,142.23,133.80,4
142,142.23,133.89,4
142,142.23,133.97,4
141,142.20,134.04,4
141,142.18,134.11,4
141,142.15,134.18,4
141,142.13,134.24,4
140,142.09,134.30,4
139,142.03,134.35,4
140,141.99,134.40,4
140,141.95,134.46,4
140,141.91,134.52,4
140,141.87,134.57,4
140,141.83,134.63,4
139,141.77,134.67,4
140,141.74,134.72,4
140,141.70,134.78,4
139,141.65,134.82,4
139,141.60,134.86,4
140,141.57,134.91,4
139,141.51,134.95,4
138,141.44,134.98,4
137,141.35,135.00,4
137,141.27,135.02,4
137,141.18,135.04,4
137,141.10,135.06,4
137,141.02,135.08,4
137,140.94,135.10,4
137,140.86,135.12,4
136,140.76,135.13,4
136,140.67,135.14,4
136,140.57,135.15,4
135,140.46,135.14,4
136,140.37,135.15,4
135,140.26,135.15,4
135,140.16,135.15,4
135,140.06,135.15,4
135,139.95,135.15,4
135,139.86,135.14,4
135,139.76,135.14,4
133,139.62,135.12,4
134,139.51,135.11,4
134,139.40,135.10,4
133,139.27,135.08,4
133,139.15,135.06,4
133,139.02,135.04,4
131,138.86,135.00,4
133,138.75,134.98,4
133,138.63,134.96,4
132,138.50,134.93,4
131,138.35,134.89,4
133,138.24,134.87,4
132,138.12,134.84,4
131,137.97,134.80,4
132,137.86,134.77,4
131,137.72,134.74,4
131,137.58,134.70,4
131,137.45,134.66,4
131,137.32,134.63,4
130,137.18,134.58,4
131,137.05,134.54,4
130,136.91,134.50,4
131,136.79,134.46,4
129,136.64,134.41,4
129,136.49,134.35,4
129,136.34,134.30,4
129,136.19,134.25,4
129,136.04,134.20,4
131,135.94,134.16,4
129,135.81,134.11,4
129,135.67,134.06,4
129,135.54,134.01,4
129,135.40,133.96,4
129,135.28,133.91,4
128,135.13,133.85,4
128,134.99,133.79,4
128,134.85,133.73,4
129,134.73,133.69,4
128,134.60,133.63,4
127,134.45,133.56,4
127,134.30,133.50,4
128,134.17,133.44,4
127,134.03,133.38,4
128,133.91,133.33,4
127,133.77,133.26,4
127,133.63,133.20,4
127,133.50,133.14,4
127,133.37,133.08,4
125,133.20,133.00,4
127,133.08,132.94,4
127,132.96,132.88,5
126,132.82,132.81,5
126,132.68,132.74,6
126,132.55,132.67,6
125,132.40,132.60,6
126,132.27,132.53,6
127,132.16,132.47,6
125,132.02,132.40,6
125,131.88,132.33,6
125,131.74,132.25,6
127,131.65,132.20,6
122,131.45,132.10,6
125,131.33,132.03,6
125,131.20,131.96,6
124,131.06,131.88,6
125,130.93,131.81,6
124,130.80,131.73,6
124,130.66,131.65,6
124,130.53,131.58,6
124,130.40,131.50,6
123,130.25,131.42,6
124,130.12,131.34,6
123,129.98,131.26,6
124,129.86,131.19,6
124,129.74,131.11,6
123,129.61,131.03,6
123,129.48,130.95,6
123,129.35,130.87,6
123,129.22,130.79,6
123,129.10,130.72,6
121,128.93,130.62,6
122,128.80,130.53,6
122,128.66,130.45,6
123,128.55,130.37,6
121,128.40,130.28,6
121,128.25,130.19,6
121,128.10,130.09,6
121,127.96,130.00,6
121,127.82,129.91,6
121,127.68,129.82,6
121,127.55,129.74,6
121,127.42,129.65,6
121,127.29,129.56,6
121,127.17,129.48,6
121,127.04,129.39,6
120,126.90,129.30,6
120,126.76,129.20,6
120,126.63,129.11,6
120,126.50,129.02,6
120,126.37,128.93,6
119,126.22,128.83,6
119,126.07,128.73,6
119,125.93,128.64,6
119,125.79,128.54,6
119,125.66,128.44,6
119,125.52,128.35,6
118,125.37,128.25,6
118,125.23,128.14,6
118,125.08,128.04,6
117,124.92,127.93,6
118,124.78,127.83,6
119,124.67,127.74,6
117,124.51,127.64,6
117,124.36,127.53,6
118,124.24,127.44,6
119,124.13,127.35,6
117,123.99,127.25,6
117,123.85,127.15,6
117,123.71,127.04,6
117,123.58,126.94,6
117,123.45,126.84,6
117,123.32,126.75,6
118,123.21,126.66,6
117,123.09,126.56,6
117,122.96,126.47,6
116,122.83,126.36,6
117,122.71,126.27,6
115,122.55,126.15,6
117,122.44,126.06,6
116,122.31,125.96,6
115,122.17,125.85,6
115,122.03,125.74,6
117,121.92,125.66,6
116,121.81,125.56,6
116,121.69,125.46,6
115,121.56,125.36,6
115,121.43,125.26,6
115,121.30,125.15,6
116,121.19,125.06,6
116,121.09,124.97,6
116,120.99,124.88,6
116,120.89,124.79,6
115,120.77,124.70,6
117,120.69,124.62,6
116,120.60,124.53,6
117,120.53,124.46,6
116,120.44,124.37,6
117,120.37,124.30,6
115,120.26,124.21,6
117,120.19,124.13,6
116,120.11,124.05,6
116,120.03,123.97,6
116,119.95,123.89,6
115,119.85,123.80,6
115,119.75,123.72,6
115,119.66,123.63,6
115,119.56,123.54,6
115,119.47,123.46,6
115,119.38,123.37,6
115,119.30,123.29,6
115,119.21,123.21,6
115,119.13,123.12,6
115,119.04,123.04,6
114,118.94,122.95,6
114,118.84,122.86,6
115,118.77,122.78,6
115,118.69,122.71,6
113,118.58,122.61,6
113,118.47,122.51,6
111,118.32,122.40,6
114,118.23,122.31,6
113,118.13,122.22,6
113,118.02,122.13,6
113,117.92,122.04,6
113,117.82,121.95,6
113,117.73,121.86,6
113,117.63,121.77,6
111,117.50,121.66,6
113,117.41,121.57,6
113,117.32,121.49,6
112,117.22,121.39,6
111,117.09,121.29,6
111,116.97,121.19,6
111,116.85,121.08,6
111,116.73,120.98,6
111,116.62,120.88,6
111,116.51,120.79,6
112,116.42,120.70,6
111,116.31,120.60,6
111,116.20,120.50,6
111,116.10,120.41,6
110,115.98,120.31,6
109,115.84,120.19,6
110,115.72,120.09,6
112,115.64,120.01,6
111,115.55,119.92,6
111,115.46,119.83,6
110,115.35,119.73,6
111,115.26,119.64,6
110,115.16,119.55,6
110,115.06,119.45,6
109,114.94,119.35,6
111,114.86,119.26,6
110,114.76,119.17,6
110,114.66,119.08,6
109,114.55,118.98,6
109,114.44,118.88,6
109,114.33,118.78,6
109,114.22,118.68,6
110,114.14,118.60,6
105,113.96,118.46,6
109,113.86,118.37,6
108,113.74,118.26,6
109,113.65,118.17,6
107,113.51,118.06,6
108,113.40,117.96,6
109,113.31,117.87,6
109,113.23,117.78,6
109,113.14,117.69,6
110,113.08,117.61,6
108,112.98,117.52,6
109,112.90,117.43,6
109,112.82,117.35,6
109,112.75,117.26,6
109,112.67,117.18,6
109,112.60,117.10,6
109,112.53,117.02,6
109,112.45,116.94,6
109,112.39,116.86,6
109,112.32,116.78,6
109,112.25,116.70,6
109,112.19,116.63,6
108,112.10,116.54,6
109,112.04,116.46,6
109,111.98,116.39,6
107,111.88,116.30,6
109,111.82,116.22,6
108,111.75,116.14,6
107,111.65,116.05,6
108,111.58,115.97,6
107,111.49,115.88,6
108,111.42,115.80,6
107,111.33,115.71,6
107,111.24,115.63,6
107,111.16,115.54,6
107,111.07,115.45,6
107,110.99,115.37,6
107,110.91,115.29,6
107,110.83,115.20,6
107,110.76,115.12,6
107,110.68,115.04,6
107,110.61,114.96,6
105,110.50,114.86,6
107,110.43,114.78,6
107,110.36,114.70,6
105,110.25,114.61,6
106,110.17,114.52,6
105,110.06,114.42,6
105,109.96,114.33,6
105,109.86,114.24,6
105,109.77,114.14,6
105,109.67,114.05,6
105,109.58,113.96,6
105,109.48,113.87,6
105,109.40,113.78,6
105,109.31,113.70,6
104,109.20,113.60,6
104,109.10,113.50,6
105,109.02,113.42,6
104,108.91,113.32,6
105,108.84,113.24,6
104,108.74,113.15,6
104,108.65,113.06,6
104,108.55,112.97,6
106,108.50,112.90,6
104,108.41,112.81,6
103,108.30,112.71,6
104,108.22,112.62,6
103,108.11,112.53,6
105,108.05,112.45,6
104,107.97,112.37,6
104,107.89,112.28,6
103,107.79,112.19,6
103,107.70,112.10,6
103,107.60,112.01,6
104,107.53,111.93,6
103,107.44,111.84,6
103,107.35,111.75,6
103,107.26,111.66,6
103,107.18,111.58,6
103,107.09,111.49,6
103,107.01,111.41,6
102,106.91,111.31,6
103,106.83,111.23,6
103,106.76,111.15,6
101,106.64,111.04,6
102,106.55,110.95,6
101,106.44,110.85,6
101,106.33,110.76,6
101,106.22,110.66,6
101,106.12,110.56,6
101,106.02,110.47,6
103,105.96,110.39,6
101,105.86,110.30,6
102,105.78,110.21,6
101,105.68,110.12,6
102,105.61,110.04,6
101,105.52,109.95,6
103,105.47,109.88,6
103,105.42,109.81,6
101,105.33,109.72,6
101,105.24,109.64,6
101,105.16,109.55,6
102,105.10,109.48,6
101,105.01,109.39,6
102,104.95,109.32,6
101,104.87,109.23,6
101,104.80,109.15,6
101,104.72,109.07,6
101,104.65,108.99,6
101,104.57,108.91,6
100,104.48,108.82,6
100,104.39,108.73,6
101,104.32,108.65,6
101,104.26,108.58,6
101,104.19,108.50,6
101,104.13,108.43,6
100,104.05,108.34,6
101,103.99,108.27,6
100,103.91,108.19,6
100,103.83,108.10,6
100,103.75,108.02,6
101,103.70,107.95,6
99,103.60,107.86,6
100,103.53,107.79,6
99,103.44,107.70,6
99,103.35,107.61,6
99,103.26,107.52,6
100,103.20,107.45,6
98,103.09,107.35,6
100,103.03,107.28,6
99,102.95,107.20,6
97,102.83,107.10,6
98,102.74,107.01,6
98,102.64,106.92,6
98,102.55,106.83,6
98,102.46,106.74,6
98,102.37,106.65,6
98,102.28,106.56,6
98,102.20,106.48,6
98,102.11,106.39,6
98,102.03,106.31,6
98,101.95,106.23,6
99,101.89,106.15,6
98,101.81,106.07,6
98,101.74,105.99,6
97,101.64,105.90,6
98,101.57,105.82,6
98,101.50,105.74,6
98,101.43,105.67,6
98,101.36,105.59,6
98,101.29,105.51,6
98,101.23,105.44,6
97,101.14,105.36,6
96,101.04,105.26,6
102,101.06,105.23,6
97,100.98,105.15,6
97,100.90,105.07,6
96,100.80,104.97,6
96,100.70,104.88,6
96,100.61,104.80,6
97,100.54,104.72,6
96,100.45,104.63,6
96,100.36,104.54,6
96,100.27,104.46,6
96,100.18,104.37,6
96,100.10,104.29,6
98,100.06,104.23,6
95,99.96,104.14,6
96,99.88,104.05,6
95,99.78,103.96,6
95,99.69,103.87,6
97,99.63,103.81,6
95,99.54,103.72,6
95,99.45,103.63,6
95,99.36,103.54,6
95,99.27,103.46,6
95,99.19,103.37,6
96,99.12,103.30,6
95,99.04,103.22,6
95,98.96,103.13,6
94,98.86,103.04,6
94,98.76,102.95,6
95,98.69,102.87,6
96,98.63,102.80,6
94,98.54,102.72,6
94,98.45,102.63,6
94,98.36,102.54,6
93,98.25,102.45,6
93,98.15,102.35,6
93,98.05,102.26,6
93,97.95,102.17,6
93,97.85,102.08,6
93,97.75,101.98,6
93,97.65,101.90,6
93,97.56,101.81,6
92,97.45,101.71,6
93,97.36,101.62,6
93,97.27,101.53,6
92,97.17,101.44,6
94,97.11,101.36,6
93,97.02,101.28,6
94,96.96,101.21,6
92,96.86,101.12,6
93,96.79,101.04,6
93,96.71,100.95,6
93,96.64,100.88,6
93,96.56,100.80,6
93,96.49,100.72,6
92,96.40,100.63,6
96,96.39,100.59,6
92,96.31,100.50,6
92,96.22,100.41,6
93,96.16,100.34,6
92,96.07,100.26,6
92,95.99,100.17,6
92,95.91,100.09,6
93,95.85,100.02,6
91,95.76,99.93,6
90,95.64,99.83,6
92,95.57,99.75,6
92,95.50,99.68,6
91,95.41,99.59,6
90,95.30,99.49,6
91,95.21,99.41,6
91,95.13,99.32,6
91,95.05,99.24,6
92,94.99,99.17,6
90,94.89,99.08,6
91,94.81,99.00,6
90,94.71,98.91,6
91,94.64,98.83,6
90,94.54,98.74,6
90,94.45,98.65,6
91,94.38,98.58,6
90,94.30,98.49,6
90,94.21,98.40,6
90,94.13,98.32,6
90,94.04,98.24,6
90,93.96,98.15,6
90,93.88,98.07,6
89,93.79,97.98,6
90,93.71,97.90,6
89,93.62,97.81,6
89,93.52,97.73,6
90,93.45,97.65,6
92,93.42,97.59,6
94,93.44,97.56,6
89,93.35,97.47,6
90,93.28,97.40,6
90,93.21,97.32,6
89,93.13,97.24,6
89,93.05,97.16,6
90,92.99,97.08,6
90,92.93,97.01,6
88,92.83,96.92,6
88,92.73,96.83,6
88,92.64,96.75,6
89,92.56,96.67,6
89,92.49,96.59,6
88,92.40,96.51,6
89,92.34,96.43,6
89,92.27,96.36,6
87,92.16,96.26,6
88,92.08,96.18,6
88,92.00,96.10,6
88,91.92,96.02,6
88,91.84,95.94,6
88,91.76,95.86,6
88,91.69,95.78,6
88,91.61,95.70,6
88,91.54,95.62,6
88,91.47,95.55,6
88,91.40,95.47,6
88,91.33,95.40,6
88,91.27,95.32,6
88,91.20,95.25,6
88,91.14,95.18,6
89,91.10,95.12,6
88,91.03,95.05,6
88,90.97,94.98,6
88,90.91,94.91,6
88,90.85,94.84,6
87,90.78,94.76,6
88,90.72,94.69,6
88,90.67,94.62,6
88,90.61,94.56,6
88,90.56,94.49,6
86,90.47,94.41,6
87,90.40,94.33,6
88,90.35,94.27,6
87,90.29,94.20,6
86,90.20,94.11,6
88,90.16,94.05,6
87,90.09,93.98,6
87,90.03,93.91,6
86,89.95,93.83,6
86,89.87,93.76,6
87,89.81,93.69,6
86,89.74,93.61,6
88,89.70,93.56,6
86,89.63,93.48,6
86,89.56,93.40,6
86,89.49,93.33,6
88,89.46,93.28,6
86,89.39,93.20,6
86,89.32,93.13,6
86,89.25,93.06,6
86,89.19,92.99,6
86,89.12,92.92,6
86,89.06,92.85,6
86,89.00,92.78,6
86,88.94,92.72,6
85,88.86,92.64,6
85,88.78,92.56,6
86,88.73,92.50,6
85,88.65,92.42,6
85,88.58,92.35,6
86,88.53,92.28,6
86,88.48,92.22,6
86,88.43,92.16,6
85,88.36,92.09,6
85,88.29,92.02,6
88,88.29,91.98,6
84,88.20,91.90,6
85,88.14,91.83,6
86,88.09,91.77,6
87,88.07,91.72,6
84,87.99,91.64,6
85,87.93,91.58,6
86,87.89,91.52,6
85,87.84,91.46,6
86,87.80,91.40,6
84,87.72,91.33,6
86,87.69,91.27,6
84,87.61,91.20,6
84,87.54,91.13,6
84,87.47,91.06,6
86,87.44,91.01,6
84,87.37,90.94,6
84,87.31,90.87,6
83,87.22,90.79,6
84,87.16,90.72,6
84,87.09,90.65,6
84,87.03,90.59,6
84,86.97,90.52,6
83,86.89,90.45,6
86,86.87,90.40,6
83,86.79,90.33,6
83,86.72,90.26,6
85,86.68,90.20,6
84,86.63,90.14,6
82,86.54,90.06,6
82,86.45,89.98,6
84,86.40,89.92,6
84,86.35,89.86,6
82,86.26,89.78,6
83,86.20,89.71,6
83,86.13,89.65,6
82,86.05,89.57,6
82,85.97,89.49,6
82,85.89,89.42,6
86,85.89,89.38,6
82,85.82,89.31,6
82,85.74,89.24,6
82,85.66,89.17,6
84,85.63,89.11,6
82,85.56,89.04,6
82,85.49,88.97,6
82,85.42,88.90,6
82,85.35,88.83,6
81,85.26,88.76,6
82,85.20,88.69,6
82,85.13,88.62,6
81,85.05,88.54,6
81,84.97,88.47,6
80,84.87,88.38,6
80,84.77,88.30,6
79,84.66,88.21,6
81,84.58,88.14,6
80,84.49,88.05,6
79,84.38,87.96,6
81,84.31,87.89,6
81,84.25,87.83,6
80,84.16,87.75,6
81,84.10,87.68,6
81,84.04,87.61,6
81,83.98,87.55,6
82,83.94,87.49,6
82,83.90,87.44,6
82,83.86,87.38,6
82,83.82,87.33,6
81,83.77,87.26,6
82,83.73,87.21,6
81,83.68,87.15,6
80,83.60,87.08,6
82,83.57,87.03,6
81,83.52,86.97,6
82,83.49,86.92,6
80,83.42,86.85,6
80,83.35,86.78,6
79,83.26,86.70,6
82,83.24,86.66,6
80,83.17,86.59,6
81,83.13,86.53,6
80,83.07,86.47,6
80,83.01,86.40,6
80,82.95,86.34,6
79,82.87,86.27,6
81,82.83,86.21,6
80,82.77,86.15,6
80,82.72,86.09,6
79,82.64,86.02,6
79,82.57,85.95,6
80,82.52,85.89,6
79,82.45,85.82,6
79,82.38,85.75,6
79,82.31,85.68,6
80,82.27,85.63,6
80,82.22,85.57,6
79,82.16,85.51,6
78,82.07,85.43,6
79,82.01,85.37,6
79,81.95,85.30,6
78,81.87,85.23,6
79,81.82,85.17,6
81,81.80,85.13,6
79,81.74,85.06,6
79,81.69,85.00,6
78,81.61,84.93,6
81,81.60,84.89,6
79,81.55,84.83,6
79,81.50,84.78,6
79,81.45,84.72,6
80,81.42,84.67,6
79,81.37,84.61,6
79,81.32,84.56,6
78,81.26,84.49,6
79,81.21,84.44,6
79,81.17,84.38,6
78,81.11,84.32,6
78,81.04,84.26,6
79,81.00,84.20,6
80,80.98,84.16,6
78,80.92,84.10,6
78,80.86,84.04,6
79,80.83,83.99,6
79,80.79,83.94,6
78,80.73,83.88,6
78,80.68,83.82,6
79,80.65,83.77,6
80,80.63,83.74,6
78,80.58,83.68,6
78,80.53,83.62,6
78,80.48,83.56,6
79,80.45,83.52,6
79,80.42,83.47,6
78,80.37,83.42,6
78,80.32,83.37,6
78,80.28,83.31,6
78,80.23,83.26,6
78,80.19,83.21,6
78,80.14,83.15,6
78,80.10,83.10,6
76,80.02,83.03,6
76,79.94,82.96,6
77,79.88,82.90,6
77,79.82,82.84,6
78,79.79,82.79,6
78,79.75,82.75,6
77,79.69,82.69,6
76,79.62,82.62,6
77,79.57,82.57,6
78,79.54,82.52,6
78,79.51,82.47,6
76,79.44,82.41,6
76,79.37,82.35,6
77,79.32,82.29,6
77,79.27,82.24,6
76,79.21,82.18,6
76,79.14,82.12,6
76,79.08,82.05,6
75,79.00,81.98,6
76,78.94,81.92,6
76,78.88,81.86,6
77,78.84,81.82,6
76,78.79,81.76,6
76,78.73,81.70,6
76,78.68,81.64,6
76,78.62,81.59,6
77,78.59,81.54,6
76,78.54,81.49,6
76,78.49,81.43,6
75,78.42,81.37,6
77,78.39,81.32,6
76,78.34,81.27,6
76,78.29,81.22,6
76,78.25,81.16,6
76,78.20,81.11,6
76,78.16,81.06,6
76,78.12,81.01,6
76,78.07,80.96,6
75,78.01,80.90,6
76,77.97,80.85,6
76,77.93,80.80,6
76,77.89,80.76,6
76,77.86,80.71,6
76,77.82,80.66,6
76,77.78,80.61,6
77,77.77,80.58,6
76,77.73,80.53,6
76,77.70,80.49,6
76,77.66,80.44,6
76,77.63,80.40,6
76,77.60,80.35,6
76,77.57,80.31,6
76,77.53,80.27,6
76,77.50,80.22,6
77,77.49,80.19,6
76,77.46,80.15,6
76,77.43,80.11,6
76,77.41,80.07,6
78,77.42,80.05,6
76,77.39,80.01,6
75,77.34,79.96,6
76,77.31,79.92,6
76,77.29,79.88,6
77,77.28,79.85,6
76,77.26,79.81,6
75,77.21,79.76,6
77,77.21,79.73,6
77,77.20,79.71,6
75,77.16,79.66,6
75,77.12,79.61,6
76,77.09,79.58,6
74,77.03,79.52,6
76,77.01,79.49,6
74,76.95,79.43,6
76,76.93,79.40,6
74,76.87,79.34,6
74,76.82,79.29,6
74,76.76,79.24,6
75,76.72,79.19,6
74,76.67,79.14,6
74,76.62,79.09,6
74,76.56,79.04,6
75,76.53,79.00,6
74,76.48,78.95,6
74,76.43,78.90,6
74,76.38,78.85,6
75,76.36,78.81,6
74,76.31,78.77,6
74,76.26,78.72,6
74,76.22,78.67,6
74,76.17,78.62,6
75,76.15,78.59,6
74,76.11,78.54,6
75,76.08,78.51,6
73,76.02,78.45,6
74,75.98,78.41,6
74,75.94,78.36,6
75,75.92,78.33,6
75,75.91,78.30,6
74,75.87,78.25,6
74,75.83,78.21,6
74,75.79,78.17,6
74,75.76,78.13,6
74,75.72,78.08,6
74,75.69,78.04,6
74,75.65,78.00,6
74,75.62,77.96,6
74,75.59,77.92,6
74,75.56,77.88,6
74,75.53,77.85,6
74,75.50,77.81,6
74,75.47,77.77,6
73,75.42,77.72,6
72,75.35,77.66,6
73,75.30,77.62,6
72,75.23,77.56,6
72,75.17,77.51,6
74,75.15,77.47,6
73,75.10,77.43,6
72,75.04,77.37,6
72,74.98,77.32,6
73,74.94,77.28,6
72,74.88,77.22,6
72,74.82,77.17,6
72,74.77,77.12,6
72,74.71,77.07,6
74,74.70,77.04,6
72,74.64,76.99,6
76,74.67,76.98,6
73,74.64,76.94,6
72,74.59,76.89,6
72,74.53,76.84,6
72,74.48,76.79,6
72,74.43,76.74,6
72,74.39,76.69,6
72,74.34,76.65,6
72,74.29,76.60,6
72,74.24,76.56,6
74,74.24,76.53,6
72,74.20,76.48,6
72,74.15,76.44,6
72,74.11,76.40,6
71,74.05,76.34,6
72,74.01,76.30,6
69,73.90,76.22,6
72,73.87,76.18,6
71,73.81,76.13,6
72,73.77,76.09,6
71,73.72,76.04,6
72,73.68,76.00,6
72,73.65,75.96,6
72,73.62,75.92,6
68,73.50,75.84,6
71,73.45,75.79,6
72,73.43,75.75,6
70,73.36,75.70,6
70,73.29,75.64,6
71,73.24,75.59,6
72,73.22,75.56,6
71,73.17,75.51,6
70,73.11,75.46,6
71,73.07,75.41,6
72,73.05,75.38,6
70,72.99,75.32,6
70,72.93,75.27,6
70,72.87,75.22,6
71,72.83,75.18,6
72,72.81,75.14,6
70,72.76,75.09,6
70,72.70,75.04,6
71,72.67,75.00,6
70,72.62,74.95,6
70,72.56,74.90,6
70,72.51,74.85,6
70,72.46,74.80,6
70,72.41,74.76,6
70,72.36,74.71,6
70,72.32,74.66,6
70,72.27,74.61,6
70,72.23,74.57,6
69,72.16,74.51,6
70,72.12,74.47,6
70,72.08,74.42,6
70,72.03,74.38,6
70,71.99,74.33,6
70,71.95,74.29,6
70,71.91,74.25,6
71,71.90,74.22,6
70,71.86,74.17,6
70,71.82,74.13,6
70,71.78,74.09,6
70,71.75,74.05,6
70,71.71,74.01,6
68,71.64,73.95,6
69,71.59,73.90,6
70,71.55,73.86,6
70,71.52,73.82,6
70,71.49,73.78,6
70,71.46,73.75,6
70,71.43,73.71,6
68,71.37,73.65,6
70,71.34,73.61,6
69,71.29,73.57,6
68,71.23,73.51,6
70,71.20,73.48,6
70,71.18,73.44,6
71,71.17,73.42,6
68,71.11,73.36,6
70,71.09,73.33,6
68,71.03,73.28,6
68,70.97,73.22,6
70,70.95,73.19,6
69,70.91,73.15,6
69,70.87,73.11,6
69,70.83,73.07,6
68,70.78,73.02,6
69,70.74,72.98,6
69,70.70,72.94,6
68,70.65,72.89,6
68,70.60,72.84,6
68,70.55,72.79,6
69,70.51,72.75,6
68,70.46,72.71,6
70,70.46,72.68,6
68,70.41,72.63,6
68,70.36,72.59,6
68,70.31,72.54,6
68,70.26,72.49,6
68,70.22,72.45,6
68,70.18,72.40,6
69,70.15,72.37,6
68,70.11,72.33,6
68,70.07,72.28,6
68,70.02,72.24,6
68,69.98,72.20,6
68,69.94,72.16,6
68,69.91,72.11,6
68,69.87,72.07,6
68,69.83,72.03,6
68,69.79,71.99,6
68,69.76,71.95,6
68,69.72,71.91,6
69,69.71,71.88,6
72,69.75,71.89,6
67,69.70,71.84,6
67,69.65,71.79,6
68,69.61,71.75,6
68,69.58,71.71,6
66,69.51,71.66,6
67,69.46,71.61,6
67,69.41,71.56,6
72,69.46,71.57,6
66,69.39,71.51,6
66,69.32,71.46,6
68,69.30,71.42,6
67,69.25,71.38,6
66,69.19,71.32,6
66,69.12,71.27,6
67,69.08,71.23,6
65,69.00,71.17,6
66,68.94,71.11,6
66,68.88,71.06,6
67,68.84,71.02,6
67,68.81,70.98,6
66,68.75,70.93,6
65,68.67,70.87,6
66,68.62,70.82,6
64,68.53,70.76,6
66,68.48,70.71,6
66,68.43,70.66,6
67,68.40,70.62,6
66,68.35,70.58,6
66,68.30,70.53,6
66,68.26,70.49,6
65,68.19,70.43,6
66,68.15,70.39,6
66,68.11,70.34,6
65,68.04,70.29,6
67,68.02,70.26,6
65,67.96,70.21,6
66,67.92,70.16,6
66,67.89,70.12,6
65,67.83,70.07,6
65,67.77,70.02,6
64,67.70,69.96,6
64,67.62,69.90,6
66,67.59,69.86,6
64,67.52,69.80,6
66,67.49,69.76,6
64,67.42,69.71,6
66,67.39,69.67,6
64,67.32,69.61,6
64,67.25,69.56,6
64,67.19,69.50,6
67,67.19,69.48,6
64,67.12,69.42,6
66,67.10,69.39,6
64,67.04,69.33,6
66,67.02,69.30,6
64,66.96,69.25,6
66,66.94,69.21,6
65,66.90,69.17,6
64,66.84,69.12,6
64,66.78,69.07,6
65,66.75,69.03,6
65,66.71,68.99,6
64,66.66,68.94,6
68,66.69,68.93,6
66,66.67,68.90,6
65,66.64,68.86,6
63,66.57,68.80,6
68,66.59,68.79,6
