Teste de posicionamento 4(EMG tendao-inervacao (Vermelho A, Verde C) + Ref no cotovelo) - 16/09/2024 - teste5 - 5 contrações
long frequencia = 1000;                 //frequência de aquisição do sinal, neste caso, 1000 sinais por segundo
float fator1 = 0.02, fator2 = 0.01;
float incerteza = 0.13;
float pico_basal = 130; // Mínimo para ser considerado um pico de contração
int filtro_horizontal=200000; //intervalo de 200ms valores não pode ter mais de 1 contração

Biceps_D,mediaMovel_1,mediaMovel_2,Contracao
38,0.76,0.38,0
39,1.52,0.77,0
39,2.27,1.15,0
39,3.01,1.53,0
40,3.75,1.91,0
39,4.45,2.28,0
39,5.14,2.65,0
41,5.86,3.03,0
38,6.50,3.38,0
41,7.19,3.76,0
39,7.83,4.11,0
41,8.49,4.48,0
39,9.10,4.83,0
39,9.70,5.17,0
40,10.31,5.52,0
39,10.88,5.85,0
40,11.46,6.19,0
40,12.03,6.53,0
38,12.55,6.84,0
42,13.14,7.20,0
39,13.66,7.51,0
37,14.13,7.81,0
39,14.62,8.12,0
38,15.09,8.42,0
39,15.57,8.73,0
38,16.02,9.02,0
38,16.46,9.31,0
38,16.89,9.60,0
39,17.33,9.89,0
39,17.76,10.18,0
37,18.15,10.45,0
38,18.55,10.72,0
38,18.94,11.00,0
38,19.32,11.27,0
38,19.69,11.53,0
38,20.06,11.80,0
37,20.40,12.05,0
38,20.75,12.31,0
38,21.09,12.57,0
38,21.43,12.82,0
37,21.74,13.06,0
38,22.07,13.31,0
38,22.39,13.56,0
38,22.70,13.80,0
38,23.00,14.05,0
38,23.30,14.29,0
38,23.60,14.52,0
39,23.91,14.77,0
38,24.19,15.00,0
39,24.48,15.24,0
38,24.75,15.47,0
38,25.02,15.69,0
37,25.26,15.91,0
37,25.49,16.12,0
37,25.72,16.33,0
37,25.95,16.53,0
37,26.17,16.74,0
40,26.45,16.97,0
37,26.66,17.17,0
37,26.87,17.37,0
37,27.07,17.56,0
38,27.29,17.77,0
36,27.46,17.95,0
37,27.65,18.14,0
37,27.84,18.33,0
34,27.96,18.49,0
36,28.12,18.66,0
37,28.30,18.85,0
37,28.47,19.03,0
36,28.62,19.20,0
37,28.79,19.37,0
37,28.96,19.55,0
36,29.10,19.72,0
32,29.16,19.84,0
36,29.29,20.00,0
37,29.45,20.17,0
37,29.60,20.34,0
36,29.73,20.49,0
37,29.87,20.66,0
37,30.01,20.82,0
38,30.17,21.00,0
38,30.33,21.17,0
36,30.44,21.31,0
37,30.57,21.47,0
36,30.68,21.62,0
36,30.79,21.76,0
37,30.91,21.91,0
37,31.04,22.06,0
38,31.17,22.22,0
38,31.31,22.38,0
38,31.44,22.54,0
37,31.56,22.68,0
36,31.64,22.81,0
36,31.73,22.95,0
37,31.84,23.09,0
36,31.92,23.22,0
36,32.00,23.34,0
36,32.08,23.47,0
37,32.18,23.61,0
37,32.28,23.74,0
38,32.39,23.88,0
38,32.50,24.02,0
39,32.63,24.17,0
38,32.74,24.31,0
38,32.85,24.45,0
38,32.95,24.58,0
38,33.05,24.72,0
38,33.15,24.85,0
38,33.25,24.98,0
38,33.34,25.11,0
39,33.45,25.25,0
38,33.55,25.38,0
38,33.63,25.50,0
38,33.72,25.63,0
37,33.79,25.74,0
38,33.87,25.87,0
36,33.91,25.97,0
36,33.96,26.07,0
37,34.02,26.18,0
37,34.08,26.29,0
36,34.11,26.38,0
38,34.19,26.50,0
37,34.25,26.60,0
38,34.32,26.72,0
38,34.40,26.83,0
38,34.47,26.94,0
39,34.56,27.06,0
38,34.63,27.17,0
40,34.74,27.30,0
38,34.80,27.41,0
39,34.89,27.52,0
38,34.95,27.63,0
38,35.01,27.73,0
38,35.07,27.83,0
39,35.15,27.95,0
38,35.20,28.05,0
40,35.30,28.17,0
38,35.35,28.26,0
38,35.41,28.36,0
39,35.48,28.47,0
38,35.53,28.56,0
38,35.58,28.66,0
38,35.63,28.75,0
38,35.67,28.84,0
39,35.74,28.95,0
39,35.81,29.05,0
39,35.87,29.15,0
39,35.93,29.24,0
38,35.97,29.33,0
39,36.03,29.43,0
38,36.07,29.51,0
41,36.17,29.63,0
38,36.21,29.71,0
38,36.24,29.80,0
39,36.30,29.89,0
39,36.35,29.98,0
38,36.39,30.06,0
38,36.42,30.14,0
39,36.47,30.23,0
38,36.50,30.30,0
39,36.55,30.39,0
39,36.60,30.48,0
39,36.65,30.56,0
37,36.66,30.63,0
35,36.62,30.67,0
37,36.63,30.73,0
39,36.68,30.82,0
37,36.68,30.88,0
37,36.69,30.94,0
38,36.72,31.01,0
38,36.74,31.08,0
38,36.77,31.15,0
42,36.87,31.26,0
38,36.89,31.33,0
38,36.92,31.39,0
38,36.94,31.46,0
37,36.94,31.51,0
38,36.96,31.58,0
36,36.94,31.62,0
37,36.94,31.68,0
38,36.96,31.74,0
36,36.94,31.78,0
38,36.97,31.84,0
37,36.97,31.90,0
38,36.99,31.96,0
36,36.97,32.00,0
37,36.97,32.05,0
37,36.97,32.10,0
34,36.91,32.12,0
38,36.93,32.18,0
38,36.95,32.23,0
38,36.97,32.29,0
36,36.95,32.33,0
38,36.97,32.38,0
38,37.00,32.44,0
38,37.02,32.50,0
36,36.99,32.53,0
38,37.01,32.59,0
39,37.05,32.65,0
37,37.05,32.69,0
38,37.07,32.75,0
36,37.05,32.78,0
37,37.05,32.82,0
37,37.05,32.86,0
36,37.03,32.89,0
38,37.05,32.95,0
39,37.09,33.01,0
37,37.08,33.05,0
36,37.06,33.08,0
38,37.08,33.13,0
38,37.10,33.17,0
39,37.14,33.23,0
38,37.16,33.28,0
40,37.21,33.35,0
37,37.21,33.38,0
37,37.20,33.42,0
36,37.18,33.45,0
37,37.18,33.48,0
38,37.19,33.53,0
38,37.21,33.57,0
38,37.22,33.62,0
38,37.24,33.66,0
37,37.24,33.69,0
36,37.21,33.72,0
36,37.19,33.74,0
38,37.20,33.78,0
38,37.22,33.82,0
38,37.23,33.87,0
40,37.29,33.93,0
39,37.32,33.98,0
37,37.32,34.01,0
38,37.33,34.05,0
38,37.34,34.09,0
38,37.36,34.13,0
38,37.37,34.16,0
38,37.38,34.20,0
37,37.38,34.23,0
37,37.37,34.26,0
38,37.38,34.30,0
38,37.39,34.33,0
37,37.38,34.36,0
37,37.38,34.39,0
38,37.39,34.42,0
40,37.44,34.48,0
38,37.45,34.51,0
37,37.44,34.54,0
38,37.46,34.57,0
38,37.47,34.61,0
38,37.48,34.64,0
37,37.47,34.66,0
37,37.46,34.69,0
37,37.45,34.71,0
36,37.42,34.72,0
36,37.39,34.74,0
37,37.38,34.76,0
38,37.40,34.79,0
38,37.41,34.82,0
38,37.42,34.86,0
37,37.41,34.88,0
37,37.40,34.90,0
37,37.40,34.92,0
38,37.41,34.95,0
38,37.42,34.98,0
38,37.43,35.01,0
37,37.42,35.03,0
38,37.43,35.06,0
37,37.42,35.08,0
39,37.46,35.12,0
37,37.45,35.14,0
37,37.44,35.16,0
37,37.43,35.17,0
38,37.44,35.20,0
37,37.43,35.22,0
36,37.40,35.23,0
37,37.40,35.25,0
36,37.37,35.25,0
37,37.36,35.27,0
36,37.33,35.28,0
36,37.31,35.29,0
37,37.30,35.30,0
36,37.27,35.31,0
36,37.25,35.32,0
37,37.24,35.33,0
36,37.22,35.34,0
36,37.19,35.35,0
36,37.17,35.35,0
38,37.19,35.38,0
40,37.24,35.43,0
36,37.22,35.43,0
36,37.19,35.44,0
36,37.17,35.44,0
37,37.17,35.46,0
37,37.16,35.47,0
38,37.18,35.50,0
38,37.20,35.52,0
37,37.19,35.54,0
36,37.17,35.54,0
36,37.15,35.55,0
38,37.16,35.57,0
38,37.18,35.60,0
36,37.16,35.60,0
36,37.13,35.61,0
38,37.15,35.63,0
35,37.11,35.62,0
36,37.08,35.63,0
36,37.06,35.63,0
38,37.08,35.65,0
36,37.06,35.66,0
36,37.04,35.66,0
36,37.02,35.66,0
36,37.00,35.67,0
35,36.96,35.66,0
36,36.94,35.66,0
36,36.92,35.67,0
36,36.90,35.67,0
35,36.86,35.66,0
36,36.85,35.67,0
37,36.85,35.68,0
35,36.81,35.67,0
36,36.80,35.68,0
36,36.78,35.68,0
36,36.76,35.68,0
36,36.75,35.69,0
36,36.73,35.69,0
38,36.76,35.71,0
38,36.78,35.74,0
37,36.79,35.75,0
36,36.77,35.75,0
36,36.76,35.75,0
36,36.74,35.76,0
37,36.75,35.77,0
36,36.73,35.77,0
36,36.72,35.77,0
36,36.70,35.78,0
36,36.69,35.78,0
36,36.68,35.78,0
36,36.66,35.78,0
36,36.65,35.78,0
36,36.64,35.79,0
38,36.66,35.81,0
36,36.65,35.81,0
34,36.60,35.79,0
36,36.59,35.79,0
36,36.57,35.80,0
37,36.58,35.81,0
36,36.57,35.81,0
36,36.56,35.81,0
36,36.55,35.81,0
36,36.54,35.82,0
36,36.53,35.82,0
35,36.50,35.81,0
36,36.49,35.81,0
36,36.48,35.81,0
36,36.47,35.82,0
36,36.46,35.82,0
37,36.47,35.83,0
36,36.46,35.83,0
36,36.45,35.83,0
35,36.42,35.82,0
36,36.41,35.83,0
36,36.40,35.83,0
36,36.40,35.83,0
36,36.39,35.83,0
37,36.40,35.84,0
36,36.39,35.84,0
36,36.38,35.85,0
37,36.40,35.86,0
36,36.39,35.86,0
36,36.38,35.86,0
35,36.35,35.85,0
35,36.33,35.84,0
37,36.34,35.85,0
36,36.33,35.86,0
37,36.35,35.87,0
37,36.36,35.88,0
36,36.35,35.88,0
36,36.35,35.88,0
35,36.32,35.87,0
36,36.31,35.87,0
36,36.31,35.88,0
35,36.28,35.87,0
36,36.27,35.87,0
36,36.27,35.87,0
35,36.24,35.86,0
35,36.22,35.85,0
34,36.17,35.83,0
36,36.17,35.84,0
36,36.17,35.84,0
34,36.12,35.82,0
34,36.08,35.80,0
36,36.08,35.80,0
36,36.08,35.80,0
36,36.08,35.81,0
38,36.11,35.83,0
39,36.17,35.86,0
38,36.21,35.88,0
36,36.20,35.88,0
36,36.20,35.88,0
37,36.22,35.89,0
38,36.25,35.92,0
38,36.29,35.94,0
36,36.28,35.94,0
42,36.40,36.00,0
36,36.39,36.00,0
37,36.40,36.01,0
37,36.41,36.02,0
37,36.42,36.03,0
38,36.46,36.05,0
36,36.45,36.05,0
36,36.44,36.05,0
38,36.47,36.07,0
37,36.48,36.08,0
36,36.47,36.07,0
38,36.50,36.09,0
36,36.49,36.09,0
38,36.52,36.11,0
38,36.55,36.13,0
38,36.58,36.15,0
35,36.55,36.14,0
38,36.58,36.16,0
36,36.57,36.16,0
38,36.59,36.17,0
37,36.60,36.18,0
38,36.63,36.20,0
37,36.64,36.21,0
36,36.62,36.21,0
37,36.63,36.21,0
36,36.62,36.21,0
38,36.65,36.23,0
38,36.67,36.25,0
37,36.68,36.25,0
36,36.67,36.25,0
37,36.67,36.26,0
38,36.70,36.28,0
39,36.75,36.30,0
38,36.77,36.32,0
37,36.78,36.33,0
36,36.76,36.32,0
38,36.79,36.34,0
38,36.81,36.36,0
39,36.85,36.38,0
37,36.86,36.39,0
38,36.88,36.41,0
39,36.92,36.43,0
38,36.94,36.45,0
37,36.94,36.45,0
38,36.97,36.47,0
38,36.99,36.48,0
38,37.01,36.50,0
39,37.05,36.52,0
38,37.07,36.54,0
40,37.12,36.57,0
38,37.14,36.59,0
38,37.16,36.60,0
38,37.18,36.62,0
39,37.21,36.64,0
40,37.27,36.67,0
40,37.32,36.71,0
40,37.38,36.74,0
38,37.39,36.75,0
39,37.42,36.78,0
38,37.43,36.79,0
39,37.46,36.81,0
40,37.51,36.84,0
38,37.52,36.85,0
38,37.53,36.86,0
38,37.54,36.88,0
40,37.59,36.91,0
38,37.60,36.92,0
38,37.61,36.93,0
37,37.60,36.93,0
41,37.66,36.97,0
40,37.71,37.00,0
39,37.74,37.02,0
38,37.74,37.03,0
40,37.79,37.06,0
38,37.79,37.07,0
38,37.80,37.08,0
38,37.80,37.09,0
40,37.84,37.12,0
38,37.85,37.13,0
38,37.85,37.13,0
38,37.85,37.14,0
38,37.86,37.15,0
39,37.88,37.17,0
38,37.88,37.18,0
38,37.88,37.19,0
38,37.89,37.20,0
38,37.89,37.20,0
37,37.87,37.20,0
39,37.89,37.22,0
40,37.93,37.25,0
38,37.94,37.25,0
38,37.94,37.26,0
39,37.96,37.28,0
39,37.98,37.30,0
38,37.98,37.30,0
40,38.02,37.33,0
40,38.06,37.36,0
40,38.10,37.38,0
38,38.10,37.39,0
38,38.09,37.40,0
39,38.11,37.41,0
38,38.11,37.42,0
40,38.15,37.44,0
40,38.19,37.47,0
40,38.22,37.49,0
41,38.28,37.53,0
38,38.27,37.53,0
40,38.31,37.56,0
39,38.32,37.57,0
40,38.35,37.60,0
38,38.35,37.60,0
38,38.34,37.61,0
40,38.37,37.63,0
38,38.37,37.63,0
38,38.36,37.64,0
41,38.41,37.67,0
40,38.44,37.69,0
38,38.43,37.70,0
38,38.43,37.70,0
38,38.42,37.70,0
40,38.45,37.73,0
40,38.48,37.75,0
38,38.47,37.75,0
38,38.46,37.75,0
41,38.51,37.79,0
42,38.58,37.83,0
38,38.57,37.83,0
40,38.60,37.85,0
41,38.65,37.88,0
44,38.75,37.94,0
41,38.80,37.97,0
37,38.76,37.97,0
40,38.79,37.99,0
40,38.81,38.01,0
40,38.83,38.03,0
41,38.88,38.06,0
40,38.90,38.07,0
40,38.92,38.09,0
40,38.94,38.11,0
41,38.99,38.14,0
41,39.03,38.17,0
42,39.09,38.21,0
42,39.14,38.25,0
41,39.18,38.27,0
40,39.20,38.29,0
44,39.29,38.35,0
42,39.35,38.39,0
43,39.42,38.43,0
42,39.47,38.47,0
44,39.56,38.52,0
42,39.61,38.56,0
42,39.66,38.59,0
43,39.73,38.64,0
44,39.81,38.69,0
44,39.90,38.74,0
42,39.94,38.77,0
43,40.00,38.82,0
44,40.08,38.87,0
42,40.12,38.90,0
42,40.15,38.93,0
42,40.19,38.96,0
43,40.25,39.00,0
42,40.28,39.03,0
42,40.32,39.06,0
45,40.41,39.12,0
41,40.42,39.14,0
44,40.49,39.19,0
44,40.56,39.24,0
42,40.59,39.26,0
44,40.66,39.31,0
44,40.73,39.36,0
44,40.79,39.41,0
45,40.88,39.46,0
44,40.94,39.51,0
43,40.98,39.54,0
43,41.02,39.58,0
44,41.08,39.62,0
43,41.12,39.65,0
43,41.16,39.69,0
42,41.17,39.71,0
44,41.23,39.75,0
44,41.29,39.80,0
42,41.30,39.82,0
42,41.31,39.84,0
44,41.37,39.88,0
45,41.44,39.93,0
42,41.45,39.95,0
44,41.50,39.99,0
43,41.53,40.02,0
43,41.56,40.05,0
44,41.61,40.09,0
42,41.62,40.11,0
42,41.63,40.13,0
42,41.63,40.15,0
42,41.64,40.17,0
44,41.69,40.21,0
44,41.73,40.24,0
43,41.76,40.27,0
42,41.76,40.29,0
42,41.77,40.31,0
44,41.81,40.34,0
42,41.82,40.36,0
44,41.86,40.40,0
44,41.90,40.43,0
44,41.95,40.47,0
42,41.95,40.48,0
44,41.99,40.52,0
44,42.03,40.55,0
45,42.09,40.60,0
43,42.11,40.62,0
44,42.14,40.66,0
42,42.14,40.67,0
44,42.18,40.70,0
42,42.17,40.72,0
43,42.19,40.74,0
44,42.23,40.77,0
43,42.24,40.79,0
44,42.28,40.83,0
44,42.31,40.86,0
42,42.31,40.87,0
44,42.34,40.90,0
46,42.41,40.95,0
44,42.44,40.98,0
44,42.48,41.01,0
44,42.51,41.04,0
44,42.54,41.07,0
44,42.57,41.10,0
44,42.59,41.13,0
45,42.64,41.17,0
44,42.67,41.20,0
46,42.74,41.24,0
44,42.76,41.27,0
43,42.77,41.29,0
44,42.79,41.32,0
44,42.82,41.34,0
44,42.84,41.37,0
43,42.84,41.39,0
46,42.91,41.43,0
48,43.01,41.50,0
43,43.01,41.51,0
44,43.03,41.54,0
44,43.05,41.56,0
44,43.07,41.59,0
45,43.10,41.62,0
45,43.14,41.65,0
44,43.16,41.68,0
41,43.12,41.67,0
44,43.13,41.69,0
44,43.15,41.72,0
44,43.17,41.74,0
45,43.20,41.77,0
44,43.22,41.80,0
44,43.24,41.82,0
44,43.25,41.84,0
44,43.27,41.86,0
44,43.28,41.88,0
44,43.30,41.90,0
44,43.31,41.92,0
44,43.32,41.94,0
44,43.34,41.97,0
46,43.39,42.01,0
44,43.40,42.03,0
44,43.41,42.05,0
44,43.43,42.07,0
45,43.46,42.09,0
44,43.47,42.11,0
44,43.48,42.13,0
43,43.47,42.14,0
44,43.48,42.16,0
44,43.49,42.18,0
44,43.50,42.20,0
46,43.55,42.23,0
46,43.60,42.27,0
46,43.65,42.31,0
44,43.65,42.33,0
44,43.66,42.34,0
45,43.69,42.37,0
46,43.73,42.41,0
46,43.78,42.44,0
46,43.82,42.48,0
47,43.89,42.52,0
47,43.95,42.57,0
44,43.95,42.58,0
44,43.95,42.60,0
47,44.01,42.64,0
49,44.11,42.70,0
48,44.19,42.76,0
46,44.23,42.79,0
47,44.28,42.83,0
48,44.36,42.88,0
46,44.39,42.91,0
46,44.42,42.94,0
47,44.47,42.99,0
47,44.52,43.03,0
46,44.55,43.06,0
46,44.58,43.08,0
49,44.67,43.14,0
48,44.74,43.19,0
46,44.76,43.22,0
46,44.79,43.25,0
47,44.83,43.29,0
47,44.87,43.32,0
46,44.90,43.35,0
46,44.92,43.38,0
50,45.02,43.44,0
52,45.16,43.53,0
54,45.34,43.63,0
52,45.47,43.72,0
47,45.50,43.75,0
51,45.61,43.82,0
58,45.86,43.96,0
56,46.06,44.08,0
52,46.18,44.16,0
54,46.34,44.26,0
52,46.45,44.34,0
52,46.56,44.42,0
51,46.65,44.48,0
54,46.80,44.58,0
52,46.90,44.65,0
52,47.00,44.72,0
51,47.08,44.79,0
52,47.18,44.86,0
54,47.32,44.95,0
52,47.41,45.02,0
55,47.56,45.12,0
56,47.73,45.23,0
56,47.90,45.34,0
55,48.04,45.43,0
53,48.14,45.51,0
54,48.26,45.59,0
56,48.41,45.70,0
54,48.52,45.78,0
58,48.71,45.90,0
58,48.90,46.02,0
56,49.04,46.12,0
56,49.18,46.22,0
55,49.30,46.31,0
54,49.39,46.39,0
53,49.46,46.45,0
54,49.55,46.53,0
54,49.64,46.60,0
58,49.81,46.72,0
54,49.89,46.79,0
57,50.03,46.89,0
60,50.23,47.02,0
62,50.47,47.17,0
56,50.58,47.26,0
55,50.67,47.34,0
56,50.77,47.43,0
56,50.88,47.51,0
60,51.06,47.64,0
57,51.18,47.73,0
56,51.28,47.81,0
55,51.35,47.88,0
56,51.44,47.97,0
56,51.54,48.05,0
58,51.66,48.15,0
57,51.77,48.23,0
56,51.86,48.31,0
59,52.00,48.42,0
55,52.06,48.48,0
56,52.14,48.56,0
56,52.21,48.63,0
57,52.31,48.72,0
58,52.42,48.81,0
57,52.52,48.89,0
57,52.61,48.97,0
58,52.71,49.06,0
57,52.80,49.14,0
56,52.86,49.21,0
61,53.03,49.33,0
62,53.21,49.46,0
68,53.50,49.64,0
65,53.73,49.80,0
62,53.90,49.92,0
64,54.10,50.06,0
63,54.28,50.19,0
64,54.47,50.33,0
64,54.66,50.46,0
64,54.85,50.60,0
62,54.99,50.71,0
61,55.11,50.81,0
62,55.25,50.93,0
64,55.42,51.06,0
62,55.56,51.17,0
68,55.80,51.34,0
74,56.17,51.56,0
74,56.53,51.79,0
65,56.69,51.92,0
75,57.06,52.15,0
72,57.36,52.35,0
66,57.53,52.48,0
68,57.74,52.64,0
68,57.95,52.79,0
66,58.11,52.93,0
70,58.35,53.10,0
77,58.72,53.33,0
75,59.04,53.55,0
70,59.26,53.72,0
70,59.48,53.88,0
72,59.73,54.06,0
72,59.97,54.24,0
78,60.33,54.48,0
82,60.77,54.75,0
79,61.13,54.99,0
76,61.43,55.20,0
80,61.80,55.45,0
82,62.21,55.72,0
80,62.56,55.96,0
79,62.89,56.19,0
80,63.23,56.43,0
76,63.49,56.63,0
85,63.92,56.91,0
79,64.22,57.13,0
78,64.50,57.34,0
81,64.83,57.58,0
78,65.09,57.78,0
79,65.37,57.99,0
84,65.74,58.25,0
82,66.06,58.49,0
81,66.36,58.71,0
82,66.68,58.95,0
78,66.90,59.14,0
84,67.24,59.39,0
83,67.56,59.62,0
82,67.85,59.85,0
82,68.13,60.07,0
79,68.35,60.26,0
80,68.58,60.45,0
80,68.81,60.65,0
83,69.09,60.87,0
83,69.37,61.09,0
80,69.58,61.28,0
80,69.79,61.47,0
83,70.06,61.69,0
86,70.38,61.93,0
90,70.77,62.21,0
86,71.07,62.45,0
84,71.33,62.66,0
84,71.59,62.88,0
85,71.85,63.10,0
82,72.06,63.29,0
84,72.30,63.49,0
88,72.61,63.74,0
84,72.84,63.94,0
88,73.14,64.18,0
85,73.38,64.39,0
84,73.59,64.59,0
84,73.80,64.78,0
86,74.04,64.99,0
86,74.28,65.20,0
85,74.50,65.40,0
84,74.69,65.59,0
85,74.89,65.78,0
85,75.09,65.97,0
88,75.35,66.19,0
86,75.57,66.39,0
84,75.73,66.57,0
89,76.00,66.79,0
90,76.28,67.02,0
90,76.55,67.25,0
93,76.88,67.51,0
88,77.11,67.72,0
88,77.32,67.92,0
89,77.56,68.13,0
92,77.85,68.37,0
88,78.05,68.57,0
86,78.21,68.74,0
90,78.44,68.95,0
89,78.65,69.15,0
88,78.84,69.34,0
89,79.04,69.54,0
88,79.22,69.72,0
90,79.44,69.92,0
89,79.63,70.12,0
89,79.82,70.30,0
89,80.00,70.49,0
89,80.18,70.68,0
88,80.34,70.85,0
89,80.51,71.03,0
89,80.68,71.21,0
88,80.83,71.38,0
88,80.97,71.55,0
90,81.15,71.73,0
92,81.37,71.93,0
92,81.58,72.13,0
90,81.75,72.31,0
90,81.91,72.49,0
89,82.06,72.65,0
92,82.25,72.85,0
91,82.43,73.03,0
94,82.66,73.24,0
90,82.81,73.41,0
92,82.99,73.59,0
90,83.13,73.76,0
90,83.27,73.92,0
90,83.40,74.08,0
94,83.62,74.28,0
94,83.82,74.48,0
90,83.95,74.63,0
94,84.15,74.82,0
95,84.37,75.03,0
96,84.60,75.24,0
95,84.81,75.43,0
93,84.97,75.61,0
93,85.13,75.78,0
92,85.27,75.95,0
92,85.40,76.11,0
93,85.55,76.28,0
93,85.70,76.44,0
92,85.83,76.60,0
94,85.99,76.77,0
94,86.15,76.94,0
93,86.29,77.10,0
93,86.42,77.26,0
92,86.54,77.41,0
92,86.64,77.56,0
91,86.73,77.69,0
90,86.80,77.81,0
90,86.86,77.94,0
93,86.98,78.09,0
96,87.16,78.27,0
96,87.34,78.44,0
94,87.47,78.60,0
92,87.56,78.73,0
92,87.65,78.87,0
94,87.78,79.02,0
93,87.88,79.16,0
93,87.99,79.30,0
92,88.07,79.42,0
91,88.13,79.54,0
92,88.20,79.66,0
91,88.26,79.78,0
90,88.29,79.88,0
92,88.37,80.00,0
92,88.44,80.12,0
91,88.49,80.23,0
93,88.58,80.36,0
92,88.65,80.47,0
90,88.68,80.57,0
92,88.74,80.68,0
95,88.87,80.83,0
92,88.93,80.94,0
90,88.95,81.03,0
91,88.99,81.13,0
90,89.01,81.22,0
90,89.03,81.30,0
90,89.05,81.39,0
91,89.09,81.49,0
93,89.17,81.60,0
90,89.19,81.69,0
90,89.20,81.77,0
91,89.24,81.86,0
89,89.23,81.93,0
92,89.29,82.03,0
90,89.30,82.11,0
89,89.30,82.18,0
89,89.29,82.25,0
92,89.35,82.35,0
92,89.40,82.44,0
94,89.49,82.56,0
92,89.54,82.65,0
89,89.53,82.72,0
88,89.50,82.77,0
90,89.51,82.84,0
91,89.54,82.92,0
91,89.57,83.01,0
88,89.54,83.06,0
90,89.55,83.12,0
89,89.54,83.18,0
89,89.53,83.24,0
90,89.53,83.31,0
89,89.52,83.37,0
89,89.51,83.42,0
88,89.48,83.47,0
88,89.45,83.51,0
88,89.42,83.56,0
89,89.42,83.61,0
88,89.39,83.66,0
88,89.36,83.70,0
89,89.35,83.75,0
89,89.35,83.81,0
88,89.32,83.85,0
88,89.29,83.89,0
89,89.29,83.94,0
87,89.24,83.97,0
88,89.22,84.01,0
86,89.15,84.03,0
88,89.13,84.07,0
87,89.09,84.10,0
87,89.04,84.13,0
84,88.94,84.13,0
88,88.92,84.17,0
88,88.91,84.20,0
86,88.85,84.22,0
86,88.79,84.24,0
87,88.76,84.27,0
86,88.70,84.29,0
86,88.65,84.30,0
84,88.55,84.30,0
85,88.48,84.31,0
88,88.47,84.34,0
86,88.42,84.36,0
86,88.37,84.38,0
87,88.35,84.40,0
86,88.30,84.42,0
84,88.21,84.41,0
86,88.17,84.43,0
85,88.11,84.44,0
86,88.06,84.45,0
86,88.02,84.47,0
85,87.96,84.47,0
85,87.90,84.48,0
84,87.83,84.47,0
84,87.75,84.47,0
84,87.67,84.46,0
85,87.62,84.47,0
85,87.57,84.47,0
84,87.50,84.47,0
84,87.43,84.46,0
84,87.36,84.46,0
83,87.27,84.45,0
84,87.21,84.44,0
82,87.10,84.42,0
83,87.02,84.40,0
82,86.92,84.38,0
84,86.86,84.37,0
84,86.80,84.37,0
83,86.73,84.36,0
84,86.67,84.35,0
82,86.58,84.33,0
82,86.49,84.31,0
82,86.40,84.28,0
82,86.31,84.26,0
84,86.26,84.26,0
82,86.18,84.24,0
82,86.10,84.21,0
82,86.01,84.19,0
81,85.91,84.16,0
81,85.81,84.13,0
81,85.72,84.10,0
82,85.64,84.08,0
80,85.53,84.03,0
81,85.44,84.00,0
79,85.31,83.95,0
80,85.21,83.91,0
80,85.10,83.88,0
80,85.00,83.84,0
80,84.90,83.80,0
81,84.82,83.77,0
79,84.70,83.72,0
79,84.59,83.68,0
79,84.48,83.63,0
79,84.37,83.58,0
79,84.26,83.54,0
79,84.16,83.49,0
80,84.07,83.46,0
79,83.97,83.41,0
78,83.85,83.36,0
78,83.74,83.30,0
79,83.64,83.26,0
79,83.55,83.22,0
78,83.44,83.17,0
78,83.33,83.11,0
78,83.22,83.06,0
77,83.10,83.00,0
78,83.00,82.95,0
78,82.90,82.90,0
78,82.80,82.85,0
78,82.70,82.81,0
77,82.59,82.75,0
78,82.50,82.70,0
77,82.39,82.64,0
77,82.28,82.59,0
78,82.19,82.54,0
76,82.07,82.48,0
76,81.95,82.41,0
78,81.87,82.37,0
76,81.75,82.30,0
78,81.68,82.26,0
76,81.56,82.20,0
76,81.45,82.14,0
76,81.34,82.07,0
76,81.24,82.01,0
76,81.13,81.95,0
76,81.03,81.89,0
76,80.93,81.83,0
76,80.83,81.78,0
76,80.73,81.72,0
76,80.64,81.66,0
76,80.55,81.60,0
74,80.41,81.53,0
75,80.31,81.46,0
75,80.20,81.40,0
74,80.08,81.32,0
74,79.95,81.25,0
74,79.84,81.18,0
74,79.72,81.11,0
74,79.60,81.04,0
74,79.49,80.97,0
76,79.42,80.92,0
75,79.33,80.86,0
74,79.23,80.79,0
74,79.12,80.72,0
74,79.02,80.65,0
75,78.94,80.60,0
71,78.78,80.50,0
72,78.65,80.42,0
73,78.53,80.34,0
74,78.44,80.28,0
74,78.35,80.22,0
73,78.25,80.14,0
73,78.14,80.07,0
73,78.04,80.00,0
72,77.92,79.92,0
74,77.84,79.86,0
73,77.74,79.79,0
73,77.65,79.73,0
72,77.53,79.65,0
74,77.46,79.59,0
73,77.37,79.53,0
72,77.27,79.45,0
72,77.16,79.38,0
72,77.06,79.30,0
72,76.96,79.23,0
71,76.84,79.15,0
72,76.74,79.08,0
72,76.65,79.00,0
72,76.55,78.93,0
70,76.42,78.85,0
71,76.31,78.77,0
72,76.23,78.70,0
72,76.14,78.63,0
70,76.02,78.55,0
72,75.94,78.48,0
70,75.82,78.40,0
71,75.72,78.32,0
70,75.61,78.24,0
71,75.52,78.17,0
71,75.43,78.09,0
70,75.32,78.01,0
71,75.23,77.94,0
70,75.13,77.86,0
69,75.01,77.78,0
69,74.89,77.69,0
70,74.79,77.61,0
69,74.67,77.52,0
69,74.56,77.44,0
70,74.47,77.36,0
72,74.42,77.31,0
70,74.33,77.24,0
69,74.22,77.16,0
70,74.14,77.08,0
69,74.04,77.00,0
70,73.96,76.93,0
69,73.86,76.85,0
69,73.76,76.78,0
69,73.66,76.70,0
69,73.57,76.62,0
69,73.48,76.54,0
69,73.39,76.47,0
69,73.30,76.39,0
68,73.20,76.31,0
67,73.07,76.22,0
70,73.01,76.16,0
68,72.91,76.07,0
68,72.81,75.99,0
70,72.76,75.93,0
70,72.70,75.87,0
69,72.63,75.80,0
68,72.53,75.73,0
68,72.44,75.65,0
66,72.31,75.55,0
68,72.23,75.48,0
68,72.14,75.40,0
67,72.04,75.32,0
66,71.92,75.23,0
69,71.86,75.16,0
68,71.78,75.09,0
67,71.69,75.01,0
66,71.57,74.92,0
67,71.48,74.84,0
66,71.37,74.75,0
66,71.27,74.67,0
66,71.16,74.58,0
67,71.08,74.50,0
66,70.98,74.42,0
66,70.88,74.33,0
66,70.78,74.25,0
68,70.72,74.19,0
66,70.63,74.11,0
66,70.54,74.03,0
68,70.49,73.96,0
67,70.42,73.90,0
66,70.33,73.82,0
66,70.24,73.74,0
66,70.16,73.66,0
66,70.07,73.58,0
66,69.99,73.51,0
66,69.91,73.43,0
66,69.83,73.36,0
65,69.74,73.28,0
66,69.66,73.20,0
65,69.57,73.12,0
65,69.48,73.04,0
65,69.39,72.96,0
64,69.28,72.87,0
64,69.17,72.78,0
65,69.09,72.70,0
68,69.07,72.66,0
66,69.01,72.59,0
66,68.95,72.52,0
65,68.87,72.45,0
63,68.75,72.35,0
66,68.70,72.29,0
66,68.64,72.23,0
65,68.57,72.15,0
64,68.48,72.07,0
64,68.39,71.99,0
66,68.34,71.93,0
64,68.25,71.85,0
63,68.15,71.76,0
64,68.07,71.69,0
64,67.98,71.61,0
64,67.91,71.53,0
63,67.81,71.45,0
64,67.73,71.37,0
64,67.66,71.30,0
64,67.58,71.23,0
64,67.51,71.16,0
64,67.44,71.08,0
64,67.37,71.01,0
64,67.30,70.94,0
63,67.22,70.86,0
64,67.15,70.79,0
64,67.09,70.73,0
63,67.01,70.65,0
63,66.93,70.57,0
64,66.87,70.51,0
63,66.79,70.43,0
63,66.72,70.36,0
63,66.64,70.28,0
63,66.57,70.21,0
64,66.52,70.15,0
63,66.45,70.08,0
62,66.36,70.00,0
62,66.27,69.92,0
62,66.19,69.84,0
62,66.10,69.76,0
62,66.02,69.68,0
62,65.94,69.61,0
62,65.86,69.53,0
62,65.78,69.45,0
62,65.71,69.38,0
62,65.63,69.31,0
62,65.56,69.23,0
62,65.49,69.16,0
61,65.40,69.08,0
61,65.31,69.00,0
61,65.23,68.92,0
62,65.16,68.85,0
61,65.08,68.77,0
61,65.00,68.69,0
60,64.90,68.61,0
61,64.82,68.53,0
61,64.74,68.45,0
60,64.65,68.37,0
61,64.58,68.30,0
60,64.48,68.21,0
60,64.39,68.13,0
61,64.33,68.06,0
59,64.22,67.97,0
61,64.16,67.90,0
61,64.09,67.83,0
60,64.01,67.75,0
60,63.93,67.67,0
60,63.85,67.60,0
62,63.81,67.54,0
60,63.74,67.47,0
59,63.64,67.38,0
61,63.59,67.32,0
61,63.54,67.25,0
60,63.47,67.18,0
60,63.40,67.11,0
61,63.35,67.05,0
59,63.26,66.97,0
59,63.18,66.89,0
58,63.07,66.80,0
60,63.01,66.73,0
59,62.93,66.65,0
59,62.85,66.58,0
58,62.76,66.49,0
60,62.70,66.43,0
60,62.65,66.36,0
58,62.56,66.28,0
58,62.46,66.20,0
59,62.39,66.12,0
58,62.31,66.04,0
58,62.22,65.96,0
58,62.14,65.88,0
58,62.05,65.80,0
58,61.97,65.73,0
58,61.89,65.65,0
58,61.82,65.57,0
58,61.74,65.50,0
58,61.66,65.42,0
58,61.59,65.35,0
58,61.52,65.27,0
58,61.45,65.20,0
58,61.38,65.13,0
58,61.31,65.06,0
56,61.21,64.97,0
58,61.14,64.90,0
58,61.08,64.83,0
57,61.00,64.75,0
56,60.90,64.66,0
57,60.82,64.59,0
58,60.76,64.52,0
56,60.67,64.44,0
58,60.61,64.37,0
57,60.54,64.30,0
56,60.45,64.21,0
56,60.36,64.13,0
56,60.28,64.05,0
57,60.21,63.98,0
56,60.13,63.90,0
56,60.04,63.82,0
56,59.96,63.74,0
60,59.96,63.71,0
56,59.88,63.63,0
56,59.81,63.55,0
56,59.73,63.48,0
56,59.66,63.40,0
56,59.58,63.33,0
56,59.51,63.26,0
56,59.44,63.18,0
53,59.31,63.08,0
58,59.29,63.03,0
56,59.22,62.96,0
56,59.16,62.89,0
56,59.09,62.82,0
58,59.07,62.77,0
56,59.01,62.71,0
55,58.93,62.63,0
53,58.81,62.53,0
55,58.73,62.46,0
55,58.66,62.38,0
54,58.57,62.30,0
54,58.47,62.22,0
55,58.41,62.14,0
54,58.32,62.06,0
54,58.23,61.98,0
55,58.17,61.91,0
55,58.10,61.84,0
54,58.02,61.76,0
54,57.94,61.69,0
54,57.86,61.61,0
55,57.80,61.54,0
54,57.73,61.47,0
54,57.65,61.39,0
54,57.58,61.32,0
53,57.49,61.24,0
54,57.42,61.16,0
54,57.35,61.09,0
53,57.26,61.01,0
53,57.18,60.93,0
52,57.07,60.84,0
54,57.01,60.77,0
53,56.93,60.70,0
53,56.85,60.62,0
53,56.78,60.54,0
54,56.72,60.48,0
52,56.63,60.39,0
53,56.55,60.32,0
52,56.46,60.24,0
52,56.37,60.15,0
53,56.31,60.08,0
53,56.24,60.01,0
53,56.18,59.94,0
52,56.09,59.86,0
53,56.03,59.79,0
53,55.97,59.72,0
54,55.93,59.67,0
52,55.85,59.59,0
53,55.80,59.52,0
52,55.72,59.45,0
52,55.64,59.37,0
53,55.59,59.31,0
54,55.56,59.26,0
53,55.51,59.20,0
52,55.44,59.12,0
52,55.37,59.05,0
53,55.32,58.99,0
53,55.28,58.93,0
54,55.25,58.88,0
52,55.19,58.81,0
53,55.14,58.76,0
53,55.10,58.70,0
52,55.04,58.63,0
52,54.98,58.56,0
53,54.94,58.51,0
54,54.92,58.46,0
52,54.86,58.40,0
53,54.82,58.35,0
54,54.81,58.30,0
53,54.77,58.25,0
52,54.71,58.19,0
52,54.66,58.12,0
52,54.61,58.06,0
51,54.53,57.99,0
52,54.48,57.93,0
52,54.43,57.87,0
51,54.37,57.80,0
51,54.30,57.74,0
52,54.25,57.68,0
52,54.21,57.62,0
52,54.16,57.57,0
52,54.12,57.51,0
50,54.04,57.44,0
52,54.00,57.38,0
52,53.96,57.33,0
50,53.88,57.25,0
52,53.84,57.20,0
52,53.80,57.15,0
51,53.75,57.09,0
54,53.75,57.06,0
53,53.74,57.02,0
52,53.70,56.97,0
51,53.65,56.91,0
52,53.62,56.86,0
50,53.54,56.79,0
52,53.51,56.74,0
52,53.48,56.69,0
50,53.41,56.63,0
51,53.36,56.57,0
55,53.40,56.55,0
51,53.35,56.50,0
50,53.28,56.43,0
50,53.22,56.37,0
52,53.19,56.33,0
50,53.13,56.26,0
53,53.13,56.23,0
50,53.06,56.17,0
54,53.08,56.15,0
50,53.02,56.08,0
52,53.00,56.04,0
50,52.94,55.98,0
49,52.86,55.91,0
50,52.80,55.85,0
52,52.79,55.82,0
50,52.73,55.76,0
47,52.62,55.67,0
50,52.57,55.61,0
53,52.57,55.59,0
50,52.52,55.53,0
49,52.45,55.47,0
49,52.38,55.40,0
50,52.34,55.35,0
50,52.29,55.29,0
50,52.24,55.24,0
50,52.20,55.19,0
49,52.13,55.13,0
50,52.09,55.08,0
50,52.05,55.02,0
52,52.05,54.99,0
49,51.99,54.93,0
50,51.95,54.89,0
50,51.91,54.84,0
50,51.87,54.79,0
52,51.87,54.76,0
48,51.80,54.69,0
48,51.72,54.63,0
48,51.65,54.56,0
49,51.59,54.50,0
48,51.52,54.44,0
48,51.45,54.37,0
47,51.36,54.30,0
50,51.33,54.26,0
48,51.27,54.20,0
48,51.20,54.13,0
49,51.16,54.08,0
50,51.13,54.04,0
50,51.11,54.00,0
50,51.09,53.96,0
49,51.05,53.91,0
49,51.01,53.86,0
48,50.95,53.80,0
48,50.89,53.75,0
48,50.83,53.69,0
49,50.79,53.64,0
48,50.74,53.58,0
46,50.64,53.51,0
47,50.57,53.44,0
50,50.56,53.41,0
50,50.55,53.38,0
50,50.54,53.34,0
50,50.53,53.31,0
48,50.48,53.25,0
48,50.43,53.20,0
48,50.38,53.15,0
49,50.35,53.11,0
50,50.34,53.08,0
49,50.32,53.04,0
50,50.31,53.01,0
49,50.28,52.97,0
48,50.24,52.92,0
48,50.19,52.87,0
48,50.15,52.82,0
47,50.09,52.76,0
48,50.04,52.71,0
48,50.00,52.67,0
48,49.96,52.62,0
47,49.90,52.56,0
48,49.87,52.52,0
48,49.83,52.47,0
47,49.77,52.42,0
48,49.74,52.37,0
48,49.70,52.33,0
47,49.65,52.28,0
47,49.60,52.22,0
47,49.54,52.17,0
47,49.49,52.12,0
46,49.42,52.06,0
47,49.37,52.01,0
47,49.33,51.96,0
48,49.30,51.92,0
47,49.25,51.87,0
47,49.21,51.82,0
47,49.16,51.77,0
46,49.10,51.71,0
48,49.08,51.68,0
46,49.02,51.62,0
47,48.98,51.57,0
46,48.92,51.52,0
47,48.88,51.47,0
46,48.82,51.42,0
47,48.79,51.37,0
47,48.75,51.33,0
48,48.73,51.30,0
46,48.68,51.24,0
47,48.65,51.20,0
46,48.59,51.15,0
50,48.62,51.14,0
45,48.55,51.08,0
46,48.50,51.03,0
48,48.49,51.00,0
47,48.46,50.96,0
47,48.43,50.92,0
47,48.40,50.88,0
49,48.41,50.86,0
50,48.44,50.85,0
46,48.40,50.80,0
46,48.35,50.75,0
46,48.30,50.71,0
46,48.25,50.66,0
46,48.21,50.61,0
47,48.19,50.58,0
47,48.16,50.54,0
48,48.16,50.52,0
46,48.12,50.47,0
48,48.11,50.45,0
45,48.05,50.39,0
46,48.01,50.35,0
46,47.97,50.30,0
47,47.95,50.27,0
47,47.93,50.24,0
45,47.87,50.19,0
46,47.84,50.14,0
47,47.82,50.11,0
46,47.78,50.07,0
46,47.75,50.03,0
46,47.71,49.99,0
46,47.68,49.95,0
46,47.64,49.91,0
44,47.57,49.85,0
46,47.54,49.81,0
45,47.49,49.76,0
45,47.44,49.72,0
45,47.39,49.67,0
46,47.36,49.63,0
45,47.32,49.59,0
45,47.27,49.54,0
46,47.24,49.51,0
44,47.18,49.45,0
44,47.11,49.40,0
44,47.05,49.34,0
44,46.99,49.29,0
46,46.97,49.26,0
47,46.97,49.23,0
46,46.95,49.20,0
46,46.93,49.17,0
44,46.88,49.12,0
45,46.84,49.08,0
46,46.82,49.05,0
44,46.76,48.99,0
46,46.75,48.96,0
46,46.73,48.94,0
46,46.72,48.91,0
47,46.73,48.89,0
46,46.71,48.86,0
47,46.72,48.84,0
48,46.74,48.83,0
48,46.77,48.82,0
46,46.75,48.79,0
45,46.72,48.76,0
46,46.70,48.73,0
47,46.71,48.71,0
46,46.69,48.68,0
47,46.70,48.67,0
47,46.71,48.65,0
46,46.69,48.62,0
46,46.68,48.60,0
46,46.66,48.57,0
46,46.65,48.55,0
46,46.64,48.52,0
47,46.65,48.51,0
45,46.61,48.47,0
46,46.60,48.45,0
46,46.59,48.42,0
46,46.58,48.40,0
46,46.57,48.37,0
46,46.55,48.35,0
46,46.54,48.33,0
46,46.53,48.30,0
45,46.50,48.27,0
45,46.47,48.24,0
44,46.42,48.19,0
44,46.37,48.15,0
45,46.35,48.12,0
44,46.30,48.08,0
44,46.25,48.04,0
46,46.25,48.02,0
45,46.22,47.99,0
45,46.20,47.96,0
45,46.17,47.93,0
46,46.17,47.91,0
45,46.15,47.88,0
44,46.10,47.84,0
44,46.06,47.80,0
46,46.06,47.79,0
46,46.06,47.77,0
44,46.02,47.73,0
45,46.00,47.70,0
45,45.98,47.68,0
46,45.98,47.66,0
46,45.98,47.64,0
45,45.96,47.62,0
45,45.94,47.59,0
46,45.94,47.57,0
46,45.94,47.56,0
46,45.94,47.54,0
45,45.93,47.52,0
44,45.89,47.48,0
44,45.85,47.45,0
44,45.81,47.41,0
44,45.78,47.38,0
46,45.78,47.36,0
45,45.76,47.34,0
46,45.77,47.33,0
44,45.73,47.29,0
45,45.72,47.27,0
44,45.68,47.24,0
44,45.65,47.21,0
44,45.62,47.17,0
43,45.57,47.13,0
46,45.57,47.12,0
44,45.54,47.09,0
44,45.51,47.06,0
43,45.46,47.02,0
44,45.43,46.99,0
44,45.40,46.96,0
44,45.38,46.93,0
44,45.35,46.90,0
48,45.40,46.91,0
45,45.39,46.89,0
44,45.37,46.86,0
43,45.32,46.82,0
44,45.29,46.80,0
46,45.31,46.79,0
46,45.32,46.78,0
44,45.29,46.75,0
46,45.31,46.74,0
44,45.28,46.72,0
44,45.26,46.69,0
45,45.25,46.67,0
45,45.25,46.66,0
43,45.20,46.62,0
42,45.14,46.57,0
45,45.13,46.56,0
44,45.11,46.53,0
44,45.09,46.51,0
44,45.07,46.48,0
45,45.07,46.47,0
44,45.04,46.44,0
44,45.02,46.42,0
44,45.00,46.39,0
46,45.02,46.39,0
44,45.00,46.37,0
43,44.96,46.33,0
44,44.94,46.31,0
46,44.96,46.31,0
46,44.99,46.30,0
46,45.01,46.30,0
46,45.03,46.30,0
46,45.05,46.29,0
46,45.06,46.29,0
46,45.08,46.29,0
46,45.10,46.29,0
46,45.12,46.28,0
44,45.10,46.26,0
46,45.11,46.26,0
46,45.13,46.25,0
45,45.13,46.24,0
46,45.15,46.24,0
46,45.16,46.24,0
46,45.18,46.23,0
44,45.16,46.21,0
46,45.17,46.21,0
46,45.19,46.21,0
47,45.23,46.22,0
45,45.22,46.20,0
45,45.22,46.19,0
46,45.23,46.19,0
44,45.21,46.17,0
45,45.20,46.16,0
46,45.22,46.15,0
46,45.24,46.15,0
46,45.25,46.15,0
45,45.25,46.14,0
44,45.22,46.12,0
44,45.20,46.10,0
46,45.21,46.10,0
45,45.21,46.09,0
44,45.18,46.06,0
46,45.20,46.06,0
46,45.22,46.06,0
48,45.27,46.08,0
50,45.37,46.12,0
49,45.44,46.15,0
46,45.45,46.15,0
49,45.52,46.18,0
49,45.59,46.21,0
49,45.66,46.23,0
48,45.71,46.25,0
48,45.75,46.27,0
50,45.84,46.31,0
47,45.86,46.31,0
47,45.88,46.32,0
47,45.91,46.33,0
46,45.91,46.32,0
47,45.93,46.33,0
46,45.93,46.33,0
48,45.97,46.34,0
48,46.01,46.36,0
47,46.03,46.37,0
46,46.03,46.36,0
46,46.03,46.36,0
47,46.05,46.37,0
46,46.05,46.36,0
46,46.05,46.36,0
48,46.09,46.38,0
45,46.07,46.36,0
46,46.06,46.36,0
49,46.12,46.38,0
50,46.20,46.42,0
49,46.26,46.45,0
47,46.27,46.45,0
47,46.29,46.46,0
52,46.40,46.51,0
51,46.49,46.56,0
50,46.56,46.59,0
50,46.63,46.63,0
48,46.66,46.64,0
51,46.75,46.68,0
49,46.79,46.71,0
51,46.87,46.75,0
50,46.94,46.78,0
49,46.98,46.80,0
49,47.02,46.83,0
50,47.08,46.86,0
49,47.12,46.88,0
49,47.15,46.90,0
48,47.17,46.91,0
50,47.23,46.94,0
49,47.26,46.96,0
48,47.28,46.97,0
48,47.29,46.98,0
48,47.31,46.99,0
53,47.42,47.05,0
49,47.45,47.07,0
48,47.46,47.08,0
47,47.45,47.08,0
47,47.45,47.08,0
49,47.48,47.10,0
48,47.49,47.11,0
48,47.50,47.12,0
47,47.49,47.12,0
49,47.52,47.14,0
48,47.53,47.14,0
48,47.54,47.15,0
47,47.53,47.15,0
48,47.54,47.16,0
46,47.50,47.15,0
46,47.47,47.14,0
46,47.44,47.13,0
48,47.46,47.13,0
48,47.47,47.14,0
47,47.46,47.14,0
47,47.45,47.14,0
47,47.44,47.14,0
46,47.41,47.13,0
47,47.40,47.13,0
47,47.39,47.12,0
48,47.41,47.13,0
48,47.42,47.14,0
47,47.41,47.14,0
48,47.42,47.15,0
49,47.45,47.17,0
48,47.46,47.18,0
47,47.45,47.17,0
48,47.47,47.18,0
48,47.48,47.19,0
48,47.49,47.20,0
46,47.46,47.19,0
48,47.47,47.19,0
48,47.48,47.20,0
48,47.49,47.21,0
47,47.48,47.21,0
48,47.49,47.22,0
50,47.54,47.24,0
50,47.59,47.27,0
50,47.64,47.30,0
49,47.66,47.32,0
48,47.67,47.32,0
49,47.70,47.34,0
50,47.74,47.37,0
49,47.77,47.38,0
48,47.77,47.39,0
49,47.80,47.41,0
47,47.78,47.40,0
48,47.79,47.41,0
47,47.77,47.40,0
47,47.76,47.40,0
48,47.76,47.41,0
49,47.79,47.42,0
50,47.83,47.45,0
50,47.87,47.47,0
50,47.92,47.50,0
49,47.94,47.51,0
50,47.98,47.54,0
50,48.02,47.56,0
52,48.10,47.61,0
50,48.14,47.63,0
49,48.15,47.64,0
50,48.19,47.67,0
49,48.21,47.68,0
50,48.24,47.70,0
48,48.24,47.71,0
50,48.27,47.73,0
48,48.27,47.73,0
48,48.26,47.74,0
47,48.24,47.73,0
50,48.27,47.75,0
49,48.29,47.76,0
49,48.30,47.78,0
49,48.32,47.79,0
49,48.33,47.80,0
49,48.34,47.81,0
48,48.34,47.81,0
49,48.35,47.83,0
49,48.36,47.84,0
48,48.35,47.84,0
48,48.35,47.84,0
48,48.34,47.84,0
48,48.33,47.84,0
48,48.33,47.85,0
48,48.32,47.85,0
48,48.31,47.85,0
48,48.31,47.85,0
47,48.28,47.84,0
49,48.30,47.85,0
48,48.29,47.85,0
48,48.28,47.86,0
46,48.24,47.84,0
49,48.25,47.85,0
49,48.27,47.86,0
48,48.26,47.86,0
49,48.28,47.87,0
48,48.27,47.87,0
49,48.29,47.89,0
48,48.28,47.89,0
46,48.24,47.87,0
48,48.23,47.87,0
49,48.25,47.88,0
50,48.28,47.90,0
48,48.28,47.90,0
47,48.25,47.89,0
49,48.27,47.91,0
50,48.30,47.93,0
48,48.29,47.93,0
47,48.27,47.92,0
52,48.34,47.96,0
50,48.38,47.98,0
50,48.41,48.00,0
47,48.38,47.99,0
50,48.41,48.01,0
52,48.48,48.05,0
50,48.51,48.07,0
50,48.54,48.09,0
50,48.57,48.11,0
50,48.60,48.13,0
47,48.57,48.11,0
52,48.64,48.15,0
50,48.67,48.17,0
50,48.69,48.19,0
48,48.68,48.19,0
50,48.71,48.21,0
50,48.73,48.22,0
50,48.76,48.24,0
52,48.82,48.28,0
49,48.82,48.29,0
50,48.85,48.30,0
50,48.87,48.32,0
50,48.89,48.34,0
51,48.94,48.36,0
50,48.96,48.38,0
50,48.98,48.40,0
50,49.00,48.41,0
51,49.04,48.44,0
52,49.10,48.47,0
50,49.12,48.49,0
50,49.13,48.50,0
50,49.15,48.52,0
50,49.17,48.53,0
50,49.18,48.55,0
54,49.28,48.60,0
54,49.38,48.66,0
52,49.43,48.69,0
53,49.50,48.73,0
52,49.55,48.77,0
55,49.66,48.83,0
58,49.83,48.92,0
56,49.95,48.99,0
54,50.03,49.04,0
54,50.11,49.09,0
54,50.19,49.14,0
51,50.20,49.16,0
55,50.30,49.22,0
54,50.37,49.27,0
58,50.53,49.35,0
54,50.60,49.40,0
53,50.64,49.44,0
52,50.67,49.46,0
54,50.74,49.51,0
54,50.80,49.55,0
57,50.93,49.63,0
55,51.01,49.68,0
53,51.05,49.71,0
56,51.15,49.78,0
56,51.24,49.84,0
59,51.40,49.93,0
56,51.49,49.99,0
54,51.54,50.03,0
55,51.61,50.08,0
57,51.72,50.15,0
61,51.90,50.26,0
58,52.03,50.33,0
56,52.10,50.39,0
57,52.20,50.46,0
57,52.30,50.52,0
56,52.37,50.58,0
56,52.45,50.63,0
58,52.56,50.71,0
57,52.65,50.77,0
56,52.71,50.82,0
56,52.78,50.87,0
56,52.84,50.92,0
58,52.95,50.99,0
58,53.05,51.06,0
58,53.15,51.13,0
58,53.24,51.20,0
58,53.34,51.27,0
58,53.43,51.34,0
58,53.52,51.40,0
58,53.61,51.47,0
57,53.68,51.53,0
56,53.73,51.57,0
58,53.81,51.64,0
60,53.94,51.72,0
59,54.04,51.79,0
62,54.20,51.89,0
58,54.27,51.95,0
60,54.39,52.04,0
58,54.46,52.09,0
60,54.57,52.17,0
58,54.64,52.23,0
58,54.71,52.29,0
60,54.81,52.37,0
64,55.00,52.48,0
64,55.18,52.60,0
62,55.31,52.69,0
61,55.43,52.78,0
64,55.60,52.89,0
62,55.73,52.98,0
65,55.91,53.10,0
64,56.07,53.21,0
62,56.19,53.30,0
64,56.35,53.40,0
64,56.50,53.51,0
62,56.61,53.59,0
64,56.76,53.70,0
66,56.94,53.82,0
66,57.12,53.94,0
64,57.26,54.04,0
68,57.48,54.18,0
70,57.73,54.34,0
65,57.87,54.45,0
67,58.05,54.57,0
76,58.41,54.79,0
68,58.61,54.92,0
66,58.75,55.03,0
66,58.90,55.14,0
68,59.08,55.27,0
67,59.24,55.39,0
68,59.41,55.51,0
69,59.61,55.65,0
70,59.81,55.79,0
76,60.14,55.99,0
74,60.41,56.17,0
72,60.65,56.33,0
72,60.87,56.49,0
76,61.18,56.68,0
72,61.39,56.84,0
70,61.56,56.97,0
74,61.81,57.14,0
78,62.14,57.35,0
76,62.41,57.53,0
73,62.63,57.69,0
79,62.95,57.90,0
89,63.47,58.21,0
86,63.92,58.49,0
82,64.29,58.72,0
81,64.62,58.95,0
79,64.91,59.15,0
79,65.19,59.35,0
81,65.51,59.56,0
80,65.80,59.77,0
82,66.12,59.99,0
84,66.48,60.23,0
82,66.79,60.45,0
79,67.03,60.63,0
81,67.31,60.84,0
83,67.63,61.06,0
83,67.93,61.28,0
79,68.15,61.46,0
84,68.47,61.68,0
83,68.76,61.89,0
81,69.01,62.08,0
80,69.23,62.26,0
84,69.52,62.48,0
90,69.93,62.76,0
88,70.29,63.01,0
84,70.57,63.22,0
82,70.80,63.41,0
88,71.14,63.65,0
89,71.50,63.91,0
85,71.77,64.12,0
94,72.21,64.42,0
94,72.65,64.71,0
89,72.97,64.95,0
95,73.42,65.26,0
95,73.85,65.55,0
93,74.23,65.83,0
89,74.53,66.06,0
95,74.93,66.35,0
99,75.42,66.67,0
97,75.85,66.98,0
94,76.21,67.25,0
94,76.57,67.52,0
100,77.04,67.84,0
105,77.59,68.21,0
104,78.12,68.57,0
99,78.54,68.87,0
103,79.03,69.22,0
110,79.65,69.62,0
109,80.24,70.02,0
106,80.75,70.38,0
102,81.18,70.69,0
103,81.61,71.02,0
101,82.00,71.32,0
101,82.38,71.61,0
101,82.75,71.91,0
100,83.10,72.19,0
101,83.46,72.48,0
105,83.89,72.80,0
102,84.25,73.09,0
103,84.62,73.39,0
102,84.97,73.68,0
100,85.27,73.94,0
103,85.63,74.23,0
104,85.99,74.53,0
101,86.29,74.79,0
102,86.61,75.07,0
111,87.10,75.43,0
112,87.59,75.79,0
105,87.94,76.08,0
117,88.52,76.49,0
122,89.19,76.95,0
115,89.71,77.33,0
110,90.11,77.66,0
113,90.57,78.01,0
114,91.04,78.37,0
113,91.48,78.71,0
111,91.87,79.04,0
113,92.29,79.38,0
123,92.91,79.81,0
116,93.37,80.18,0
112,93.74,80.49,0
122,94.31,80.91,0
125,94.92,81.35,0
121,95.44,81.75,0
125,96.03,82.18,0
125,96.61,82.61,0
117,97.02,82.95,0
128,97.64,83.40,0
134,98.37,83.91,0
129,98.98,84.36,0
121,99.42,84.72,0
123,99.89,85.11,0
121,100.31,85.47,0
125,100.81,85.86,0
124,101.27,86.24,0
122,101.69,86.60,0
124,102.13,86.97,0
124,102.57,87.34,0
122,102.96,87.69,0
124,103.38,88.05,0
120,103.71,88.37,0
121,104.06,88.70,0
124,104.46,89.05,0
124,104.85,89.40,0
124,105.23,89.75,0
124,105.61,90.09,0
129,106.07,90.48,0
127,106.49,90.85,0
124,106.84,91.18,0
128,107.27,91.55,0
133,107.78,91.96,0
129,108.20,92.33,0
124,108.52,92.65,0
124,108.83,92.96,0
124,109.13,93.27,0
125,109.45,93.59,0
128,109.82,93.93,0
129,110.21,94.28,0
126,110.52,94.60,0
126,110.83,94.91,0
134,111.29,95.30,0
140,111.87,95.75,0
135,112.33,96.14,0
131,112.70,96.49,0
133,113.11,96.86,0
135,113.55,97.24,0
140,114.08,97.67,0
141,114.62,98.10,0
134,115.00,98.46,0
135,115.40,98.82,0
140,115.90,99.24,0
139,116.36,99.63,0
134,116.71,99.98,0
137,117.12,100.35,0
135,117.47,100.69,0
135,117.82,101.04,0
135,118.17,101.38,0
133,118.46,101.69,0
138,118.86,102.06,0
141,119.30,102.45,0
135,119.61,102.77,0
136,119.94,103.10,0
136,120.26,103.43,0
138,120.62,103.78,0
137,120.94,104.11,0
139,121.30,104.46,0
136,121.60,104.77,0
137,121.91,105.10,0
143,122.33,105.48,0
139,122.66,105.81,0
140,123.01,106.15,0
139,123.33,106.48,0
138,123.62,106.80,0
137,123.89,107.10,0
137,124.15,107.40,0
139,124.45,107.71,0
137,124.70,108.01,0
137,124.95,108.30,0
137,125.19,108.58,0
137,125.42,108.87,0
136,125.63,109.14,0
137,125.86,109.42,0
140,126.14,109.72,0
137,126.36,110.00,0
135,126.53,110.25,0
137,126.74,110.51,0
136,126.93,110.77,0
137,127.13,111.03,0
137,127.33,111.29,0
137,127.52,111.55,0
136,127.69,111.79,0
138,127.90,112.05,0
135,128.04,112.28,0
140,128.28,112.56,0
134,128.39,112.78,0
136,128.54,113.01,0
133,128.63,113.21,0
134,128.74,113.42,0
133,128.83,113.61,0
135,128.95,113.83,0
133,129.03,114.02,0
134,129.13,114.22,0
135,129.25,114.42,0
133,129.32,114.61,0
133,129.40,114.79,0
133,129.47,114.98,0
133,129.54,115.16,0
132,129.59,115.33,0
133,129.66,115.50,0
131,129.68,115.66,0
134,129.77,115.84,0
132,129.81,116.00,0
132,129.86,116.16,0
132,129.90,116.32,0
135,130.00,116.51,0
137,130.14,116.71,0
133,130.20,116.88,0
135,130.30,117.06,0
133,130.35,117.22,0
134,130.42,117.38,0
131,130.43,117.52,0
132,130.47,117.66,0
131,130.48,117.80,0
133,130.53,117.95,0
133,130.58,118.10,0
133,130.62,118.25,0
131,130.63,118.38,0
132,130.66,118.51,0
129,130.63,118.62,0
130,130.61,118.73,0
131,130.62,118.85,0
132,130.65,118.99,0
129,130.62,119.09,0
130,130.60,119.20,0
129,130.57,119.29,0
129,130.54,119.39,0
129,130.51,119.49,0
129,130.48,119.58,0
127,130.41,119.66,0
129,130.38,119.75,0
129,130.35,119.84,0
128,130.31,119.92,0
127,130.24,119.99,0
127,130.18,120.06,0
128,130.13,120.14,0
127,130.07,120.21,0
128,130.03,120.29,0
126,129.95,120.35,0
130,129.95,120.44,0
127,129.89,120.51,0
126,129.81,120.56,0
125,129.72,120.61,0
126,129.64,120.66,0
127,129.59,120.73,0
127,129.54,120.79,0
125,129.45,120.83,0
125,129.36,120.87,0
125,129.27,120.91,0
125,129.18,120.95,0
127,129.14,121.01,0
125,129.06,121.05,0
124,128.96,121.08,0
125,128.88,121.12,0
126,128.82,121.17,0
124,128.72,121.20,0
125,128.65,121.24,0
127,128.62,121.30,0
127,128.58,121.35,0
125,128.51,121.39,0
123,128.40,121.41,0
124,128.31,121.43,0
124,128.23,121.46,0
124,128.14,121.48,0
123,128.04,121.50,0
124,127.96,121.52,0
123,127.86,121.54,0
123,127.76,121.55,0
123,127.67,121.57,0
122,127.55,121.57,0
122,127.44,121.58,0
123,127.35,121.59,0
121,127.23,121.58,0
121,127.10,121.58,0
121,126.98,121.57,0
121,126.86,121.57,0
121,126.74,121.56,0
120,126.61,121.55,0
120,126.48,121.53,0
120,126.35,121.51,0
120,126.22,121.50,0
119,126.08,121.47,0
121,125.97,121.47,0
119,125.84,121.44,0
119,125.70,121.42,0
119,125.56,121.40,0
119,125.43,121.37,0
118,125.28,121.34,0
119,125.16,121.32,0
117,125.00,121.27,0
117,124.84,121.23,0
117,124.68,121.19,0
117,124.53,121.15,0
117,124.38,121.10,0
117,124.23,121.06,0
117,124.08,121.02,0
116,123.92,120.97,0
117,123.78,120.93,0
115,123.61,120.87,0
117,123.48,120.83,0
116,123.33,120.79,0
116,123.18,120.74,0
115,123.02,120.68,0
117,122.90,120.64,0
115,122.74,120.59,0
115,122.58,120.53,0
113,122.39,120.46,0
114,122.22,120.39,0
114,122.06,120.33,0
114,121.90,120.26,0
113,121.72,120.19,0
113,121.55,120.12,0
113,121.37,120.05,0
113,121.21,119.98,0
113,121.04,119.91,0
113,120.88,119.84,0
113,120.72,119.77,0
112,120.55,119.69,0
113,120.40,119.63,0
112,120.23,119.55,0
113,120.09,119.48,0
111,119.90,119.40,0
111,119.73,119.32,0
111,119.55,119.23,0
111,119.38,119.15,0
111,119.21,119.07,0
111,119.05,118.99,0
111,118.89,118.91,0
110,118.71,118.82,0
110,118.54,118.73,0
109,118.35,118.63,0
109,118.16,118.54,0
109,117.98,118.44,0
111,117.84,118.37,0
109,117.66,118.27,0
109,117.49,118.18,0
109,117.32,118.09,0
109,117.15,118.00,0
108,116.97,117.90,0
107,116.77,117.79,0
109,116.61,117.70,0
107,116.42,117.59,0
107,116.23,117.49,0
107,116.05,117.38,0
107,115.87,117.28,0
107,115.69,117.18,0
108,115.53,117.09,0
105,115.32,116.96,0
106,115.14,116.85,0
105,114.93,116.74,0
107,114.78,116.64,0
105,114.58,116.52,0
107,114.43,116.43,0
105,114.24,116.31,0
105,114.06,116.20,0
105,113.87,116.09,0
105,113.70,115.98,0
105,113.52,115.87,0
105,113.35,115.76,0
105,113.19,115.65,0
104,113.00,115.53,0
105,112.84,115.43,0
104,112.66,115.31,0
104,112.49,115.20,0
104,112.32,115.09,0
103,112.14,114.97,0
103,111.95,114.85,0
104,111.79,114.74,0
102,111.60,114.61,0
103,111.43,114.50,0
102,111.24,114.37,0
103,111.07,114.26,0
103,110.91,114.15,0
103,110.75,114.03,0
102,110.58,113.91,0
102,110.41,113.79,0
101,110.22,113.67,0
101,110.03,113.54,0
101,109.85,113.41,0
101,109.68,113.29,0
102,109.52,113.18,0
101,109.35,113.06,0
101,109.19,112.94,0
99,108.98,112.80,0
100,108.80,112.67,0
100,108.63,112.54,0
98,108.41,112.40,0
99,108.22,112.26,0
100,108.06,112.14,0
100,107.90,112.02,0
98,107.70,111.88,0
99,107.53,111.75,0
98,107.34,111.61,0
98,107.15,111.48,0
101,107.03,111.37,0
97,106.83,111.23,0
99,106.67,111.10,0
97,106.48,110.96,0
98,106.31,110.83,0
98,106.14,110.71,0
96,105.94,110.56,0
96,105.74,110.41,0
96,105.54,110.27,0
98,105.39,110.15,0
96,105.21,110.00,0
96,105.02,109.86,0
96,104.84,109.73,0
96,104.66,109.59,0
96,104.49,109.45,0
95,104.30,109.31,0
96,104.14,109.18,0
97,103.99,109.05,0
95,103.81,108.91,0
95,103.64,108.77,0
95,103.46,108.64,0
95,103.29,108.50,0
94,103.11,108.35,0
97,102.99,108.24,0
96,102.85,108.12,0
96,102.71,108.00,0
94,102.54,107.86,0
93,102.34,107.71,0
94,102.18,107.57,0
94,102.01,107.44,0
94,101.85,107.30,0
94,101.70,107.17,0
93,101.52,107.03,0
93,101.35,106.89,0
93,101.19,106.75,0
93,101.02,106.61,0
93,100.86,106.47,0
94,100.72,106.35,0
92,100.55,106.21,0
92,100.38,106.06,0
93,100.23,105.93,0
94,100.11,105.81,0
92,99.94,105.68,0
92,99.79,105.54,0
93,99.65,105.41,0
93,99.52,105.29,0
93,99.39,105.17,0
92,99.24,105.04,0
92,99.09,104.90,0
92,98.95,104.78,0
92,98.81,104.65,0
93,98.70,104.53,0
91,98.54,104.40,0
91,98.39,104.26,0
91,98.24,104.13,0
91,98.10,104.00,0
91,97.96,103.87,0
92,97.84,103.75,0
92,97.72,103.63,0
89,97.55,103.49,0
89,97.38,103.34,0
91,97.25,103.22,0
91,97.12,103.10,0
92,97.02,102.98,0
90,96.88,102.85,0
90,96.74,102.73,0
89,96.59,102.59,0
89,96.44,102.45,0
89,96.29,102.32,0
89,96.14,102.19,0
87,95.96,102.03,0
90,95.84,101.91,0
90,95.72,101.79,0
89,95.59,101.67,0
90,95.48,101.55,0
88,95.33,101.41,0
90,95.22,101.30,0
89,95.10,101.18,0
89,94.97,101.05,0
89,94.85,100.93,0
89,94.74,100.82,0
90,94.64,100.71,0
89,94.53,100.59,0
88,94.40,100.46,0
89,94.29,100.35,0
88,94.17,100.23,0
88,94.04,100.10,0
89,93.94,99.99,0
88,93.82,99.87,0
88,93.71,99.75,0
87,93.57,99.63,0
87,93.44,99.50,0
88,93.33,99.39,0
88,93.23,99.27,0
89,93.14,99.17,0
87,93.02,99.05,0
86,92.88,98.92,0
88,92.78,98.81,0
88,92.68,98.70,0
88,92.59,98.59,0
86,92.46,98.47,0
87,92.35,98.35,0
87,92.24,98.24,0
89,92.18,98.15,0
86,92.05,98.02,0
86,91.93,97.90,0
85,91.79,97.77,0
88,91.72,97.68,0
86,91.60,97.56,0
86,91.49,97.44,0
88,91.42,97.35,0
87,91.33,97.25,0
87,91.25,97.14,0
86,91.14,97.03,0
86,91.04,96.92,0
86,90.94,96.81,0
86,90.84,96.71,0
86,90.74,96.60,0
85,90.63,96.48,0
86,90.54,96.38,0
86,90.45,96.27,0
84,90.32,96.15,0
84,90.19,96.03,0
85,90.09,95.92,0
84,89.96,95.80,0
84,89.85,95.68,0
87,89.79,95.60,0
86,89.71,95.50,0
84,89.60,95.38,0
84,89.49,95.27,0
86,89.42,95.18,0
86,89.35,95.09,0
84,89.24,94.97,0
84,89.14,94.87,0
85,89.05,94.77,0
85,88.97,94.67,0
86,88.91,94.58,0
84,88.81,94.48,0
84,88.72,94.37,0
84,88.62,94.27,0
86,88.57,94.19,0
84,88.48,94.08,0
85,88.41,93.99,0
83,88.30,93.88,0
84,88.22,93.78,0
84,88.13,93.69,0
84,88.05,93.59,0
85,87.99,93.50,0
84,87.91,93.41,0
84,87.83,93.31,0
84,87.75,93.22,0
83,87.66,93.12,0
82,87.55,93.01,0
84,87.47,92.92,0
83,87.39,92.82,0
83,87.30,92.72,0
82,87.19,92.61,0
82,87.09,92.51,0
83,87.01,92.41,0
82,86.91,92.31,0
84,86.85,92.22,0
82,86.75,92.12,0
83,86.68,92.03,0
81,86.56,91.92,0
82,86.47,91.82,0
82,86.38,91.72,0
83,86.31,91.64,0
82,86.23,91.54,0
82,86.14,91.44,0
81,86.04,91.34,0
82,85.96,91.25,0
82,85.88,91.15,0
82,85.80,91.06,0
81,85.71,90.96,0
81,85.61,90.86,0
82,85.54,90.77,0
80,85.43,90.67,0
81,85.34,90.57,0
80,85.23,90.46,0
80,85.13,90.36,0
81,85.05,90.27,0
80,84.95,90.16,0
81,84.87,90.07,0
82,84.81,89.99,0
82,84.75,89.91,0
81,84.68,89.82,0
80,84.58,89.72,0
80,84.49,89.63,0
81,84.42,89.54,0
80,84.33,89.44,0
80,84.25,89.35,0
83,84.22,89.29,0
80,84.14,89.19,0
79,84.04,89.09,0
79,83.94,88.99,0
81,83.88,88.91,0
79,83.78,88.81,0
79,83.68,88.71,0
79,83.59,88.62,0
81,83.54,88.54,0
79,83.45,88.44,0
78,83.34,88.34,0
81,83.29,88.27,0
77,83.17,88.15,0
79,83.08,88.06,0
78,82.98,87.96,0
78,82.88,87.86,0
77,82.76,87.75,0
78,82.67,87.66,0
78,82.57,87.56,0
79,82.50,87.47,0
77,82.39,87.37,0
78,82.31,87.28,0
78,82.22,87.18,0
78,82.13,87.09,0
80,82.09,87.02,0
78,82.01,86.93,0
78,81.93,86.84,0
77,81.83,86.74,0
79,81.77,86.66,0
78,81.70,86.58,0
78,81.63,86.49,0
79,81.57,86.42,0
77,81.48,86.32,0
76,81.37,86.22,0
76,81.26,86.12,0
76,81.16,86.02,0
78,81.10,85.94,0
76,80.99,85.84,0
76,80.89,85.74,0
77,80.82,85.65,0
77,80.74,85.56,0
76,80.65,85.47,0
76,80.55,85.37,0
76,80.46,85.28,0
76,80.37,85.19,0
76,80.28,85.10,0
76,80.20,85.01,0
76,80.11,84.92,0
76,80.03,84.83,0
76,79.95,84.74,0
76,79.87,84.65,0
76,79.80,84.56,0
76,79.72,84.48,0
74,79.61,84.37,0
74,79.49,84.27,0
76,79.42,84.19,0
75,79.33,84.10,0
76,79.27,84.01,0
74,79.16,83.91,0
74,79.06,83.81,0
74,78.96,83.72,0
74,78.86,83.62,0
74,78.76,83.52,0
75,78.69,83.44,0
74,78.59,83.34,0
74,78.50,83.25,0
74,78.41,83.16,0
75,78.34,83.08,0
74,78.26,82.99,0
73,78.15,82.89,0
74,78.07,82.80,0
75,78.01,82.72,0
74,77.93,82.63,0
74,77.85,82.55,0
72,77.73,82.44,0
73,77.64,82.35,0
76,77.60,82.28,0
72,77.49,82.18,0
72,77.38,82.08,0
73,77.29,81.99,0
72,77.19,81.89,0
72,77.08,81.79,0
72,76.98,81.69,0
73,76.90,81.60,0
75,76.86,81.54,0
76,76.85,81.48,0
72,76.75,81.39,0
72,76.66,81.29,0
72,76.56,81.20,0
72,76.47,81.11,0
72,76.38,81.02,0
73,76.31,80.94,0
71,76.21,80.84,0
72,76.12,80.75,0
72,76.04,80.66,0
72,75.96,80.58,0
73,75.90,80.50,0
72,75.82,80.41,0
72,75.75,80.33,0
71,75.65,80.24,0
72,75.58,80.15,0
72,75.51,80.07,0
72,75.44,79.99,0
71,75.35,79.90,0
73,75.30,79.83,0
70,75.20,79.73,0
71,75.11,79.65,0
71,75.03,79.56,0
71,74.95,79.48,0
70,74.85,79.38,0
70,74.75,79.29,0
69,74.64,79.18,0
69,74.52,79.08,0
69,74.41,78.98,0
70,74.33,78.89,0
69,74.22,78.79,0
69,74.12,78.69,0
69,74.01,78.60,0
69,73.91,78.50,0
70,73.83,78.42,0
69,73.74,78.32,0
69,73.64,78.23,0
68,73.53,78.13,0
69,73.44,78.04,0
68,73.33,77.94,0
68,73.22,77.84,0
67,73.10,77.73,0
68,73.00,77.63,0
68,72.90,77.53,0
68,72.80,77.44,0
68,72.70,77.34,0
69,72.63,77.26,0
68,72.54,77.17,0
68,72.45,77.08,0
66,72.32,76.97,0
67,72.21,76.87,0
68,72.13,76.78,0
67,72.02,76.68,0
66,71.90,76.57,0
69,71.85,76.50,0
68,71.77,76.41,0
67,71.67,76.32,0
66,71.56,76.22,0
68,71.49,76.13,0
68,71.42,76.05,0
67,71.33,75.96,0
66,71.22,75.86,0
66,71.12,75.76,0
66,71.02,75.67,0
66,70.92,75.57,0
66,70.82,75.47,0
67,70.74,75.39,0
66,70.65,75.29,0
66,70.55,75.20,0
65,70.44,75.10,0
66,70.35,75.01,0
66,70.27,74.92,0
66,70.18,74.83,0
66,70.10,74.74,0
67,70.04,74.66,0
66,69.96,74.58,0
66,69.88,74.49,0
66,69.80,74.41,0
66,69.72,74.32,0
65,69.63,74.23,0
66,69.56,74.15,0
66,69.48,74.07,0
65,69.40,73.97,0
64,69.29,73.87,0
64,69.18,73.78,0
64,69.08,73.68,0
65,69.00,73.59,0
66,68.94,73.52,0
66,68.88,73.44,0
66,68.82,73.37,0
64,68.72,73.27,0
64,68.63,73.18,0
66,68.58,73.11,0
64,68.49,73.02,0
64,68.40,72.93,0
64,68.31,72.84,0
66,68.26,72.77,0
64,68.18,72.68,0
64,68.09,72.59,0
66,68.05,72.53,0
65,67.99,72.45,0
64,67.91,72.37,0
64,67.83,72.28,0
65,67.78,72.21,0
65,67.72,72.14,0
65,67.67,72.07,0
65,67.61,72.00,0
68,67.62,71.96,0
64,67.55,71.88,0
64,67.48,71.80,0
64,67.41,71.72,0
64,67.34,71.64,0
64,67.27,71.57,0
64,67.21,71.49,0
67,67.20,71.45,0
64,67.14,71.37,0
64,67.08,71.30,0
64,67.01,71.23,0
63,66.93,71.14,0
63,66.86,71.06,0
62,66.76,70.97,0
63,66.68,70.89,0
59,66.53,70.77,0
61,66.42,70.68,0
62,66.33,70.59,0
62,66.24,70.50,0
62,66.16,70.42,0
63,66.10,70.34,0
62,66.01,70.26,0
62,65.93,70.18,0
62,65.85,70.10,0
61,65.76,70.00,0
61,65.66,69.91,0
61,65.57,69.83,0
61,65.48,69.74,0
61,65.39,69.65,0
62,65.32,69.57,0
61,65.23,69.49,0
62,65.17,69.41,0
63,65.13,69.35,0
61,65.04,69.27,0
61,64.96,69.18,0
60,64.86,69.09,0
61,64.79,69.01,0
60,64.69,68.92,0
60,64.60,68.83,0
60,64.50,68.74,0
61,64.43,68.66,0
60,64.35,68.58,0
60,64.26,68.49,0
60,64.17,68.41,0
61,64.11,68.33,0
60,64.03,68.25,0
60,63.95,68.17,0
61,63.89,68.10,0
61,63.83,68.02,0
62,63.79,67.96,0
61,63.74,67.90,0
61,63.68,67.83,0
61,63.63,67.76,0
64,63.64,67.72,0
60,63.56,67.64,0
62,63.53,67.59,0
59,63.44,67.50,0
60,63.37,67.43,0
60,63.31,67.35,0
61,63.26,67.29,0
59,63.17,67.21,0
58,63.07,67.11,0
58,62.97,67.02,0
60,62.91,66.95,0
60,62.85,66.88,0
58,62.76,66.79,0
59,62.68,66.72,0
60,62.63,66.65,0
60,62.57,66.58,0
60,62.52,66.52,0
60,62.47,66.45,0
59,62.40,66.38,0
59,62.33,66.30,0
58,62.25,66.22,0
58,62.16,66.14,0
59,62.10,66.07,0
59,62.04,66.00,0
59,61.98,65.93,0
60,61.94,65.87,0
60,61.90,65.81,0
58,61.82,65.73,0
62,61.82,65.69,0
60,61.79,65.64,0
60,61.75,65.58,0
60,61.72,65.52,0
60,61.68,65.47,0
58,61.61,65.39,0
60,61.58,65.34,0
60,61.55,65.29,0
59,61.49,65.22,0
58,61.42,65.15,0
59,61.38,65.09,0
58,61.31,65.02,0
60,61.28,64.97,0
61,61.28,64.93,0
62,61.29,64.90,0
60,61.27,64.85,0
61,61.26,64.81,0
60,61.23,64.76,0
62,61.25,64.74,0
61,61.25,64.70,0
60,61.22,64.65,0
60,61.20,64.61,0
60,61.17,64.56,0
60,61.15,64.51,0
60,61.13,64.47,0
62,61.14,64.44,0
61,61.14,64.41,0
60,61.12,64.37,0
60,61.10,64.32,0
60,61.07,64.28,0
60,61.05,64.24,0
59,61.01,64.18,0
60,60.99,64.14,0
62,61.01,64.12,0
62,61.03,64.10,0
61,61.03,64.07,0
60,61.01,64.03,0
60,60.99,63.99,0
60,60.97,63.95,0
61,60.97,63.92,0
60,60.95,63.88,0
64,61.01,63.88,0
63,61.05,63.87,0
61,61.05,63.84,0
60,61.03,63.80,0
62,61.05,63.79,0
63,61.09,63.78,0
63,61.13,63.77,0
64,61.18,63.77,0
64,61.24,63.77,0
63,61.27,63.77,0
63,61.31,63.76,0
61,61.30,63.73,0
61,61.30,63.70,0
62,61.31,63.69,0
63,61.35,63.68,0
62,61.36,63.66,0
58,61.29,63.61,0
61,61.29,63.58,0
61,61.28,63.55,0
62,61.29,63.54,0
62,61.31,63.52,0
63,61.34,63.52,0
63,61.37,63.51,0
64,61.43,63.52,0
62,61.44,63.50,0
61,61.43,63.48,0
64,61.48,63.48,0
64,61.53,63.49,0
64,61.58,63.49,0
65,61.65,63.51,0
65,61.72,63.52,0
62,61.72,63.51,0
62,61.73,63.49,0
62,61.73,63.48,0
64,61.78,63.48,0
64,61.82,63.49,0
64,61.87,63.49,0
65,61.93,63.51,0
67,62.03,63.54,0
64,62.07,63.55,0
62,62.07,63.53,0
67,62.17,63.57,0
66,62.24,63.59,0
66,62.32,63.62,0
66,62.39,63.64,0
66,62.46,63.66,0
64,62.50,63.67,0
64,62.53,63.67,0
64,62.56,63.67,0
64,62.58,63.68,0
64,62.61,63.68,0
64,62.64,63.68,0
64,62.67,63.69,0
65,62.71,63.70,0
64,62.74,63.70,0
64,62.76,63.71,0
64,62.79,63.71,0
66,62.85,63.73,0
66,62.92,63.75,0
64,62.94,63.76,0
64,62.96,63.76,0
65,63.00,63.77,0
66,63.06,63.79,0
64,63.08,63.80,0
66,63.14,63.82,0
65,63.17,63.83,0
64,63.19,63.83,0
63,63.19,63.82,0
66,63.24,63.84,0
66,63.30,63.87,0
66,63.35,63.89,0
67,63.43,63.92,0
64,63.44,63.92,0
64,63.45,63.92,0
64,63.46,63.92,0
64,63.47,63.92,0
66,63.52,63.94,0
65,63.55,63.95,0
63,63.54,63.94,0
64,63.55,63.94,0
64,63.56,63.94,0
65,63.59,63.96,0
64,63.59,63.96,0
66,63.64,63.98,0
66,63.69,64.00,0
66,63.74,64.02,0
67,63.80,64.05,0
64,63.81,64.05,0
66,63.85,64.07,0
66,63.89,64.08,0
68,63.97,64.12,0
66,64.02,64.14,0
64,64.01,64.14,0
65,64.03,64.15,0
65,64.05,64.16,0
64,64.05,64.16,0
64,64.05,64.16,0
67,64.11,64.18,0
65,64.13,64.19,0
64,64.13,64.19,0
64,64.12,64.19,0
68,64.20,64.23,0
64,64.20,64.22,0
65,64.21,64.23,0
64,64.21,64.23,0
64,64.20,64.23,0
65,64.22,64.23,0
66,64.26,64.25,0
64,64.25,64.25,0
64,64.25,64.25,0
64,64.24,64.24,0
64,64.24,64.24,0
64,64.23,64.24,0
66,64.27,64.26,0
66,64.30,64.28,0
68,64.38,64.31,0
64,64.37,64.31,0
65,64.38,64.32,0
65,64.39,64.32,0
66,64.43,64.34,0
64,64.42,64.34,0
65,64.43,64.34,0
65,64.44,64.35,0
64,64.43,64.35,0
64,64.42,64.34,0
65,64.43,64.35,0
64,64.43,64.35,0
64,64.42,64.34,0
64,64.41,64.34,0
64,64.40,64.34,0
65,64.41,64.34,0
64,64.40,64.34,0
62,64.36,64.32,0
64,64.35,64.31,0
63,64.32,64.30,0
64,64.32,64.30,0
64,64.31,64.29,0
64,64.30,64.29,0
64,64.30,64.29,0
62,64.25,64.26,0
62,64.21,64.24,0
64,64.20,64.24,0
64,64.20,64.24,0
64,64.19,64.23,0
62,64.15,64.21,0
64,64.15,64.21,0
62,64.10,64.19,0
62,64.06,64.17,0
64,64.06,64.16,0
64,64.06,64.16,0
66,64.10,64.18,0
64,64.10,64.18,0
64,64.09,64.18,0
65,64.11,64.19,0
64,64.11,64.18,0
64,64.11,64.18,0
64,64.11,64.18,0
64,64.10,64.18,0
64,64.10,64.18,0
62,64.06,64.15,0
64,64.06,64.15,0
63,64.04,64.14,0
62,64.00,64.12,0
62,63.96,64.10,0
64,63.96,64.10,0
63,63.94,64.09,0
62,63.90,64.07,0
62,63.86,64.05,0
64,63.86,64.05,0
63,63.85,64.03,0
62,63.81,64.01,0
62,63.77,63.99,0
62,63.74,63.97,0
62,63.70,63.95,0
62,63.67,63.94,0
63,63.66,63.93,0
62,63.62,63.91,0
62,63.59,63.89,0
62,63.56,63.87,0
62,63.53,63.85,0
62,63.50,63.83,0
63,63.49,63.82,0
63,63.48,63.81,0
61,63.43,63.79,0
61,63.38,63.76,0
62,63.35,63.74,0
64,63.36,63.74,0
62,63.34,63.73,0
61,63.29,63.70,0
61,63.24,63.67,0
62,63.22,63.66,0
64,63.24,63.66,0
64,63.25,63.66,0
64,63.27,63.67,0
63,63.26,63.66,0
64,63.28,63.66,0
64,63.29,63.67,0
64,63.30,63.67,0
64,63.32,63.67,0
63,63.31,63.67,0
62,63.29,63.65,0
61,63.24,63.62,0
64,63.25,63.63,0
62,63.23,63.61,0
62,63.21,63.59,0
62,63.18,63.58,0
62,63.16,63.56,0
62,63.13,63.55,0
62,63.11,63.53,0
63,63.11,63.53,0
64,63.13,63.53,0
64,63.14,63.54,0
62,63.12,63.52,0
64,63.14,63.52,0
62,63.12,63.51,0
64,63.13,63.51,0
62,63.11,63.50,0
63,63.11,63.49,0
62,63.09,63.48,0
62,63.07,63.46,0
62,63.04,63.45,0
61,63.00,63.43,0
66,63.06,63.45,0
64,63.08,63.46,0
62,63.06,63.44,0
61,63.02,63.42,0
64,63.04,63.42,0
64,63.06,63.43,0
62,63.04,63.41,0
63,63.04,63.41,0
64,63.06,63.42,0
62,63.03,63.40,0
62,63.01,63.39,0
64,63.03,63.39,0
62,63.01,63.38,0
62,62.99,63.37,0
62,62.97,63.35,0
63,62.97,63.35,0
62,62.95,63.34,0
62,62.93,63.32,0
62,62.92,63.31,0
62,62.90,63.30,0
62,62.88,63.28,0
62,62.86,63.27,0
60,62.80,63.24,0
63,62.81,63.24,0
59,62.73,63.19,0
62,62.72,63.18,0
63,62.72,63.18,0
62,62.71,63.17,0
61,62.67,63.15,0
62,62.66,63.13,0
62,62.65,63.12,0
63,62.66,63.12,0
62,62.64,63.11,0
62,62.63,63.10,0
64,62.66,63.11,0
64,62.68,63.12,0
62,62.67,63.11,0
62,62.66,63.10,0
64,62.68,63.10,0
64,62.71,63.11,0
62,62.70,63.10,0
62,62.68,63.09,0
62,62.67,63.08,0
64,62.69,63.09,0
64,62.72,63.10,0
63,62.73,63.10,0
64,62.75,63.11,0
63,62.76,63.11,0
62,62.74,63.09,0
64,62.77,63.10,0
62,62.75,63.09,0
62,62.74,63.08,0
62,62.72,63.07,0
63,62.73,63.07,0
64,62.75,63.08,0
62,62.74,63.07,0
63,62.74,63.07,0
61,62.71,63.05,0
62,62.69,63.04,0
63,62.70,63.04,0
64,62.73,63.05,0
64,62.75,63.06,0
62,62.74,63.04,0
63,62.74,63.04,0
64,62.77,63.05,0
64,62.79,63.06,0
62,62.78,63.05,0
64,62.80,63.06,0
63,62.80,63.06,0
64,62.83,63.07,0
62,62.81,63.06,0
64,62.84,63.07,0
64,62.86,63.08,0
64,62.88,63.09,0
62,62.86,63.08,0
63,62.87,63.08,0
63,62.87,63.08,0
63,62.87,63.08,0
64,62.89,63.08,0
65,62.94,63.10,0
63,62.94,63.10,0
65,62.98,63.12,0
66,63.04,63.15,0
65,63.08,63.17,0
63,63.08,63.17,0
64,63.10,63.18,0
64,63.11,63.18,0
65,63.15,63.20,0
65,63.19,63.22,0
64,63.20,63.23,0
64,63.22,63.24,0
68,63.32,63.28,0
71,63.47,63.36,0
67,63.54,63.40,0
64,63.55,63.40,0
66,63.60,63.43,0
68,63.69,63.47,0
68,63.77,63.52,0
68,63.86,63.56,0
65,63.88,63.58,0
69,63.98,63.63,0
68,64.06,63.68,0
66,64.10,63.70,0
68,64.18,63.74,0
68,64.26,63.79,0
67,64.31,63.82,0
66,64.34,63.84,0
67,64.40,63.87,0
67,64.45,63.90,0
68,64.52,63.94,0
70,64.63,64.00,0
69,64.72,64.05,0
69,64.80,64.10,0
66,64.83,64.12,0
70,64.93,64.18,0
69,65.01,64.23,0
69,65.09,64.28,0
69,65.17,64.32,0
68,65.23,64.36,0
68,65.28,64.40,0
67,65.32,64.42,0
68,65.37,64.46,0
68,65.42,64.49,0
75,65.61,64.60,0
72,65.74,64.67,0
70,65.83,64.73,0
67,65.85,64.75,0
69,65.91,64.79,0
72,66.04,64.86,0
76,66.23,64.98,0
74,66.39,65.07,0
74,66.54,65.16,0
72,66.65,65.22,0
70,66.72,65.27,0
72,66.82,65.34,0
74,66.97,65.43,0
74,67.11,65.51,0
74,67.25,65.60,0
74,67.38,65.68,0
72,67.47,65.74,0
74,67.60,65.83,0
74,67.73,65.91,0
74,67.86,65.99,0
73,67.96,66.06,0
74,68.08,66.14,0
76,68.24,66.24,0
80,68.47,66.37,0
73,68.57,66.44,0
76,68.71,66.54,0
77,68.88,66.64,0
74,68.98,66.71,0
76,69.12,66.81,0
78,69.30,66.92,0
74,69.39,66.99,0
78,69.57,67.10,0
82,69.81,67.25,0
84,70.10,67.42,0
79,70.28,67.53,0
76,70.39,67.62,0
77,70.52,67.71,0
78,70.67,67.81,0
77,70.80,67.91,0
77,70.92,68.00,0
79,71.08,68.11,0
80,71.26,68.23,0
78,71.40,68.32,0
81,71.59,68.45,0
82,71.80,68.59,0
79,71.94,68.69,0
84,72.18,68.84,0
82,72.38,68.97,0
79,72.51,69.07,0
81,72.68,69.19,0
82,72.87,69.32,0
81,73.03,69.44,0
82,73.21,69.56,0
81,73.37,69.68,0
80,73.50,69.78,0
79,73.61,69.87,0
79,73.72,69.97,0
80,73.84,70.07,0
80,73.97,70.16,0
84,74.17,70.30,0
82,74.32,70.42,0
80,74.44,70.52,0
82,74.59,70.63,0
79,74.68,70.71,0
81,74.80,70.82,0
80,74.91,70.91,0
80,75.01,71.00,0
82,75.15,71.11,0
84,75.32,71.24,0
81,75.44,71.34,0
82,75.57,71.44,0
82,75.70,71.55,0
81,75.80,71.64,0
81,75.91,71.74,0
82,76.03,71.84,0
82,76.15,71.94,0
82,76.27,72.04,0
84,76.42,72.16,0
84,76.57,72.28,0
84,76.72,72.40,0
81,76.81,72.48,0
81,76.89,72.57,0
84,77.03,72.68,0
86,77.21,72.82,0
86,77.39,72.95,0
86,77.56,73.08,0
82,77.65,73.17,0
82,77.74,73.26,0
85,77.88,73.37,0
83,77.98,73.47,0
84,78.10,73.57,0
84,78.22,73.68,0
83,78.32,73.77,0
86,78.47,73.89,0
85,78.60,74.01,0
82,78.67,74.09,0
86,78.82,74.20,0
83,78.90,74.29,0
83,78.98,74.38,0
84,79.08,74.48,0
84,79.18,74.57,0
86,79.32,74.69,0
90,79.53,74.84,0
86,79.66,74.95,0
91,79.89,75.11,0
89,80.07,75.25,0
86,80.19,75.36,0
88,80.34,75.48,0
87,80.48,75.60,0
90,80.67,75.74,0
92,80.89,75.91,0
90,81.08,76.05,0
87,81.19,76.16,0
90,81.37,76.29,0
88,81.50,76.41,0
90,81.67,76.55,0
89,81.82,76.67,0
86,81.90,76.76,0
86,81.99,76.86,0
86,82.07,76.95,0
87,82.16,77.05,0
86,82.24,77.14,0
86,82.32,77.23,0
87,82.41,77.32,0
89,82.54,77.44,0
86,82.61,77.53,0
93,82.82,77.68,0
92,83.00,77.83,0
88,83.10,77.93,0
88,83.20,78.03,0
93,83.40,78.18,0
89,83.51,78.29,0
90,83.64,78.40,0
90,83.77,78.52,0
90,83.89,78.63,0
91,84.03,78.76,0
90,84.15,78.87,0
92,84.31,79.00,0
92,84.46,79.13,0
89,84.55,79.23,0
93,84.72,79.37,0
98,84.99,79.55,0
96,85.21,79.72,0
92,85.34,79.84,0
91,85.46,79.95,0
90,85.55,80.05,0
94,85.72,80.19,0
98,85.96,80.37,0
102,86.28,80.59,0
100,86.56,80.78,0
95,86.73,80.92,0
95,86.89,81.06,0
97,87.09,81.22,0
96,87.27,81.37,0
94,87.41,81.50,0
101,87.68,81.69,0
96,87.85,81.84,0
95,87.99,81.97,0
97,88.17,82.12,0
94,88.29,82.24,0
95,88.42,82.36,0
97,88.59,82.51,0
96,88.74,82.65,0
103,89.02,82.85,0
99,89.22,83.01,0
98,89.40,83.16,0
99,89.59,83.32,0
95,89.70,83.44,0
99,89.89,83.59,0
100,90.09,83.76,0
98,90.25,83.90,0
99,90.42,84.05,0
97,90.55,84.18,0
98,90.70,84.32,0
98,90.85,84.45,0
98,90.99,84.59,0
97,91.11,84.71,0
102,91.33,84.89,0
103,91.56,85.07,0
100,91.73,85.22,0
102,91.94,85.38,0
105,92.20,85.58,0
106,92.47,85.78,0
101,92.64,85.94,0
103,92.85,86.11,0
105,93.09,86.30,0
103,93.29,86.46,0
101,93.45,86.61,0
101,93.60,86.75,0
104,93.81,86.92,0
103,93.99,87.09,0
102,94.15,87.23,0
105,94.37,87.41,0
109,94.66,87.63,0
111,94.99,87.86,0
104,95.17,88.02,0
108,95.42,88.22,0
108,95.67,88.42,0
108,95.92,88.62,0
105,96.10,88.78,0
105,96.28,88.94,0
111,96.58,89.16,0
112,96.88,89.39,0
107,97.09,89.57,0
105,97.24,89.72,0
106,97.42,89.88,0
107,97.61,90.06,0
108,97.82,90.24,0
108,98.02,90.41,0
107,98.20,90.58,0
105,98.34,90.72,0
108,98.53,90.90,0
106,98.68,91.05,0
106,98.83,91.20,0
105,98.95,91.33,0
105,99.07,91.47,0
105,99.19,91.61,0
108,99.37,91.77,0
107,99.52,91.92,0
108,99.69,92.08,0
107,99.83,92.23,0
111,100.06,92.42,0
110,100.26,92.60,0
106,100.37,92.73,0
106,100.48,92.86,0
106,100.59,92.99,0
108,100.74,93.14,0
108,100.89,93.29,0
107,101.01,93.43,0
106,101.11,93.56,0
105,101.19,93.67,0
106,101.28,93.79,0
108,101.42,93.94,0
107,101.53,94.07,0
106,101.62,94.19,0
105,101.69,94.29,0
106,101.77,94.41,0
105,101.84,94.52,0
106,101.92,94.63,0
104,101.96,94.73,0
105,102.02,94.83,0
106,102.10,94.94,0
104,102.14,95.03,0
104,102.18,95.12,0
105,102.23,95.22,0
108,102.35,95.35,0
104,102.38,95.43,0
106,102.46,95.54,0
106,102.53,95.64,0
105,102.58,95.74,0
106,102.64,95.84,0
107,102.73,95.95,0
106,102.80,96.05,0
105,102.84,96.14,0
104,102.86,96.22,0
104,102.89,96.30,0
104,102.91,96.37,0
106,102.97,96.47,0
104,102.99,96.55,0
104,103.01,96.62,0
105,103.05,96.70,0
104,103.07,96.78,0
104,103.09,96.85,0
102,103.07,96.90,0
104,103.09,96.97,0
103,103.08,97.03,0
104,103.10,97.10,0
103,103.10,97.16,0
104,103.12,97.23,0
103,103.12,97.29,0
102,103.09,97.33,0
102,103.07,97.38,0
102,103.05,97.43,0
102,103.03,97.47,0
103,103.03,97.53,0
102,103.01,97.57,0
101,102.97,97.61,0
102,102.95,97.65,0
102,102.93,97.69,0
102,102.91,97.74,0
102,102.89,97.78,0
102,102.87,97.82,0
108,102.98,97.92,0
102,102.96,97.96,0
102,102.94,98.01,0
101,102.90,98.04,0
100,102.84,98.05,0
101,102.81,98.08,0
102,102.79,98.12,0
100,102.73,98.14,0
100,102.68,98.16,0
102,102.66,98.20,0
101,102.63,98.23,0
100,102.58,98.24,0
98,102.49,98.24,0
99,102.42,98.25,0
99,102.35,98.26,0
99,102.28,98.26,0
98,102.20,98.26,0
98,102.11,98.26,0
97,102.01,98.25,0
101,101.99,98.27,0
98,101.91,98.27,0
98,101.83,98.27,0
97,101.74,98.26,0
99,101.68,98.26,0
98,101.61,98.26,0
100,101.58,98.28,0
97,101.48,98.27,0
97,101.39,98.25,0
97,101.31,98.24,0
95,101.18,98.21,0
97,101.10,98.20,0
100,101.07,98.21,0
97,100.99,98.20,0
97,100.91,98.19,0
97,100.83,98.18,0
98,100.78,98.18,0
97,100.70,98.16,0
97,100.63,98.15,0
97,100.56,98.14,0
95,100.44,98.11,0
96,100.36,98.09,0
97,100.29,98.08,0
95,100.18,98.05,0
97,100.12,98.04,0
96,100.04,98.02,0
97,99.98,98.01,0
96,99.90,97.99,0
95,99.80,97.96,0
95,99.70,97.93,0
95,99.61,97.90,0
94,99.50,97.86,0
96,99.43,97.84,0
94,99.32,97.80,0
94,99.21,97.76,0
94,99.11,97.73,0
93,98.99,97.68,0
94,98.89,97.64,0
94,98.79,97.61,0
92,98.65,97.55,0
94,98.56,97.51,0
94,98.47,97.48,0
94,98.38,97.44,0
92,98.25,97.39,0
92,98.13,97.34,0
93,98.02,97.29,0
93,97.92,97.25,0
92,97.80,97.20,0
92,97.69,97.14,0
93,97.59,97.10,0
92,97.48,97.05,0
94,97.41,97.02,0
92,97.30,96.97,0
92,97.20,96.92,0
92,97.09,96.87,0
92,96.99,96.82,0
92,96.89,96.78,0
91,96.78,96.72,0
91,96.66,96.66,0
92,96.57,96.61,0
92,96.48,96.57,0
90,96.35,96.50,0
90,96.22,96.44,0
89,96.07,96.36,0
90,95.95,96.30,0
90,95.83,96.24,0
91,95.74,96.18,0
89,95.60,96.11,0
89,95.47,96.04,0
89,95.34,95.97,0
89,95.21,95.90,0
89,95.09,95.83,0
89,94.97,95.76,0
89,94.85,95.70,0
91,94.77,95.65,0
91,94.70,95.60,0
89,94.58,95.54,0
89,94.47,95.47,0
88,94.34,95.40,0
88,94.21,95.32,0
88,94.09,95.25,0
88,93.97,95.18,0
88,93.85,95.11,0
88,93.73,95.03,0
87,93.60,94.95,0
88,93.49,94.88,0
88,93.38,94.82,0
88,93.27,94.75,0
87,93.14,94.67,0
86,93.00,94.58,0
90,92.94,94.54,0
87,92.82,94.46,0
86,92.68,94.38,0
86,92.55,94.29,0
86,92.42,94.21,0
86,92.29,94.13,0
86,92.17,94.05,0
86,92.04,93.97,0
86,91.92,93.89,0
86,91.80,93.81,0
86,91.69,93.73,0
86,91.57,93.65,0
85,91.44,93.57,0
85,91.31,93.48,0
84,91.17,93.39,0
84,91.02,93.29,0
83,90.86,93.19,0
84,90.73,93.10,0
84,90.59,93.01,0
84,90.46,92.92,0
84,90.33,92.83,0
84,90.20,92.74,0
84,90.08,92.65,0
84,89.96,92.56,0
84,89.84,92.48,0
83,89.70,92.38,0
82,89.55,92.28,0
84,89.44,92.20,0
83,89.31,92.11,0
83,89.18,92.01,0
82,89.04,91.91,0
84,88.94,91.84,0
83,88.82,91.75,0
84,88.72,91.67,0
82,88.59,91.57,0
82,88.46,91.48,0
82,88.33,91.38,0
82,88.20,91.29,0
82,88.08,91.20,0
84,88.00,91.12,0
82,87.88,91.03,0
82,87.76,90.94,0
82,87.64,90.85,0
82,87.53,90.76,0
83,87.44,90.69,0
82,87.33,90.60,0
82,87.22,90.51,0
82,87.12,90.43,0
82,87.02,90.34,0
82,86.92,90.26,0
82,86.82,90.18,0
80,86.68,90.08,0
81,86.57,89.99,0
80,86.44,89.89,0
81,86.33,89.80,0
81,86.22,89.71,0
80,86.10,89.61,0
80,85.98,89.52,0
79,85.84,89.41,0
79,85.70,89.31,0
80,85.59,89.21,0
84,85.55,89.16,0
80,85.44,89.07,0
81,85.35,88.99,0
82,85.29,88.92,0
80,85.18,88.83,0
80,85.08,88.74,0
80,84.98,88.65,0
81,84.90,88.58,0
82,84.84,88.51,0
79,84.72,88.42,0
80,84.63,88.33,0
80,84.53,88.25,0
79,84.42,88.16,0
79,84.32,88.07,0
78,84.19,87.96,0
80,84.11,87.88,0
79,84.00,87.80,0
78,83.88,87.70,0
79,83.79,87.61,0
81,83.73,87.54,0
79,83.63,87.46,0
78,83.52,87.36,0
78,83.41,87.27,0
79,83.32,87.19,0
78,83.22,87.10,0
78,83.11,87.01,0
78,83.01,86.92,0
77,82.89,86.82,0
78,82.79,86.73,0
78,82.70,86.64,0
80,82.64,86.57,0
80,82.59,86.51,0
80,82.54,86.44,0
77,82.43,86.35,0
78,82.34,86.27,0
81,82.31,86.21,0
78,82.23,86.13,0
78,82.14,86.05,0
78,82.06,85.97,0
77,81.96,85.88,0
78,81.88,85.80,0
78,81.80,85.72,0
76,81.68,85.63,0
77,81.59,85.54,0
77,81.50,85.45,0
76,81.39,85.36,0
76,81.28,85.27,0
77,81.20,85.18,0
76,81.09,85.09,0
76,80.99,85.00,0
76,80.89,84.91,0
77,80.81,84.83,0
76,80.72,84.74,0
76,80.62,84.66,0
79,80.59,84.60,0
76,80.50,84.51,0
75,80.39,84.42,0
74,80.26,84.31,0
76,80.17,84.23,0
76,80.09,84.15,0
76,80.01,84.07,0
74,79.89,83.97,0
75,79.79,83.88,0
76,79.72,83.80,0
74,79.60,83.70,0
74,79.49,83.60,0
76,79.42,83.53,0
76,79.35,83.45,0
76,79.28,83.38,0
74,79.18,83.28,0
72,79.03,83.17,0
75,78.95,83.09,0
75,78.87,83.01,0
74,78.78,82.92,0
74,78.68,82.83,0
74,78.59,82.74,0
74,78.50,82.65,0
76,78.45,82.59,0
76,78.40,82.52,0
75,78.33,82.45,0
74,78.24,82.36,0
75,78.18,82.29,0
74,78.09,82.20,0
74,78.01,82.12,0
74,77.93,82.04,0
74,77.85,81.96,0
74,77.78,81.88,0
74,77.70,81.80,0
74,77.63,81.72,0
73,77.53,81.64,0
73,77.44,81.55,0
74,77.38,81.47,0
74,77.31,81.40,0
72,77.20,81.31,0
73,77.12,81.22,0
74,77.06,81.15,0
74,76.99,81.08,0
73,76.91,81.00,0
73,76.84,80.92,0
72,76.74,80.83,0
74,76.68,80.76,0
74,76.63,80.69,0
73,76.56,80.62,0
72,76.47,80.53,0
76,76.46,80.49,0
72,76.37,80.40,0
72,76.28,80.32,0
71,76.18,80.22,0
72,76.09,80.14,0
72,76.01,80.06,0
72,75.93,79.98,0
74,75.89,79.92,0
73,75.83,79.85,0
72,75.76,79.77,0
72,75.68,79.69,0
74,75.65,79.64,0
72,75.58,79.56,0
71,75.48,79.47,0
72,75.41,79.40,0
71,75.33,79.32,0
72,75.26,79.24,0
71,75.17,79.16,0
71,75.09,79.08,0
72,75.03,79.01,0
70,74.93,78.92,0
70,74.83,78.83,0
70,74.73,78.74,0
72,74.68,78.67,0
70,74.58,78.59,0
70,74.49,78.50,0
70,74.40,78.42,0
71,74.34,78.34,0
70,74.25,78.26,0
70,74.16,78.18,0
70,74.08,78.09,0
69,73.98,78.00,0
69,73.88,77.91,0
70,73.80,77.83,0
68,73.69,77.74,0
69,73.59,77.65,0
69,73.50,77.56,0
68,73.39,77.47,0
68,73.28,77.37,0
71,73.24,77.31,0
68,73.13,77.21,0
68,73.03,77.12,0
68,72.93,77.03,0
68,72.83,76.94,0
70,72.77,76.87,0
68,72.68,76.78,0
68,72.58,76.69,0
69,72.51,76.62,0
68,72.42,76.53,0
68,72.33,76.45,0
68,72.25,76.36,0
68,72.16,76.28,0
68,72.08,76.20,0
68,72.00,76.11,0
68,71.92,76.03,0
68,71.84,75.95,0
67,71.74,75.86,0
68,71.67,75.78,0
68,71.59,75.71,0
67,71.50,75.62,0
66,71.39,75.52,0
66,71.28,75.43,0
70,71.26,75.37,0
66,71.15,75.28,0
67,71.07,75.20,0
70,71.05,75.14,0
68,70.99,75.07,0
67,70.91,74.99,0
68,70.85,74.92,0
66,70.75,74.83,0
66,70.66,74.75,0
67,70.58,74.67,0
67,70.51,74.59,0
66,70.42,74.51,0
66,70.33,74.42,0
67,70.27,74.35,0
66,70.18,74.26,0
66,70.10,74.18,0
67,70.04,74.11,0
66,69.96,74.03,0
65,69.86,73.94,0
65,69.76,73.85,0
68,69.72,73.79,0
66,69.65,73.71,0
66,69.58,73.63,0
65,69.49,73.55,0
66,69.42,73.47,0
66,69.35,73.40,0
68,69.32,73.34,0
65,69.23,73.26,0
65,69.15,73.18,0
65,69.07,73.10,0
64,68.97,73.00,0
64,68.87,72.91,0
65,68.79,72.84,0
65,68.71,72.76,0
64,68.62,72.67,0
64,68.53,72.58,0
65,68.46,72.51,0
64,68.37,72.42,0
64,68.28,72.34,0
64,68.19,72.25,0
64,68.11,72.17,0
64,68.03,72.09,0
66,67.99,72.03,0
64,67.91,71.95,0
64,67.83,71.87,0
64,67.75,71.79,0
65,67.70,71.72,0
64,67.62,71.65,0
64,67.55,71.57,0
63,67.46,71.48,0
64,67.39,71.41,0
64,67.32,71.33,0
64,67.26,71.26,0
63,67.17,71.18,0
66,67.15,71.13,0
62,67.05,71.04,0
63,66.96,70.96,0
62,66.86,70.87,0
64,66.81,70.80,0
64,66.75,70.73,0
62,66.66,70.64,0
63,66.58,70.57,0
63,66.51,70.49,0
62,66.42,70.40,0
62,66.33,70.32,0
63,66.27,70.25,0
64,66.22,70.18,0
62,66.14,70.10,0
62,66.05,70.02,0
63,65.99,69.95,0
62,65.91,69.87,0
62,65.83,69.79,0
62,65.76,69.72,0
63,65.70,69.65,0
62,65.63,69.57,0
62,65.56,69.50,0
62,65.49,69.42,0
61,65.40,69.34,0
61,65.31,69.25,0
62,65.24,69.18,0
62,65.18,69.11,0
61,65.09,69.03,0
61,65.01,68.95,0
62,64.95,68.88,0
60,64.85,68.79,0
62,64.79,68.72,0
62,64.74,68.65,0
62,64.68,68.59,0
60,64.59,68.50,0
62,64.54,68.44,0
60,64.45,68.35,0
60,64.36,68.27,0
60,64.27,68.19,0
60,64.19,68.10,0
60,64.10,68.02,0
60,64.02,67.94,0
60,63.94,67.86,0
61,63.88,67.80,0
60,63.80,67.72,0
58,63.69,67.62,0
61,63.63,67.55,0
60,63.56,67.48,0
60,63.49,67.40,0
61,63.44,67.34,0
60,63.37,67.27,0
60,63.30,67.19,0
60,63.24,67.12,0
59,63.15,67.04,0
60,63.09,66.97,0
59,63.01,66.89,0
60,62.95,66.82,0
60,62.89,66.75,0
60,62.83,66.69,0
59,62.75,66.61,0
58,62.66,66.52,0
58,62.57,66.44,0
58,62.48,66.35,0
59,62.41,66.28,0
61,62.38,66.23,0
60,62.33,66.16,0
59,62.26,66.09,0
60,62.22,66.03,0
62,62.21,65.99,0
60,62.17,65.93,0
58,62.09,65.85,0
59,62.02,65.78,0
55,61.88,65.68,0
58,61.81,65.60,0
60,61.77,65.54,0
58,61.69,65.47,0
62,61.70,65.43,0
58,61.63,65.36,0
59,61.57,65.30,0
60,61.54,65.24,0
58,61.47,65.17,0
58,61.40,65.10,0
58,61.33,65.03,0
58,61.27,64.96,0
60,61.24,64.91,0
60,61.22,64.86,0
59,61.17,64.80,0
58,61.11,64.73,0
56,61.01,64.64,0
58,60.95,64.58,0
58,60.89,64.51,0
60,60.87,64.47,0
60,60.85,64.42,0
58,60.80,64.36,0
58,60.74,64.29,0
58,60.69,64.23,0
57,60.61,64.16,0
57,60.54,64.09,0
58,60.49,64.03,0
58,60.44,63.97,0
57,60.37,63.90,0
57,60.30,63.83,0
57,60.24,63.76,0
56,60.15,63.68,0
57,60.09,63.62,0
57,60.03,63.55,0
57,59.97,63.48,0
58,59.93,63.43,0
60,59.93,63.39,0
58,59.89,63.34,0
58,59.85,63.29,0
57,59.80,63.22,0
58,59.76,63.17,0
57,59.70,63.11,0
58,59.67,63.06,0
60,59.68,63.03,0
57,59.62,62.97,0
57,59.57,62.91,0
56,59.50,62.84,0
57,59.45,62.78,0
57,59.40,62.72,0
56,59.33,62.66,0
56,59.27,62.59,0
56,59.20,62.52,0
57,59.16,62.47,0
56,59.09,62.40,0
57,59.05,62.35,0
56,58.99,62.29,0
56,58.93,62.22,0
56,58.87,62.16,0
56,58.81,62.10,0
57,58.78,62.05,0
57,58.74,62.00,0
56,58.69,61.94,0
57,58.65,61.89,0
57,58.62,61.84,0
56,58.57,61.78,0
56,58.52,61.72,0
56,58.47,61.67,0
60,58.50,61.65,0
56,58.45,61.59,0
54,58.36,61.52,0
56,58.31,61.46,0
56,58.27,61.41,0
56,58.22,61.35,0
56,58.18,61.30,0
55,58.11,61.24,0
56,58.07,61.18,0
57,58.05,61.14,0
56,58.01,61.09,0
56,57.97,61.04,0
56,57.93,60.99,0
55,57.87,60.93,0
54,57.79,60.86,0
55,57.74,60.80,0
55,57.68,60.74,0
54,57.61,60.68,0
54,57.54,60.61,0
55,57.48,60.55,0
55,57.44,60.50,0
54,57.37,60.43,0
56,57.34,60.39,0
56,57.31,60.35,0
56,57.29,60.30,0
56,57.26,60.26,0
56,57.24,60.22,0
55,57.19,60.16,0
58,57.21,60.14,0
56,57.18,60.10,0
56,57.16,60.06,0
56,57.14,60.02,0
55,57.09,59.97,0
58,57.11,59.95,0
56,57.09,59.91,0
55,57.05,59.86,0
56,57.03,59.82,0
56,57.01,59.78,0
54,56.95,59.73,0
55,56.91,59.68,0
58,56.93,59.66,0
56,56.91,59.63,0
56,56.89,59.59,0
54,56.83,59.53,0
56,56.82,59.50,0
56,56.80,59.46,0
56,56.78,59.43,0
55,56.75,59.38,0
56,56.73,59.35,0
56,56.72,59.32,0
56,56.71,59.28,0
56,56.69,59.25,0
56,56.68,59.22,0
56,56.66,59.19,0
56,56.65,59.15,0
55,56.62,59.11,0
54,56.57,59.06,0
56,56.55,59.03,0
56,56.54,59.00,0
55,56.51,58.96,0
55,56.48,58.92,0
56,56.47,58.89,0
56,56.46,58.86,0
55,56.43,58.82,0
56,56.42,58.80,0
56,56.42,58.77,0
55,56.39,58.73,0
56,56.38,58.70,0
56,56.37,58.68,0
55,56.34,58.64,0
54,56.30,58.59,0
55,56.27,58.56,0
55,56.25,58.52,0
54,56.20,58.48,0
54,56.16,58.43,0
55,56.13,58.40,0
53,56.07,58.34,0
54,56.03,58.30,0
54,55.99,58.26,0
54,55.95,58.21,0
55,55.93,58.18,0
55,55.91,58.15,0
54,55.87,58.11,0
55,55.86,58.08,0
55,55.84,58.05,0
55,55.82,58.02,0
56,55.83,58.00,0
56,55.83,57.98,0
55,55.81,57.95,0
55,55.80,57.92,0
56,55.80,57.90,0
56,55.80,57.88,0
57,55.83,57.87,0
54,55.79,57.83,0
54,55.76,57.79,0
56,55.76,57.78,0
56,55.77,57.76,0
55,55.75,57.73,0
54,55.72,57.69,0
57,55.74,57.69,0
56,55.75,57.67,0
55,55.73,57.64,0
56,55.74,57.63,0
56,55.74,57.61,0
55,55.73,57.58,0
54,55.69,57.55,0
54,55.66,57.51,0
55,55.65,57.49,0
55,55.63,57.46,0
56,55.64,57.45,0
56,55.65,57.43,0
56,55.65,57.42,0
56,55.66,57.40,0
54,55.63,57.37,0
56,55.64,57.36,0
58,55.68,57.36,0
59,55.75,57.38,0
58,55.79,57.39,0
56,55.80,57.37,0
60,55.88,57.40,0
59,55.94,57.41,0
62,56.07,57.46,0
62,56.18,57.51,0
61,56.28,57.54,0
59,56.34,57.55,0
58,56.37,57.56,0
59,56.42,57.57,0
60,56.49,57.60,0
59,56.54,57.61,0
60,56.61,57.64,0
60,56.68,57.66,0
59,56.73,57.67,0
59,56.77,57.69,0
60,56.84,57.71,0
60,56.90,57.73,0
58,56.92,57.73,0
58,56.94,57.74,0
58,56.96,57.74,0
60,57.02,57.76,0
60,57.08,57.79,0
58,57.10,57.79,0
58,57.12,57.79,0
60,57.18,57.81,0
60,57.23,57.83,0
58,57.25,57.84,0
57,57.25,57.83,0
58,57.26,57.83,0
58,57.27,57.83,0
58,57.29,57.83,0
60,57.34,57.85,0
60,57.40,57.88,0
58,57.41,57.88,0
59,57.44,57.89,0
58,57.45,57.89,0
58,57.46,57.89,0
60,57.51,57.91,0
58,57.52,57.91,0
57,57.51,57.90,0
58,57.52,57.90,0
58,57.53,57.90,0
58,57.54,57.91,0
57,57.53,57.90,0
57,57.52,57.89,0
60,57.57,57.91,0
58,57.58,57.91,0
59,57.61,57.92,0
58,57.61,57.92,0
58,57.62,57.92,0
60,57.67,57.94,0
60,57.72,57.96,0
58,57.72,57.96,0
56,57.69,57.94,0
59,57.71,57.95,0
57,57.70,57.95,0
58,57.71,57.95,0
59,57.73,57.96,0
60,57.78,57.98,0
58,57.78,57.98,0
58,57.79,57.98,0
58,57.79,57.98,0
60,57.83,58.00,0
59,57.86,58.01,0
58,57.86,58.01,0
58,57.86,58.01,0
57,57.85,58.00,0
58,57.85,58.00,0
58,57.85,58.00,0
56,57.81,57.98,0
57,57.80,57.97,0
58,57.80,57.97,0
57,57.79,57.96,0
56,57.75,57.94,0
57,57.74,57.93,0
57,57.72,57.92,0
58,57.73,57.92,0
58,57.73,57.92,0
58,57.74,57.92,0
58,57.74,57.92,0
56,57.71,57.90,0
58,57.71,57.91,0
58,57.72,57.91,0
59,57.75,57.92,0
58,57.75,57.92,0
58,57.76,57.92,0
58,57.76,57.92,0
58,57.76,57.92,0
58,57.77,57.92,0
58,57.77,57.92,0
59,57.80,57.93,0
59,57.82,57.94,0
58,57.83,57.94,0
58,57.83,57.94,0
58,57.83,57.94,0
58,57.84,57.95,0
58,57.84,57.95,0
58,57.84,57.95,0
58,57.85,57.95,0
58,57.85,57.95,0
58,57.85,57.95,0
58,57.86,57.95,0
58,57.86,57.95,0
58,57.86,57.95,0
58,57.86,57.95,0
58,57.87,57.95,0
58,57.87,57.95,0
58,57.87,57.95,0
58,57.87,57.95,0
58,57.88,57.95,0
58,57.88,57.95,0
58,57.88,57.95,0
58,57.88,57.95,0
58,57.89,57.95,0
58,57.89,57.96,0
58,57.89,57.96,0
57,57.87,57.95,0
58,57.88,57.95,0
58,57.88,57.95,0
58,57.88,57.95,0
57,57.86,57.94,0
57,57.85,57.93,0
58,57.85,57.93,0
60,57.89,57.95,0
60,57.93,57.97,0
57,57.92,57.96,0
56,57.88,57.94,0
58,57.88,57.94,0
56,57.84,57.92,0
57,57.83,57.91,0
60,57.87,57.93,0
60,57.91,57.95,0
57,57.89,57.95,0
57,57.88,57.94,0
58,57.88,57.94,0
57,57.86,57.93,0
56,57.82,57.91,0
58,57.83,57.91,0
62,57.91,57.95,0
58,57.91,57.95,0
57,57.89,57.94,0
58,57.90,57.94,0
59,57.92,57.95,0
58,57.92,57.95,0
58,57.92,57.95,0
58,57.92,57.95,0
58,57.92,57.95,0
57,57.91,57.94,0
57,57.89,57.93,0
58,57.89,57.94,0
57,57.87,57.93,0
58,57.87,57.93,0
59,57.90,57.94,0
58,57.90,57.94,0
59,57.92,57.95,0
58,57.92,57.95,0
57,57.90,57.94,0
58,57.91,57.94,0
60,57.95,57.96,0
58,57.95,57.96,0
58,57.95,57.96,0
59,57.97,57.97,0
57,57.95,57.96,0
58,57.95,57.96,0
58,57.95,57.96,0
58,57.95,57.96,0
57,57.94,57.95,0
57,57.92,57.94,0
55,57.86,57.91,0
58,57.86,57.92,0
57,57.84,57.91,0
56,57.81,57.89,0
58,57.81,57.89,0
56,57.77,57.87,0
57,57.76,57.86,0
58,57.76,57.86,0
56,57.73,57.84,0
58,57.73,57.85,0
58,57.74,57.85,0
57,57.72,57.84,0
57,57.71,57.83,0
58,57.72,57.83,0
59,57.74,57.84,0
59,57.77,57.86,0
58,57.77,57.86,0
58,57.78,57.86,0
60,57.82,57.88,0
61,57.88,57.91,0
58,57.89,57.91,0
60,57.93,57.93,0
59,57.95,57.94,0
62,58.03,57.98,0
58,58.03,57.98,0
58,58.03,57.98,0
59,58.05,57.99,0
59,58.07,58.00,0
58,58.07,58.00,0
60,58.11,58.02,0
58,58.10,58.02,0
58,58.10,58.02,0
58,58.10,58.02,0
58,58.10,58.02,0
58,58.10,58.02,0
59,58.11,58.03,0
60,58.15,58.05,0
58,58.15,58.05,0
61,58.21,58.08,0
62,58.28,58.12,0
62,58.36,58.16,0
60,58.39,58.18,0
61,58.44,58.21,0
60,58.47,58.22,0
58,58.46,58.22,0
59,58.47,58.23,0
58,58.46,58.23,0
58,58.45,58.22,0
60,58.49,58.24,0
58,58.48,58.24,0
58,58.47,58.24,0
58,58.46,58.24,0
58,58.45,58.23,0
59,58.46,58.24,0
58,58.45,58.24,0
58,58.44,58.24,0
60,58.47,58.25,0
58,58.46,58.25,0
58,58.45,58.25,0
60,58.48,58.27,0
60,58.51,58.28,0
58,58.50,58.28,0
58,58.49,58.28,0
60,58.52,58.29,0
60,58.55,58.31,0
59,58.56,58.32,0
60,58.59,58.34,0
57,58.56,58.32,0
58,58.55,58.32,0
58,58.54,58.32,0
60,58.57,58.33,0
57,58.54,58.32,0
60,58.56,58.34,0
60,58.59,58.35,0
60,58.62,58.37,0
60,58.65,58.39,0
60,58.68,58.40,0
62,58.74,58.44,0
63,58.83,58.48,0
60,58.85,58.50,0
60,58.87,58.51,0
61,58.92,58.54,0
60,58.94,58.55,0
60,58.96,58.57,0
61,59.00,58.59,0
59,59.00,58.60,0
61,59.04,58.62,0
64,59.14,58.67,0
65,59.26,58.74,0
62,59.31,58.77,0
61,59.35,58.79,0
66,59.48,58.86,0
66,59.61,58.94,0
64,59.70,58.99,0
62,59.74,59.02,0
65,59.85,59.08,0
66,59.97,59.15,0
64,60.05,59.19,0
63,60.11,59.23,0
66,60.23,59.30,0
64,60.30,59.35,0
64,60.38,59.39,0
64,60.45,59.44,0
64,60.52,59.48,0
62,60.55,59.51,0
62,60.58,59.53,0
67,60.71,59.61,0
68,60.85,59.69,0
66,60.96,59.76,0
64,61.02,59.80,0
64,61.08,59.84,0
66,61.18,59.90,0
66,61.27,59.96,0
68,61.41,60.04,0
65,61.48,60.09,0
65,61.55,60.14,0
66,61.64,60.20,0
64,61.69,60.24,0
66,61.77,60.30,0
68,61.90,60.37,0
68,62.02,60.45,0
66,62.10,60.51,0
67,62.20,60.57,0
67,62.29,60.63,0
70,62.45,60.73,0
72,62.64,60.84,0
66,62.70,60.89,0
72,62.89,61.00,0
70,63.03,61.09,0
70,63.17,61.18,0
69,63.29,61.26,0
74,63.50,61.39,0
72,63.67,61.49,0
70,63.80,61.58,0
72,63.96,61.68,0
70,64.08,61.77,0
73,64.26,61.88,0
74,64.46,62.00,0
71,64.59,62.09,0
72,64.74,62.19,0
74,64.92,62.31,0
72,65.06,62.40,0
71,65.18,62.49,0
70,65.28,62.57,0
69,65.35,62.63,0
71,65.47,62.71,0
74,65.64,62.83,0
74,65.80,62.94,0
72,65.93,63.03,0
77,66.15,63.17,0
74,66.31,63.28,0
72,66.42,63.36,0
72,66.53,63.45,0
73,66.66,63.55,0
72,66.77,63.63,0
70,66.83,63.69,0
72,66.94,63.78,0
71,67.02,63.85,0
72,67.12,63.93,0
72,67.21,64.01,0
72,67.31,64.09,0
71,67.38,64.16,0
74,67.52,64.26,0
77,67.71,64.39,0
74,67.83,64.48,0
73,67.94,64.57,0
73,68.04,64.65,0
77,68.22,64.78,0
74,68.33,64.87,0
73,68.42,64.95,0
74,68.54,65.04,0
73,68.63,65.12,0
72,68.69,65.19,0
72,68.76,65.26,0
74,68.86,65.34,0
77,69.03,65.46,0
76,69.17,65.57,0
79,69.36,65.70,0
78,69.54,65.82,0
83,69.80,65.99,0
80,70.01,66.13,0
78,70.17,66.25,0
78,70.33,66.37,0
76,70.44,66.47,0
80,70.63,66.60,0
79,70.80,66.73,0
81,71.00,66.87,0
86,71.30,67.06,0
84,71.56,67.23,0
82,71.76,67.38,0
84,72.01,67.54,0
83,72.23,67.70,0
80,72.38,67.82,0
82,72.58,67.96,0
87,72.86,68.15,0
84,73.09,68.31,0
80,73.23,68.43,0
86,73.48,68.60,0
84,73.69,68.76,0
84,73.90,68.91,0
84,74.10,69.06,0
90,74.42,69.27,0
87,74.67,69.45,0
85,74.88,69.60,0
82,75.02,69.73,0
82,75.16,69.85,0
84,75.34,69.99,0
84,75.51,70.13,0
86,75.72,70.29,0
84,75.88,70.43,0
84,76.05,70.56,0
86,76.25,70.72,0
84,76.40,70.85,0
86,76.59,71.00,0
86,76.78,71.15,0
88,77.00,71.32,0
86,77.18,71.47,0
86,77.36,71.61,0
85,77.51,71.75,0
87,77.70,71.90,0
86,77.87,72.04,0
84,77.99,72.16,0
83,78.09,72.27,0
88,78.29,72.43,0
90,78.52,72.60,0
86,78.67,72.74,0
90,78.90,72.91,0
86,79.04,73.04,0
90,79.26,73.21,0
86,79.40,73.34,0
87,79.55,73.47,0
86,79.68,73.60,0
86,79.80,73.72,0
87,79.95,73.86,0
87,80.09,73.99,0
92,80.33,74.17,0
90,80.52,74.33,0
88,80.67,74.46,0
88,80.82,74.60,0
88,80.96,74.73,0
92,81.18,74.90,0
94,81.44,75.09,0
95,81.71,75.29,0
90,81.87,75.44,0
100,82.24,75.69,0
97,82.53,75.90,0
94,82.76,76.08,0
95,83.01,76.27,0
96,83.27,76.47,0
94,83.48,76.64,0
92,83.65,76.80,0
98,83.94,77.01,0
100,84.26,77.24,0
95,84.47,77.42,0
98,84.75,77.62,0
96,84.97,77.81,0
96,85.19,77.99,0
96,85.41,78.17,0
95,85.60,78.34,0
96,85.81,78.51,0
96,86.01,78.69,0
99,86.27,78.89,0
95,86.45,79.05,0
96,86.64,79.22,0
98,86.86,79.41,0
103,87.19,79.64,0
99,87.42,79.84,0
99,87.65,80.03,0
110,88.10,80.33,0
107,88.48,80.60,0
102,88.75,80.81,0
101,88.99,81.01,0
100,89.21,81.20,0
103,89.49,81.42,0
103,89.76,81.64,0
103,90.03,81.85,0
101,90.24,82.04,0
101,90.46,82.23,0
100,90.65,82.41,0
101,90.86,82.59,0
101,91.06,82.78,0
101,91.26,82.96,0
101,91.45,83.14,0
104,91.71,83.35,0
105,91.97,83.57,0
102,92.17,83.75,0
103,92.39,83.94,0
105,92.64,84.15,0
103,92.85,84.34,0
101,93.01,84.51,0
101,93.17,84.67,0
109,93.49,84.92,0
105,93.72,85.12,0
103,93.90,85.30,0
105,94.12,85.49,0
103,94.30,85.67,0
103,94.48,85.84,0
103,94.65,86.01,0
105,94.85,86.20,0
105,95.06,86.39,0
105,95.26,86.58,0
104,95.43,86.75,0
107,95.66,86.95,0
105,95.85,87.13,0
103,95.99,87.29,0
103,96.13,87.45,0
105,96.31,87.63,0
105,96.48,87.80,0
104,96.63,87.96,0
107,96.84,88.15,0
105,97.00,88.32,0
104,97.14,88.48,0
103,97.26,88.62,0
106,97.44,88.80,0
104,97.57,88.95,0
103,97.68,89.09,0
104,97.80,89.24,0
106,97.97,89.41,0
103,98.07,89.54,0
104,98.19,89.69,0
103,98.28,89.82,0
102,98.36,89.94,0
104,98.47,90.08,0
104,98.58,90.22,0
104,98.69,90.36,0
104,98.79,90.49,0
103,98.88,90.62,0
105,99.00,90.76,0
102,99.06,90.88,0
103,99.14,91.00,0
101,99.18,91.10,0
101,99.21,91.20,0
105,99.33,91.33,0
101,99.36,91.43,0
102,99.42,91.54,0
103,99.49,91.65,0
102,99.54,91.75,0
102,99.59,91.86,0
102,99.63,91.96,0
101,99.66,92.05,0
101,99.69,92.14,0
101,99.71,92.23,0
101,99.74,92.32,0
101,99.77,92.40,0
101,99.79,92.49,0
100,99.79,92.56,0
101,99.82,92.65,0
102,99.86,92.74,0
100,99.87,92.81,0
103,99.93,92.92,0
101,99.95,93.00,0
102,99.99,93.09,0
102,100.03,93.18,0
105,100.13,93.29,0
103,100.19,93.39,0
101,100.20,93.47,0
102,100.24,93.55,0
103,100.29,93.65,0
102,100.33,93.73,0
102,100.36,93.81,0
100,100.36,93.87,0
100,100.35,93.94,0
101,100.36,94.01,0
98,100.31,94.05,0
102,100.35,94.13,0
100,100.34,94.18,0
100,100.33,94.24,0
100,100.33,94.30,0
100,100.32,94.36,0
100,100.31,94.41,0
100,100.31,94.47,0
104,100.38,94.57,0
101,100.39,94.63,0
100,100.39,94.68,0
100,100.38,94.74,0
100,100.37,94.79,0
99,100.34,94.83,0
101,100.36,94.89,0
100,100.35,94.94,0
99,100.32,94.98,0
98,100.28,95.01,0
98,100.23,95.04,0
100,100.23,95.09,0
100,100.22,95.14,0
99,100.20,95.18,0
100,100.19,95.23,0
99,100.17,95.27,0
99,100.15,95.30,0
100,100.14,95.35,0
97,100.08,95.37,0
97,100.02,95.38,0
98,99.98,95.41,0
98,99.94,95.44,0
97,99.88,95.45,0
97,99.82,95.47,0
99,99.81,95.50,0
97,99.75,95.52,0
96,99.67,95.52,0
97,99.62,95.54,0
96,99.55,95.54,0
97,99.50,95.56,0
96,99.43,95.56,0
96,99.36,95.57,0
97,99.31,95.58,0
96,99.25,95.58,0
95,99.16,95.58,0
95,99.08,95.57,0
97,99.04,95.59,0
96,98.98,95.59,0
98,98.96,95.62,0
96,98.90,95.62,0
96,98.84,95.62,0
97,98.80,95.64,0
95,98.73,95.63,0
96,98.67,95.63,0
96,98.62,95.64,0
95,98.55,95.63,0
95,98.47,95.62,0
95,98.41,95.62,0
96,98.36,95.62,0
95,98.29,95.62,0
95,98.22,95.61,0
98,98.22,95.63,0
93,98.12,95.61,0
94,98.03,95.59,0
94,97.95,95.58,0
94,97.87,95.56,0
95,97.82,95.55,0
94,97.74,95.54,0
94,97.66,95.52,0
95,97.61,95.52,0
95,97.56,95.51,0
94,97.49,95.50,0
92,97.38,95.46,0
92,97.27,95.43,0
94,97.21,95.41,0
93,97.12,95.39,0
92,97.02,95.36,0
91,96.90,95.31,0
93,96.82,95.29,0
92,96.72,95.26,0
94,96.67,95.24,0
93,96.60,95.22,0
93,96.52,95.20,0
92,96.43,95.17,0
90,96.31,95.12,0
92,96.22,95.08,0
92,96.13,95.05,0
92,96.05,95.02,0
92,95.97,94.99,0
91,95.87,94.95,0
91,95.77,94.91,0
91,95.68,94.87,0
90,95.56,94.83,0
91,95.47,94.79,0
90,95.36,94.74,0
90,95.26,94.69,0
90,95.15,94.64,0
91,95.07,94.61,0
90,94.97,94.56,0
90,94.87,94.52,0
90,94.77,94.47,0
89,94.66,94.42,0
91,94.58,94.38,0
90,94.49,94.34,0
90,94.40,94.30,0
89,94.29,94.24,0
91,94.23,94.21,0
90,94.14,94.17,0
90,94.06,94.13,0
90,93.98,94.09,0
89,93.88,94.03,0
88,93.76,93.97,0
89,93.67,93.92,0
89,93.57,93.87,0
90,93.50,93.84,0
88,93.39,93.78,0
88,93.28,93.72,0
88,93.18,93.66,0
87,93.05,93.60,0
90,92.99,93.56,0
87,92.87,93.49,0
88,92.78,93.44,0
88,92.68,93.39,0
86,92.55,93.31,0
88,92.46,93.26,0
87,92.35,93.20,0
88,92.26,93.14,0
86,92.13,93.07,0
86,92.01,93.00,0
87,91.91,92.94,0
86,91.79,92.87,0
86,91.68,92.80,0
88,91.60,92.76,0
86,91.49,92.69,0
87,91.40,92.63,0
88,91.33,92.58,0
85,91.21,92.51,0
86,91.10,92.44,0
86,91.00,92.38,0
85,90.88,92.31,0
85,90.76,92.23,0
84,90.63,92.15,0
86,90.54,92.09,0
85,90.42,92.02,0
84,90.30,91.94,0
85,90.19,91.87,0
85,90.09,91.80,0
84,89.96,91.72,0
85,89.87,91.65,0
86,89.79,91.60,0
88,89.75,91.56,0
85,89.66,91.50,0
84,89.54,91.42,0
85,89.45,91.36,0
85,89.36,91.29,0
84,89.26,91.22,0
84,89.15,91.15,0
84,89.05,91.08,0
84,88.95,91.01,0
84,88.85,90.94,0
84,88.75,90.87,0
83,88.64,90.79,0
83,88.52,90.71,0
83,88.41,90.63,0
82,88.29,90.55,0
82,88.16,90.46,0
82,88.04,90.38,0
82,87.92,90.29,0
83,87.82,90.22,0
81,87.68,90.13,0
82,87.57,90.05,0
82,87.46,89.97,0
81,87.33,89.88,0
82,87.22,89.80,0
81,87.10,89.71,0
81,86.97,89.62,0
85,86.93,89.58,0
81,86.82,89.49,0
82,86.72,89.42,0
81,86.61,89.33,0
80,86.47,89.24,0
80,86.34,89.15,0
81,86.24,89.06,0
80,86.11,88.97,0
79,85.97,88.87,0
80,85.85,88.79,0
80,85.73,88.70,0
80,85.62,88.61,0
78,85.47,88.50,0
79,85.34,88.41,0
80,85.23,88.33,0
79,85.11,88.23,0
80,85.00,88.15,0
80,84.90,88.07,0
80,84.81,87.99,0
79,84.69,87.90,0
78,84.56,87.80,0
79,84.44,87.71,0
79,84.34,87.62,0
78,84.21,87.53,0
78,84.08,87.43,0
78,83.96,87.34,0
78,83.84,87.24,0
78,83.73,87.15,0
80,83.65,87.08,0
79,83.56,87.00,0
78,83.45,86.91,0
78,83.34,86.82,0
78,83.23,86.73,0
78,83.13,86.64,0
78,83.03,86.56,0
78,82.92,86.47,0
78,82.83,86.39,0
77,82.71,86.29,0
77,82.60,86.20,0
76,82.46,86.10,0
76,82.33,86.00,0
77,82.23,85.91,0
76,82.10,85.81,0
76,81.98,85.71,0
76,81.86,85.61,0
75,81.72,85.51,0
75,81.59,85.40,0
78,81.52,85.33,0
76,81.41,85.24,0
76,81.30,85.14,0
76,81.19,85.05,0
76,81.09,84.96,0
76,80.99,84.87,0
75,80.87,84.77,0
76,80.77,84.69,0
77,80.70,84.61,0
74,80.56,84.50,0
75,80.45,84.41,0
74,80.32,84.30,0
74,80.19,84.20,0
74,80.07,84.10,0
75,79.97,84.01,0
74,79.85,83.91,0
76,79.77,83.83,0
74,79.66,83.73,0
74,79.54,83.63,0
74,79.43,83.54,0
73,79.30,83.43,0
73,79.18,83.33,0
74,79.08,83.23,0
74,78.97,83.14,0
73,78.85,83.04,0
73,78.74,82.94,0
74,78.64,82.85,0
73,78.53,82.75,0
72,78.40,82.64,0
73,78.29,82.55,0
73,78.19,82.45,0
73,78.08,82.36,0
72,77.96,82.25,0
72,77.84,82.15,0
74,77.76,82.07,0
73,77.67,81.98,0
72,77.56,81.88,0
72,77.44,81.78,0
71,77.32,81.67,0
72,77.21,81.58,0
72,77.10,81.48,0
71,76.98,81.38,0
71,76.86,81.27,0
72,76.77,81.18,0
72,76.67,81.09,0
70,76.54,80.98,0
71,76.43,80.88,0
71,76.32,80.78,0
71,76.21,80.68,0
70,76.09,80.57,0
72,76.01,80.49,0
71,75.91,80.39,0
70,75.79,80.29,0
70,75.67,80.19,0
70,75.56,80.08,0
70,75.45,79.98,0
70,75.34,79.88,0
70,75.23,79.78,0
70,75.13,79.69,0
69,75.00,79.58,0
70,74.90,79.48,0
70,74.81,79.39,0
70,74.71,79.29,0
70,74.62,79.20,0
70,74.52,79.11,0
70,74.43,79.02,0
71,74.36,78.94,0
70,74.28,78.85,0
74,74.27,78.80,0
70,74.19,78.71,0
70,74.10,78.63,0
71,74.04,78.55,0
68,73.92,78.44,0
68,73.80,78.34,0
69,73.70,78.25,0
69,73.61,78.15,0
67,73.48,78.04,0
68,73.37,77.94,0
70,73.30,77.86,0
68,73.20,77.76,0
68,73.09,77.67,0
68,72.99,77.57,0
68,72.89,77.47,0
67,72.77,77.37,0
65,72.62,77.25,0
68,72.52,77.15,0
69,72.45,77.07,0
67,72.34,76.97,0
68,72.26,76.88,0
68,72.17,76.79,0
67,72.07,76.69,0
67,71.97,76.60,0
68,71.89,76.51,0
68,71.81,76.43,0
67,71.71,76.33,0
66,71.60,76.23,0
68,71.53,76.15,0
66,71.42,76.04,0
66,71.31,75.94,0
66,71.20,75.84,0
66,71.10,75.75,0
66,71.00,75.65,0
67,70.92,75.56,0
66,70.82,75.47,0
68,70.76,75.39,0
66,70.67,75.30,0
67,70.59,75.22,0
66,70.50,75.12,0
66,70.41,75.03,0
66,70.32,74.94,0
67,70.26,74.86,0
66,70.17,74.77,0
65,70.07,74.68,0
65,69.97,74.58,0
65,69.87,74.48,0
66,69.79,74.40,0
65,69.69,74.30,0
65,69.60,74.21,0
66,69.53,74.13,0
66,69.46,74.05,0
66,69.39,73.97,0
65,69.30,73.88,0
65,69.22,73.79,0
65,69.13,73.70,0
66,69.07,73.62,0
65,68.99,73.54,0
65,68.91,73.45,0
63,68.79,73.35,0
64,68.69,73.25,0
65,68.62,73.17,0
64,68.53,73.08,0
68,68.52,73.03,0
66,68.47,72.96,0
64,68.38,72.87,0
66,68.33,72.80,0
64,68.24,72.71,0
65,68.18,72.64,0
64,68.09,72.55,0
64,68.01,72.46,0
64,67.93,72.38,0
64,67.85,72.30,0
64,67.78,72.21,0
65,67.72,72.14,0
64,67.65,72.06,0
64,67.57,71.98,0
63,67.48,71.89,0
63,67.39,71.80,0
64,67.32,71.72,0
62,67.22,71.62,0
62,67.11,71.53,0
64,67.05,71.45,0
64,66.99,71.38,0
64,66.93,71.30,0
64,66.87,71.23,0
64,66.81,71.16,0
64,66.76,71.09,0
64,66.70,71.02,0
64,66.65,70.95,0
65,66.62,70.89,0
63,66.54,70.81,0
62,66.45,70.72,0
62,66.36,70.63,0
63,66.30,70.56,0
63,66.23,70.48,0
62,66.15,70.40,0
63,66.08,70.32,0
64,66.04,70.26,0
62,65.96,70.18,0
62,65.88,70.09,0
62,65.80,70.01,0
63,65.75,69.94,0
63,65.69,69.87,0
62,65.62,69.80,0
62,65.55,69.72,0
62,65.48,69.64,0
63,65.43,69.57,0
62,65.36,69.50,0
62,65.29,69.42,0
64,65.26,69.37,0
62,65.20,69.30,0
62,65.14,69.22,0
60,65.03,69.13,0
63,64.99,69.07,0
66,65.01,69.04,0
62,64.95,68.97,0
62,64.89,68.90,0
62,64.84,68.83,0
61,64.76,68.75,0
60,64.66,68.66,0
60,64.57,68.58,0
61,64.50,68.50,0
59,64.39,68.41,0
60,64.30,68.32,0
60,64.21,68.24,0
61,64.15,68.17,0
62,64.11,68.10,0
60,64.03,68.02,0
60,63.94,67.94,0
60,63.87,67.86,0
57,63.73,67.76,0
60,63.65,67.68,0
62,63.62,67.62,0
61,63.57,67.55,0
60,63.50,67.48,0
60,63.43,67.40,0
60,63.36,67.33,0
60,63.29,67.26,0
60,63.23,67.18,0
61,63.18,67.12,0
60,63.12,67.05,0
60,63.06,66.98,0
60,62.99,66.91,0
59,62.91,66.83,0
60,62.86,66.76,0
60,62.80,66.70,0
62,62.78,66.65,0
60,62.73,66.58,0
60,62.67,66.52,0
60,62.62,66.45,0
63,62.63,66.42,0
60,62.57,66.35,0
60,62.52,66.29,0
60,62.47,66.23,0
61,62.44,66.17,0
60,62.39,66.11,0
59,62.33,66.04,0
59,62.26,65.97,0
59,62.19,65.90,0
60,62.15,65.84,0
59,62.09,65.77,0
59,62.03,65.71,0
59,61.97,65.64,0
58,61.89,65.56,0
58,61.81,65.49,0
58,61.73,65.41,0
57,61.64,65.33,0
60,61.60,65.27,0
58,61.53,65.20,0
60,61.50,65.15,0
57,61.41,65.07,0
57,61.32,64.99,0
58,61.26,64.92,0
58,61.19,64.85,0
59,61.15,64.79,0
57,61.07,64.71,0
57,60.98,64.64,0
58,60.92,64.57,0
57,60.85,64.49,0
57,60.77,64.42,0
58,60.71,64.35,0
57,60.64,64.28,0
58,60.59,64.22,0
57,60.51,64.15,0
56,60.42,64.06,0
57,60.36,63.99,0
58,60.31,63.93,0
56,60.22,63.85,0
56,60.14,63.78,0
57,60.08,63.71,0
57,60.01,63.64,0
56,59.93,63.56,0
57,59.87,63.50,0
57,59.82,63.43,0
56,59.74,63.36,0
56,59.67,63.29,0
56,59.59,63.21,0
56,59.52,63.14,0
56,59.45,63.07,0
56,59.38,63.00,0
56,59.31,62.93,0
56,59.25,62.86,0
56,59.18,62.79,0
56,59.12,62.72,0
56,59.06,62.66,0
56,59.00,62.59,0
56,58.94,62.52,0
56,58.88,62.46,0
56,58.82,62.39,0
56,58.76,62.33,0
55,58.69,62.26,0
56,58.63,62.19,0
54,58.54,62.11,0
55,58.47,62.04,0
56,58.42,61.98,0
54,58.33,61.90,0
56,58.29,61.84,0
55,58.22,61.77,0
54,58.14,61.70,0
54,58.05,61.62,0
54,57.97,61.54,0
55,57.91,61.48,0
54,57.83,61.40,0
54,57.76,61.33,0
54,57.68,61.25,0
55,57.63,61.19,0
55,57.58,61.13,0
54,57.50,61.06,0
53,57.41,60.98,0
59,57.45,60.96,0
56,57.42,60.91,0
56,57.39,60.86,0
54,57.32,60.79,0
55,57.27,60.73,0
54,57.21,60.67,0
56,57.19,60.62,0
54,57.12,60.55,0
51,57.00,60.46,0
54,56.94,60.39,0
56,56.92,60.35,0
53,56.84,60.28,0
53,56.77,60.20,0
53,56.69,60.13,0
55,56.66,60.08,0
53,56.58,60.01,0
51,56.47,59.92,0
55,56.44,59.87,0
53,56.37,59.80,0
52,56.29,59.72,0
53,56.22,59.66,0
52,56.14,59.58,0
52,56.05,59.50,0
52,55.97,59.43,0
52,55.89,59.35,0
52,55.81,59.28,0
52,55.74,59.21,0
52,55.66,59.14,0
53,55.61,59.07,0
52,55.54,59.00,0
52,55.47,58.93,0
52,55.40,58.86,0
53,55.35,58.81,0
52,55.28,58.74,0
52,55.22,58.67,0
52,55.15,58.60,0
52,55.09,58.54,0
53,55.05,58.48,0
52,54.99,58.42,0
51,54.91,58.34,0
51,54.83,58.27,0
52,54.77,58.21,0
54,54.76,58.16,0
52,54.70,58.10,0
51,54.63,58.03,0
52,54.58,57.97,0
52,54.52,57.91,0
50,54.43,57.83,0
50,54.34,57.75,0
52,54.30,57.70,0
51,54.23,57.63,0
50,54.15,57.55,0
50,54.06,57.48,0
50,53.98,57.40,0
50,53.90,57.33,0
50,53.83,57.26,0
50,53.75,57.18,0
54,53.75,57.15,0
50,53.68,57.08,0
50,53.61,57.01,0
50,53.53,56.94,0
51,53.48,56.88,0
52,53.45,56.83,0
50,53.38,56.76,0
52,53.36,56.72,0
51,53.31,56.66,0
50,53.24,56.59,0
50,53.18,56.53,0
50,53.11,56.46,0
51,53.07,56.41,0
50,53.01,56.34,0
50,52.95,56.28,0
50,52.89,56.22,0
51,52.85,56.16,0
50,52.80,56.10,0
50,52.74,56.04,0
51,52.71,55.99,0
51,52.67,55.94,0
50,52.62,55.88,0
50,52.57,55.82,0
47,52.45,55.73,0
50,52.41,55.68,0
49,52.34,55.61,0
50,52.29,55.55,0
49,52.22,55.49,0
50,52.18,55.43,0
50,52.14,55.38,0
50,52.09,55.33,0
50,52.05,55.27,0
53,52.07,55.25,0
50,52.03,55.20,0
50,51.99,55.14,0
50,51.95,55.09,0
50,51.91,55.04,0
50,51.87,54.99,0
50,51.83,54.94,0
50,51.80,54.89,0
50,51.76,54.84,0
48,51.69,54.78,0
49,51.63,54.72,0
49,51.58,54.66,0
48,51.51,54.59,0
50,51.48,54.55,0
47,51.39,54.47,0
49,51.34,54.42,0
50,51.31,54.37,0
52,51.33,54.35,0
50,51.30,54.31,0
50,51.28,54.26,0
50,51.25,54.22,0
50,51.22,54.18,0
50,51.20,54.14,0
51,51.20,54.11,0
50,51.17,54.06,0
49,51.13,54.01,0
52,51.15,53.99,0
49,51.10,53.94,0
48,51.04,53.88,0
48,50.98,53.83,0
49,50.94,53.78,0
48,50.88,53.72,0
49,50.84,53.67,0
49,50.81,53.63,0
48,50.75,53.57,0
49,50.72,53.52,0
48,50.66,53.47,0
48,50.61,53.41,0
49,50.58,53.37,0
48,50.53,53.32,0
48,50.47,53.26,0
48,50.43,53.21,0
48,50.38,53.16,0
48,50.33,53.11,0
48,50.28,53.05,0
48,50.24,53.00,0
48,50.19,52.95,0
49,50.17,52.91,0
49,50.15,52.88,0
48,50.10,52.83,0
48,50.06,52.78,0
48,50.02,52.73,0
47,49.96,52.67,0
47,49.90,52.62,0
48,49.86,52.57,0
48,49.82,52.52,0
48,49.79,52.48,0
48,49.75,52.43,0
47,49.70,52.38,0
46,49.62,52.32,0
49,49.61,52.28,0
47,49.56,52.23,0
47,49.51,52.18,0
46,49.44,52.12,0
48,49.41,52.08,0
48,49.38,52.03,0
47,49.33,51.98,0
47,49.29,51.93,0
47,49.24,51.89,0
47,49.20,51.84,0
46,49.13,51.78,0
46,49.07,51.72,0
48,49.05,51.68,0
47,49.01,51.64,0
46,48.95,51.58,0
47,48.91,51.53,0
47,48.87,51.49,0
47,48.83,51.44,0
48,48.82,51.41,0
48,48.80,51.38,0
48,48.78,51.34,0
46,48.73,51.29,0
46,48.67,51.24,0
47,48.64,51.19,0
48,48.63,51.16,0
46,48.57,51.11,0
46,48.52,51.06,0
48,48.51,51.03,0
48,48.50,51.00,0
48,48.49,50.97,0
46,48.44,50.92,0
47,48.41,50.88,0
47,48.38,50.84,0
48,48.38,50.81,0
46,48.33,50.76,0
47,48.30,50.73,0
48,48.30,50.70,0
46,48.25,50.65,0
46,48.21,50.60,0
47,48.18,50.57,0
46,48.14,50.52,0
46,48.10,50.48,0
47,48.07,50.44,0
47,48.05,50.41,0
46,48.01,50.36,0
46,47.97,50.32,0
46,47.93,50.28,0
46,47.89,50.23,0
46,47.85,50.19,0
46,47.82,50.15,0
46,47.78,50.11,0
47,47.77,50.08,0
47,47.75,50.05,0
46,47.72,50.01,0
47,47.70,49.98,0
47,47.69,49.95,0
46,47.65,49.91,0
47,47.64,49.88,0
47,47.63,49.85,0
49,47.65,49.84,0
47,47.64,49.81,0
47,47.63,49.78,0
47,47.62,49.76,0
48,47.62,49.74,0
48,47.63,49.72,0
47,47.62,49.69,0
47,47.61,49.67,0
47,47.59,49.64,0
50,47.64,49.64,0
48,47.65,49.63,0
47,47.64,49.60,0
48,47.64,49.59,0
46,47.61,49.55,0
48,47.62,49.53,0
49,47.65,49.53,0
51,47.71,49.54,0
50,47.76,49.55,0
48,47.76,49.53,0
49,47.79,49.53,0
51,47.85,49.54,0
50,47.90,49.55,0
54,48.02,49.59,0
51,48.08,49.61,0
51,48.14,49.62,0
49,48.15,49.61,0
49,48.17,49.61,0
49,48.19,49.60,0
49,48.20,49.60,0
49,48.22,49.59,0
51,48.27,49.60,0
50,48.31,49.61,0
53,48.40,49.64,0
50,48.44,49.64,0
49,48.45,49.64,0
50,48.48,49.64,0
50,48.51,49.65,0
49,48.52,49.64,0
49,48.53,49.63,0
50,48.56,49.64,0
52,48.63,49.66,0
51,48.67,49.67,0
50,48.70,49.68,0
50,48.73,49.68,0
53,48.81,49.71,0
50,48.83,49.72,0
52,48.90,49.74,0
50,48.92,49.74,0
49,48.92,49.73,0
52,48.98,49.76,0
53,49.06,49.79,0
54,49.16,49.83,0
53,49.24,49.86,0
52,49.29,49.88,0
54,49.39,49.93,0
54,49.48,49.97,0
54,49.57,50.01,0
56,49.70,50.07,0
54,49.79,50.11,0
52,49.83,50.12,0
52,49.87,50.14,0
52,49.92,50.16,0
52,49.96,50.18,0
51,49.98,50.19,0
52,50.02,50.21,0
53,50.08,50.23,0
52,50.12,50.25,0
50,50.11,50.25,0
52,50.15,50.27,0
52,50.19,50.28,0
50,50.19,50.28,0
51,50.20,50.29,0
52,50.24,50.31,0
54,50.31,50.34,0
52,50.35,50.36,0
50,50.34,50.36,0
52,50.37,50.37,0
51,50.39,50.38,0
52,50.42,50.39,0
52,50.45,50.41,0
53,50.50,50.44,0
53,50.55,50.46,0
52,50.58,50.48,0
54,50.65,50.51,0
53,50.70,50.54,0
51,50.70,50.54,0
52,50.73,50.56,0
53,50.77,50.58,0
53,50.82,50.61,0
52,50.84,50.62,0
52,50.86,50.63,0
52,50.89,50.65,0
51,50.89,50.65,0
52,50.91,50.66,0
50,50.89,50.66,0
52,50.92,50.67,0
51,50.92,50.67,0
52,50.94,50.69,0
51,50.94,50.69,0
52,50.96,50.70,0
52,50.98,50.72,0
50,50.96,50.71,0
52,50.98,50.72,0
52,51.00,50.74,0
51,51.00,50.74,0
50,50.98,50.73,0
52,51.00,50.74,0
50,50.98,50.74,0
50,50.96,50.73,0
53,51.00,50.75,0
49,50.96,50.73,0
49,50.92,50.72,0
51,50.93,50.72,0
50,50.91,50.71,0
52,50.93,50.72,0
50,50.91,50.72,0
50,50.89,50.71,0
51,50.90,50.71,0
50,50.88,50.71,0
50,50.86,50.70,0
50,50.84,50.69,0
50,50.83,50.69,0
50,50.81,50.68,0
50,50.79,50.67,0
50,50.78,50.66,0
49,50.74,50.65,0
52,50.77,50.66,0
50,50.75,50.66,0
51,50.76,50.66,0
50,50.74,50.65,0
52,50.77,50.67,0
52,50.79,50.68,0
54,50.86,50.71,0
51,50.86,50.71,0
52,50.88,50.73,0
51,50.88,50.73,0
52,50.91,50.74,0
55,50.99,50.79,0
52,51.01,50.80,0
51,51.01,50.80,0
53,51.05,50.82,0
55,51.13,50.86,0
51,51.12,50.86,0
50,51.10,50.86,0
52,51.12,50.87,0
54,51.18,50.90,0
54,51.23,50.93,0
54,51.29,50.96,0
54,51.34,50.99,0
53,51.38,51.01,0
54,51.43,51.04,0
54,51.48,51.07,0
53,51.51,51.09,0
51,51.50,51.09,0
54,51.55,51.12,0
54,51.60,51.15,0
54,51.65,51.18,0
53,51.67,51.19,0
51,51.66,51.19,0
52,51.67,51.20,0
52,51.67,51.21,0
53,51.70,51.23,0
54,51.75,51.25,0
54,51.79,51.28,0
52,51.80,51.29,0
52,51.80,51.30,0
52,51.80,51.30,0
54,51.85,51.33,0
54,51.89,51.36,0
51,51.87,51.35,0
52,51.88,51.36,0
54,51.92,51.39,0
55,51.98,51.42,0
54,52.02,51.45,0
54,52.06,51.47,0
52,52.06,51.48,0
54,52.10,51.50,0
52,52.10,51.51,0
54,52.13,51.53,0
54,52.17,51.56,0
54,52.21,51.58,0
53,52.22,51.60,0
52,52.22,51.60,0
52,52.21,51.60,0
54,52.25,51.63,0
54,52.29,51.65,0
54,52.32,51.68,0
52,52.31,51.68,0
53,52.33,51.69,0
54,52.36,51.72,0
52,52.35,51.72,0
54,52.39,51.74,0
54,52.42,51.76,0
52,52.41,51.77,0
52,52.40,51.77,0
52,52.39,51.77,0
53,52.41,51.78,0
52,52.40,51.79,0
54,52.43,51.81,0
53,52.44,51.82,0
53,52.45,51.83,0
52,52.44,51.83,0
53,52.45,51.84,0
52,52.45,51.85,0
54,52.48,51.87,0
54,52.51,51.89,0
53,52.52,51.90,0
54,52.55,51.92,0
54,52.58,51.94,0
54,52.60,51.96,0
53,52.61,51.97,0
53,52.62,51.98,0
54,52.65,52.00,0
54,52.67,52.02,0
53,52.68,52.03,0
52,52.67,52.03,0
54,52.69,52.05,0
54,52.72,52.07,0
53,52.73,52.08,0
52,52.71,52.08,0
53,52.72,52.09,0
52,52.70,52.09,0
54,52.73,52.11,0
54,52.75,52.13,0
54,52.78,52.15,0
53,52.78,52.15,0
54,52.81,52.17,0
54,52.83,52.19,0
54,52.85,52.21,0
55,52.90,52.24,0
53,52.90,52.24,0
52,52.88,52.24,0
53,52.88,52.25,0
53,52.89,52.26,0
52,52.87,52.25,0
52,52.85,52.25,0
52,52.83,52.25,0
53,52.84,52.26,0
52,52.82,52.25,0
52,52.80,52.25,0
55,52.85,52.28,0
53,52.85,52.29,0
52,52.83,52.28,0
51,52.80,52.27,0
53,52.80,52.28,0
53,52.81,52.29,0
52,52.79,52.28,0
52,52.77,52.28,0
53,52.78,52.29,0
52,52.76,52.28,0
52,52.75,52.28,0
52,52.73,52.28,0
55,52.78,52.31,0
52,52.76,52.30,0
51,52.73,52.29,0
52,52.71,52.29,0
52,52.70,52.28,0
52,52.68,52.28,0
52,52.67,52.28,0
50,52.62,52.26,0
53,52.63,52.26,0
53,52.63,52.27,0
52,52.62,52.27,0
53,52.63,52.27,0
52,52.61,52.27,0
53,52.62,52.28,0
52,52.61,52.28,0
50,52.56,52.25,0
49,52.49,52.22,0
52,52.48,52.22,0
51,52.45,52.21,0
55,52.50,52.23,0
52,52.49,52.23,0
51,52.46,52.22,0
52,52.45,52.22,0
54,52.48,52.24,0
53,52.49,52.24,0
51,52.46,52.23,0
52,52.45,52.23,0
52,52.44,52.23,0
52,52.43,52.22,0
51,52.41,52.21,0
52,52.40,52.21,0
53,52.41,52.22,0
53,52.42,52.23,0
51,52.39,52.21,0
52,52.38,52.21,0
52,52.38,52.21,0
51,52.35,52.20,0
54,52.38,52.21,0
54,52.42,52.23,0
52,52.41,52.23,0
54,52.44,52.25,0
53,52.45,52.26,0
50,52.40,52.23,0
52,52.39,52.23,0
51,52.36,52.22,0
50,52.32,52.20,0
52,52.31,52.19,0
52,52.31,52.19,0
56,52.38,52.23,0
55,52.43,52.26,0
54,52.46,52.28,0
51,52.43,52.26,0
54,52.46,52.28,0
54,52.50,52.30,0
53,52.51,52.30,0
54,52.54,52.32,0
53,52.54,52.33,0
54,52.57,52.34,0
52,52.56,52.34,0
52,52.55,52.34,0
54,52.58,52.35,0
55,52.63,52.38,0
54,52.66,52.40,0
54,52.68,52.41,0
55,52.73,52.44,0
56,52.79,52.47,0
54,52.82,52.49,0
54,52.84,52.50,0
54,52.87,52.52,0
57,52.95,52.56,0
54,52.97,52.58,0
54,52.99,52.59,0
53,52.99,52.60,0
53,52.99,52.60,0
54,53.01,52.62,0
54,53.03,52.63,0
55,53.07,52.65,0
56,53.13,52.69,0
56,53.19,52.72,0
56,53.24,52.75,0
54,53.26,52.76,0
57,53.33,52.81,0
57,53.41,52.85,0
58,53.50,52.90,0
57,53.57,52.94,0
57,53.64,52.98,0
57,53.70,53.02,0
57,53.77,53.06,0
58,53.85,53.11,0
59,53.96,53.17,0
56,54.00,53.20,0
56,54.04,53.23,0
57,54.10,53.26,0
58,54.17,53.31,0
56,54.21,53.34,0
56,54.25,53.37,0
56,54.28,53.39,0
57,54.34,53.43,0
56,54.37,53.45,0
58,54.44,53.50,0
57,54.49,53.53,0
56,54.52,53.56,0
56,54.55,53.58,0
58,54.62,53.63,0
58,54.69,53.67,0
59,54.78,53.72,0
59,54.86,53.78,0
60,54.96,53.84,0
58,55.02,53.88,0
59,55.10,53.93,0
59,55.18,53.98,0
60,55.28,54.04,0
60,55.37,54.10,0
58,55.42,54.14,0
58,55.48,54.18,0
60,55.57,54.24,0
58,55.62,54.28,0
58,55.66,54.31,0
58,55.71,54.35,0
60,55.80,54.41,0
58,55.84,54.44,0
58,55.88,54.48,0
58,55.93,54.51,0
62,56.05,54.59,0
60,56.13,54.64,0
59,56.18,54.69,0
62,56.30,54.76,0
60,56.37,54.81,0
60,56.45,54.86,0
62,56.56,54.93,0
62,56.67,55.01,0
56,56.65,55.02,0
62,56.76,55.08,0
60,56.82,55.13,0
59,56.87,55.17,0
60,56.93,55.22,0
59,56.97,55.26,0
60,57.03,55.31,0
58,57.05,55.33,0
60,57.11,55.38,0
62,57.21,55.45,0
62,57.30,55.51,0
66,57.48,55.62,0
62,57.57,55.68,0
62,57.66,55.74,0
62,57.74,55.81,0
66,57.91,55.91,0
62,57.99,55.97,0
64,58.11,56.05,0
64,58.23,56.13,0
62,58.30,56.19,0
64,58.42,56.27,0
68,58.61,56.38,0
66,58.76,56.48,0
64,58.86,56.55,0
62,58.93,56.61,0
65,59.05,56.69,0
62,59.11,56.75,0
64,59.20,56.82,0
65,59.32,56.90,0
66,59.45,56.99,0
67,59.60,57.09,0
65,59.71,57.17,0
64,59.80,57.24,0
64,59.88,57.31,0
68,60.04,57.41,0
64,60.12,57.48,0
65,60.22,57.55,0
65,60.32,57.63,0
64,60.39,57.69,0
70,60.58,57.82,0
68,60.73,57.92,0
68,60.88,58.02,0
73,61.12,58.17,0
72,61.34,58.31,0
71,61.53,58.43,0
71,61.72,58.56,0
69,61.86,58.66,0
70,62.03,58.78,0
72,62.23,58.91,0
75,62.48,59.07,0
79,62.81,59.27,0
74,63.04,59.42,0
73,63.24,59.55,0
74,63.45,59.70,0
74,63.66,59.84,0
70,63.79,59.94,0
72,63.95,60.06,0
71,64.09,60.17,0
72,64.25,60.29,0
76,64.49,60.45,0
72,64.64,60.56,0
73,64.80,60.69,0
74,64.99,60.82,0
76,65.21,60.97,0
75,65.40,61.11,0
73,65.56,61.23,0
75,65.75,61.37,0
72,65.87,61.47,0
78,66.11,61.64,0
79,66.37,61.81,0
82,66.68,62.02,0
82,66.99,62.22,0
76,67.17,62.35,0
84,67.51,62.57,0
86,67.88,62.80,0
82,68.16,63.00,0
78,68.36,63.15,0
80,68.59,63.31,0
86,68.94,63.54,0
88,69.32,63.79,0
88,69.69,64.03,0
82,69.94,64.21,0
91,70.36,64.48,0
86,70.67,64.69,0
82,70.90,64.86,0
84,71.16,65.06,0
85,71.44,65.25,0
86,71.73,65.46,0
84,71.97,65.65,0
83,72.19,65.82,0
82,72.39,65.98,0
90,72.74,66.22,0
100,73.29,66.56,0
96,73.74,66.86,0
89,74.05,67.08,0
89,74.35,67.30,0
92,74.70,67.54,0
92,75.05,67.79,0
95,75.44,68.06,0
98,75.90,68.36,0
98,76.34,68.66,0
94,76.69,68.91,0
93,77.02,69.15,0
95,77.38,69.41,0
100,77.83,69.71,0
96,78.19,69.98,0
95,78.53,70.23,0
103,79.02,70.56,0
101,79.46,70.86,0
98,79.83,71.13,0
98,80.19,71.40,0
97,80.53,71.66,0
102,80.96,71.96,0
102,81.38,72.26,0
97,81.69,72.51,0
98,82.02,72.76,0
103,82.44,73.06,0
105,82.89,73.38,0
100,83.23,73.65,0
99,83.55,73.90,0
103,83.93,74.19,0
111,84.48,74.56,0
105,84.89,74.87,0
103,85.25,75.15,0
104,85.62,75.44,0
104,85.99,75.72,0
101,86.29,75.97,0
105,86.67,76.27,0
109,87.11,76.59,0
102,87.41,76.85,0
107,87.80,77.15,0
116,88.37,77.54,0
121,89.02,77.97,0
111,89.46,78.30,0
121,90.09,78.73,0
121,90.71,79.15,0
121,91.31,79.57,0
117,91.83,79.94,0
113,92.25,80.27,0
120,92.81,80.67,0
122,93.39,81.09,0
123,93.98,81.50,0
116,94.42,81.85,0
116,94.85,82.19,0
114,95.24,82.51,0
123,95.79,82.91,0
119,96.26,83.27,0
116,96.65,83.60,0
115,97.02,83.92,0
119,97.46,84.27,0
121,97.93,84.63,0
123,98.43,85.02,0
121,98.88,85.38,0
119,99.28,85.71,0
121,99.72,86.07,0
118,100.08,86.39,0
121,100.50,86.73,0
123,100.95,87.09,0
124,101.41,87.46,0
130,101.98,87.89,0
133,102.60,88.34,0
133,103.21,88.79,0
123,103.61,89.13,0
138,104.30,89.62,0
142,105.05,90.14,0
133,105.61,90.57,0
128,106.06,90.94,0
133,106.60,91.37,0
134,107.14,91.79,0
134,107.68,92.21,0
128,108.09,92.57,0
131,108.55,92.96,0
136,109.09,93.39,0
138,109.67,93.83,0
132,110.12,94.21,0
132,110.56,94.59,0
144,111.23,95.09,0
145,111.90,95.58,0
143,112.52,96.06,0
139,113.05,96.49,0
136,113.51,96.88,0
138,114.00,97.29,0
140,114.52,97.72,0
140,115.03,98.14,0
141,115.55,98.57,0
143,116.10,99.02,0
146,116.70,99.49,0
146,117.28,99.95,0
141,117.76,100.36,0
150,118.40,100.86,0
140,118.83,101.25,0
139,119.24,101.63,0
142,119.69,102.03,0
144,120.18,102.45,0
156,120.90,102.99,0
156,121.60,103.52,0
145,122.07,103.93,0
153,122.68,104.42,0
157,123.37,104.95,0
155,124.00,105.45,0
151,124.54,105.90,0
151,125.07,106.36,0
154,125.65,106.83,0
154,126.22,107.30,0
156,126.81,107.79,0
149,127.26,108.20,0
158,127.87,108.70,0
162,128.55,109.23,0
157,129.12,109.71,0
152,129.58,110.13,0
155,130.09,110.58,0
156,130.61,111.04,0
156,131.12,111.49,0
153,131.55,111.90,0
153,131.98,112.31,0
153,132.40,112.72,0
152,132.79,113.11,0
153,133.20,113.51,0
152,133.57,113.90,0
154,133.98,114.30,0
156,134.42,114.71,0
156,134.86,115.13,0
153,135.22,115.51,0
154,135.59,115.89,0
154,135.96,116.27,0
154,136.32,116.65,0
153,136.66,117.01,0
151,136.94,117.35,0
151,137.22,117.69,0
152,137.52,118.03,0
159,137.95,118.44,0
153,138.25,118.79,0
153,138.55,119.13,0
153,138.83,119.47,0
154,139.14,119.81,0
153,139.41,120.15,0
152,139.67,120.46,0
151,139.89,120.77,0
152,140.14,121.08,0
152,140.37,121.39,0
151,140.59,121.69,0
153,140.83,122.00,0
153,141.08,122.31,0
151,141.28,122.60,0
151,141.47,122.88,0
153,141.70,123.18,0
155,141.97,123.50,0
153,142.19,123.80,0
152,142.38,124.08,0
152,142.58,124.36,0
155,142.82,124.66,0
155,143.07,124.97,0
157,143.35,125.29,0
155,143.58,125.58,0
154,143.79,125.87,0
155,144.01,126.16,0
156,144.25,126.46,0
154,144.45,126.73,0
153,144.62,127.00,0
153,144.79,127.26,0
153,144.95,127.51,0
152,145.09,127.76,0
153,145.25,128.01,0
152,145.38,128.25,0
153,145.54,128.50,0
153,145.69,128.74,0
153,145.83,128.99,0
151,145.94,129.21,0
151,146.04,129.42,0
153,146.18,129.66,0
157,146.39,129.93,0
155,146.56,130.18,0
151,146.65,130.39,0
151,146.74,130.60,0
152,146.85,130.81,0
153,146.97,131.03,0
151,147.05,131.23,0
149,147.09,131.41,0
151,147.17,131.61,0
151,147.24,131.80,0
150,147.30,131.98,0
149,147.33,132.15,0
150,147.39,132.33,0
149,147.42,132.50,0
148,147.43,132.65,0
149,147.46,132.82,0
148,147.47,132.97,0
147,147.46,133.11,0
149,147.49,133.27,0
148,147.50,133.42,0
147,147.49,133.55,0
147,147.48,133.69,0
147,147.47,133.82,0
147,147.46,133.95,0
147,147.45,134.08,0
146,147.43,134.20,0
146,147.40,134.32,0
146,147.37,134.43,0
146,147.34,134.55,0
145,147.30,134.66,0
145,147.25,134.76,0
144,147.18,134.85,0
145,147.14,134.95,0
145,147.10,135.05,0
146,147.08,135.16,0
144,147.01,135.25,0
143,146.93,135.33,0
144,146.88,135.41,0
143,146.80,135.49,0
143,146.72,135.57,0
143,146.65,135.64,0
144,146.59,135.72,0
144,146.54,135.81,0
143,146.47,135.88,0
147,146.48,135.99,0
148,146.51,136.11,0
143,146.44,136.18,0
145,146.41,136.27,0
141,146.31,136.31,0
142,146.22,136.37,0
142,146.13,136.43,0
143,146.07,136.49,0
142,145.99,136.55,0
141,145.89,136.59,0
141,145.79,136.64,0
141,145.70,136.68,0
141,145.60,136.72,0
141,145.51,136.77,0
141,145.42,136.81,0
140,145.31,136.84,0
141,145.23,136.88,0
139,145.10,136.90,0
141,145.02,136.94,0
140,144.92,136.97,0
140,144.82,137.01,0
137,144.66,137.01,0
139,144.55,137.03,0
138,144.42,137.03,0
135,144.23,137.01,0
137,144.09,137.01,0
139,143.99,137.03,0
137,143.85,137.03,0
136,143.69,137.02,0
137,143.56,137.02,0
137,143.42,137.02,0
137,143.30,137.02,0
137,143.17,137.02,0
137,143.05,137.02,0
137,142.93,137.02,0
137,142.81,137.02,0
135,142.65,137.00,0
135,142.50,136.98,0
135,142.35,136.96,0
137,142.24,136.96,0
132,142.04,136.91,0
134,141.88,136.88,0
135,141.74,136.86,0
134,141.58,136.84,0
135,141.45,136.82,0
134,141.30,136.79,0
134,141.16,136.76,0
133,140.99,136.72,0
133,140.83,136.69,0
133,140.68,136.65,0
135,140.56,136.63,0
133,140.41,136.60,0
133,140.26,136.56,0
132,140.10,136.52,0
132,139.94,136.47,0
132,139.78,136.43,0
133,139.64,136.39,0
132,139.49,136.35,0
131,139.32,136.29,0
131,139.15,136.24,0
131,138.99,136.19,0
131,138.83,136.14,0
130,138.65,136.08,0
130,138.48,136.01,0
129,138.29,135.94,0
129,138.11,135.88,0
129,137.92,135.81,0
131,137.78,135.76,0
129,137.61,135.69,0
129,137.44,135.62,0
128,137.25,135.55,0
128,137.06,135.47,0
128,136.88,135.40,0
128,136.70,135.32,0
127,136.51,135.24,0
127,136.32,135.16,0
127,136.13,135.08,0
127,135.95,135.00,0
127,135.77,134.92,0
126,135.58,134.83,0
125,135.36,134.73,0
125,135.16,134.63,0
125,134.95,134.53,0
125,134.76,134.44,0
125,134.56,134.34,0
125,134.37,134.25,1
125,134.18,134.16,1
125,134.00,134.07,2
126,133.84,133.99,2
124,133.64,133.89,2
124,133.45,133.79,2
124,133.26,133.69,2
123,133.05,133.58,2
124,132.87,133.49,2
123,132.68,133.38,2
123,132.48,133.28,2
123,132.29,133.18,2
121,132.07,133.05,2
122,131.87,132.94,2
121,131.65,132.82,2
122,131.46,132.72,2
121,131.25,132.60,2
122,131.06,132.49,2
123,130.90,132.40,2
122,130.72,132.29,2
122,130.55,132.19,2
121,130.36,132.08,2
121,130.17,131.97,2
121,129.99,131.86,2
120,129.79,131.74,2
121,129.61,131.63,2
119,129.40,131.51,2
119,129.19,131.38,2
119,128.99,131.26,2
119,128.79,131.13,2
119,128.59,131.01,2
119,128.40,130.89,2
120,128.23,130.78,2
120,128.07,130.68,2
119,127.89,130.56,2
119,127.71,130.44,2
119,127.53,130.33,2
119,127.36,130.22,2
119,127.20,130.10,2
118,127.01,129.98,2
118,126.83,129.86,2
117,126.63,129.73,2
117,126.44,129.61,2
117,126.25,129.48,2
117,126.07,129.36,2
117,125.89,129.23,2
117,125.71,129.11,2
116,125.51,128.98,2
116,125.32,128.85,2
115,125.12,128.71,2
117,124.96,128.59,2
115,124.76,128.46,2
115,124.56,128.32,2
115,124.37,128.19,2
116,124.20,128.07,2
116,124.04,127.95,2
116,123.88,127.83,2
114,123.68,127.69,2
114,123.49,127.55,2
114,123.30,127.42,2
114,123.11,127.28,2
113,122.91,127.14,2
113,122.71,127.00,2
114,122.54,126.87,2
113,122.35,126.73,2
112,122.14,126.58,2
113,121.96,126.45,2
114,121.80,126.32,2
112,121.60,126.18,2
113,121.43,126.05,2
113,121.26,125.92,2
113,121.10,125.79,2
114,120.95,125.67,2
113,120.79,125.54,2
113,120.64,125.42,2
113,120.49,125.29,2
113,120.34,125.17,2
113,120.19,125.05,2
113,120.05,124.93,2
113,119.90,124.81,2
112,119.75,124.68,2
113,119.61,124.56,2
113,119.48,124.45,2
112,119.33,124.32,2
113,119.20,124.21,2
111,119.04,124.08,2
111,118.88,123.95,2
113,118.76,123.84,2
114,118.67,123.74,2
111,118.51,123.61,2
113,118.40,123.51,2
113,118.29,123.40,2
113,118.19,123.30,2
113,118.08,123.19,2
112,117.96,123.08,2
112,117.84,122.97,2
111,117.71,122.85,2
111,117.57,122.73,2
111,117.44,122.62,2
113,117.35,122.52,2
113,117.27,122.43,2
113,117.18,122.33,2
111,117.06,122.22,2
111,116.94,122.11,2
109,116.78,121.97,2
112,116.68,121.87,2
109,116.53,121.75,2
110,116.40,121.63,2
109,116.25,121.50,2
111,116.14,121.40,2
111,116.04,121.29,2
111,115.94,121.19,2
110,115.82,121.08,2
109,115.68,120.96,2
111,115.59,120.86,2
111,115.50,120.76,2
111,115.41,120.66,2
109,115.28,120.55,2
111,115.20,120.45,2
109,115.07,120.34,2
109,114.95,120.22,2
110,114.85,120.12,2
113,114.81,120.05,2
112,114.76,119.97,2
112,114.70,119.89,2
111,114.63,119.80,2
108,114.50,119.68,2
110,114.41,119.58,2
110,114.32,119.49,2
110,114.23,119.39,2
109,114.13,119.29,2
109,114.02,119.19,2
109,113.92,119.09,2
109,113.83,118.98,2
109,113.73,118.88,2
109,113.63,118.79,2
108,113.52,118.68,2
110,113.45,118.59,2
109,113.36,118.50,2
109,113.28,118.40,2
108,113.17,118.30,2
109,113.09,118.20,2
109,113.00,118.11,2
108,112.90,118.01,2
108,112.81,117.91,2
108,112.71,117.81,2
108,112.62,117.71,2
107,112.50,117.61,2
108,112.41,117.51,2
107,112.31,117.40,2
107,112.20,117.30,2
107,112.10,117.20,2
107,111.99,117.10,2
107,111.89,116.99,2
107,111.80,116.89,2
106,111.68,116.79,2
105,111.55,116.67,2
107,111.46,116.57,2
105,111.33,116.46,2
106,111.22,116.35,2
106,111.12,116.25,2
105,110.99,116.13,2
105,110.87,116.02,2
105,110.76,115.91,2
105,110.64,115.80,2
106,110.55,115.71,2
105,110.44,115.60,2
104,110.31,115.48,2
105,110.20,115.38,2
105,110.10,115.27,2
105,110.00,115.17,2
104,109.88,115.06,2
104,109.76,114.95,2
103,109.62,114.83,2
104,109.51,114.72,2
103,109.38,114.60,2
104,109.27,114.50,2
104,109.17,114.39,2
103,109.04,114.28,2
103,108.92,114.17,2
103,108.80,114.05,2
102,108.67,113.93,2
102,108.54,113.81,2
101,108.38,113.69,2
101,108.24,113.56,2
101,108.09,113.43,2
103,107.99,113.33,2
101,107.85,113.21,2
101,107.71,113.08,2
101,107.58,112.96,2
103,107.49,112.86,2
103,107.40,112.77,2
101,107.27,112.65,2
101,107.14,112.53,2
101,107.02,112.42,2
101,106.90,112.30,2
101,106.78,112.19,2
101,106.67,112.08,2
99,106.51,111.95,2
100,106.38,111.83,2
100,106.26,111.71,2
99,106.11,111.58,2
99,105.97,111.46,2
101,105.87,111.35,2
100,105.75,111.24,2
99,105.62,111.12,2
98,105.46,110.98,2
99,105.34,110.86,2
99,105.21,110.75,2
98,105.06,110.62,2
99,104.94,110.50,2
98,104.80,110.38,2
99,104.69,110.26,2
98,104.55,110.14,2
95,104.36,109.99,2
98,104.24,109.87,2
97,104.09,109.74,2
97,103.95,109.61,2
98,103.83,109.50,2
97,103.69,109.37,2
96,103.54,109.24,2
96,103.39,109.11,2
98,103.28,108.99,2
98,103.18,108.88,2
97,103.05,108.77,2
96,102.91,108.64,2
97,102.79,108.52,2
96,102.66,108.40,2
96,102.52,108.27,2
96,102.39,108.15,2
95,102.25,108.02,2
95,102.10,107.89,2
95,101.96,107.76,2
95,101.82,107.63,2
95,101.68,107.51,2
95,101.55,107.38,2
94,101.40,107.25,2
94,101.25,107.11,2
96,101.15,107.00,2
94,101.00,106.87,2
95,100.88,106.75,2
96,100.79,106.65,2
