Teste de posicionamento 4(EMG tendao-inervacao (Vermelho A, Verde C) + Ref no cotovelo) - 19/10/2024 - teste10 - 5 contrações
long frequencia = 1000;                 //frequência de aquisição do sinal, neste caso, 1000 sinais por segundo
float fator1 = 0.02, fator2 = 0.01;
float incerteza = 0.13;
float pico_basal = 130; // Mínimo para ser considerado um pico de contração
int filtro_horizontal=200000; //intervalo de 200ms valores não pode ter mais de 1 contração

Biceps_D,mediaMovel_1,mediaMovel_2,Contracao
40,0.80,0.40,0
39,1.56,0.79,0
39,2.31,1.17,0
39,3.05,1.55,0
39,3.77,1.92,0
38,4.45,2.28,0
39,5.14,2.65,0
41,5.86,3.03,0
39,6.52,3.39,0
41,7.21,3.77,0
39,7.85,4.12,0
42,8.53,4.50,0
39,9.14,4.84,0
40,9.76,5.20,0
39,10.34,5.53,0
40,10.93,5.88,0
38,11.48,6.20,0
39,12.03,6.53,0
39,12.57,6.85,0
38,13.07,7.16,0
39,13.59,7.48,0
37,14.06,7.78,0
40,14.58,8.10,0
39,15.07,8.41,0
39,15.55,8.71,0
38,16.00,9.01,0
38,16.44,9.30,0
38,16.87,9.58,0
38,17.29,9.87,0
39,17.72,10.16,0
37,18.11,10.43,0
38,18.51,10.70,0
38,18.90,10.98,0
38,19.28,11.25,0
39,19.67,11.52,0
38,20.04,11.79,0
37,20.38,12.04,0
38,20.73,12.30,0
38,21.08,12.56,0
38,21.42,12.81,0
38,21.75,13.06,0
38,22.07,13.31,0
39,22.41,13.57,0
38,22.72,13.82,0
38,23.03,14.06,0
38,23.33,14.30,0
39,23.64,14.54,0
38,23.93,14.78,0
38,24.21,15.01,0
38,24.49,15.24,0
38,24.76,15.47,0
40,25.06,15.71,0
38,25.32,15.94,0
38,25.57,16.16,0
38,25.82,16.37,0
37,26.05,16.58,0
39,26.30,16.81,0
38,26.54,17.02,0
39,26.79,17.24,0
39,27.03,17.45,0
39,27.27,17.67,0
38,27.49,17.87,0
40,27.74,18.09,0
40,27.98,18.31,0
39,28.20,18.52,0
38,28.40,18.72,0
37,28.57,18.90,0
40,28.80,19.11,0
39,29.00,19.31,0
38,29.18,19.50,0
38,29.36,19.68,0
38,29.53,19.86,0
38,29.70,20.04,0
42,29.95,20.26,0
38,30.11,20.44,0
40,30.31,20.64,0
38,30.46,20.81,0
38,30.61,20.98,0
39,30.78,21.16,0
39,30.94,21.34,0
38,31.08,21.51,0
38,31.22,21.67,0
39,31.38,21.85,0
38,31.51,22.01,0
38,31.64,22.17,0
38,31.77,22.33,0
39,31.91,22.49,0
38,32.03,22.65,0
38,32.15,22.80,0
39,32.29,22.96,0
39,32.42,23.12,0
38,32.54,23.27,0
38,32.64,23.42,0
38,32.75,23.57,0
38,32.86,23.71,0
38,32.96,23.85,0
38,33.06,23.99,0
39,33.18,24.14,0
39,33.30,24.29,0
38,33.39,24.43,0
38,33.48,24.57,0
38,33.57,24.70,0
39,33.68,24.84,0
40,33.81,24.99,0
38,33.89,25.12,0
38,33.97,25.25,0
39,34.07,25.39,0
38,34.15,25.52,0
39,34.25,25.65,0
38,34.32,25.78,0
39,34.42,25.91,0
38,34.49,26.03,0
38,34.56,26.15,0
38,34.63,26.27,0
39,34.72,26.39,0
38,34.78,26.51,0
39,34.87,26.63,0
38,34.93,26.75,0
39,35.01,26.87,0
40,35.11,27.00,0
38,35.17,27.11,0
44,35.34,27.28,0
39,35.42,27.40,0
38,35.47,27.50,0
39,35.54,27.62,0
38,35.59,27.72,0
38,35.64,27.83,0
38,35.68,27.93,0
39,35.75,28.04,0
39,35.82,28.15,0
38,35.86,28.25,0
42,35.98,28.38,0
38,36.02,28.48,0
38,36.06,28.58,0
38,36.10,28.67,0
41,36.20,28.79,0
40,36.27,28.90,0
36,36.27,28.98,0
39,36.32,29.08,0
40,36.40,29.19,0
39,36.45,29.28,0
38,36.48,29.37,0
38,36.51,29.46,0
40,36.58,29.56,0
39,36.63,29.66,0
38,36.66,29.74,0
39,36.70,29.83,0
40,36.77,29.93,0
38,36.79,30.02,0
38,36.82,30.10,0
40,36.88,30.19,0
41,36.96,30.30,0
39,37.00,30.39,0
38,37.02,30.47,0
39,37.06,30.55,0
38,37.08,30.63,0
39,37.12,30.71,0
38,37.14,30.78,0
37,37.14,30.84,0
41,37.21,30.95,0
38,37.23,31.02,0
38,37.24,31.09,0
37,37.24,31.14,0
40,37.29,31.23,0
38,37.31,31.30,0
38,37.32,31.37,0
37,37.32,31.42,0
40,37.37,31.51,0
38,37.38,31.58,0
38,37.39,31.64,0
38,37.41,31.70,0
38,37.42,31.77,0
38,37.43,31.83,0
38,37.44,31.89,0
38,37.45,31.95,0
38,37.46,32.01,0
38,37.47,32.07,0
38,37.49,32.13,0
39,37.52,32.20,0
38,37.53,32.26,0
37,37.51,32.30,0
38,37.52,32.36,0
39,37.55,32.43,0
38,37.56,32.48,0
38,37.57,32.54,0
38,37.58,32.59,0
37,37.57,32.64,0
38,37.58,32.69,0
38,37.59,32.74,0
39,37.61,32.81,0
38,37.62,32.86,0
38,37.63,32.91,0
38,37.64,32.96,0
38,37.64,33.01,0
38,37.65,33.06,0
38,37.66,33.11,0
37,37.64,33.15,0
38,37.65,33.20,0
39,37.68,33.26,0
38,37.69,33.30,0
38,37.69,33.35,0
38,37.70,33.40,0
38,37.70,33.44,0
38,37.71,33.49,0
37,37.70,33.52,0
38,37.70,33.57,0
37,37.69,33.60,0
37,37.67,33.64,0
39,37.70,33.69,0
38,37.71,33.73,0
39,37.73,33.79,0
38,37.74,33.83,0
38,37.74,33.87,0
38,37.75,33.91,0
38,37.75,33.95,0
38,37.76,33.99,0
37,37.74,34.02,0
38,37.75,34.06,0
38,37.75,34.10,0
38,37.76,34.14,0
38,37.76,34.18,0
37,37.75,34.21,0
39,37.77,34.26,0
38,37.78,34.29,0
38,37.78,34.33,0
38,37.79,34.37,0
38,37.79,34.40,0
40,37.83,34.46,0
38,37.84,34.49,0
38,37.84,34.53,0
38,37.84,34.56,0
38,37.85,34.60,0
38,37.85,34.63,0
38,37.85,34.67,0
37,37.84,34.69,0
37,37.82,34.71,0
37,37.80,34.74,0
38,37.81,34.77,0
37,37.79,34.79,0
37,37.78,34.81,0
37,37.76,34.83,0
37,37.74,34.86,0
38,37.75,34.89,0
37,37.73,34.91,0
35,37.68,34.91,0
38,37.69,34.94,0
37,37.67,34.96,0
38,37.68,34.99,0
38,37.69,35.02,0
38,37.69,35.05,0
37,37.68,35.07,0
38,37.68,35.10,0
35,37.63,35.10,0
38,37.64,35.13,0
37,37.63,35.15,0
40,37.67,35.20,0
38,37.68,35.22,0
38,37.69,35.25,0
40,37.73,35.30,0
38,37.74,35.33,0
38,37.74,35.35,0
38,37.75,35.38,0
40,37.79,35.43,0
39,37.82,35.46,0
38,37.82,35.49,0
38,37.82,35.51,0
38,37.83,35.54,0
38,37.83,35.56,0
38,37.83,35.59,0
38,37.84,35.61,0
38,37.84,35.63,0
38,37.84,35.66,0
38,37.85,35.68,0
38,37.85,35.70,0
38,37.85,35.73,0
38,37.86,35.75,0
38,37.86,35.77,0
38,37.86,35.79,0
40,37.90,35.84,0
38,37.91,35.86,0
38,37.91,35.88,0
39,37.93,35.91,0
38,37.93,35.93,0
38,37.93,35.95,0
38,37.93,35.97,0
38,37.94,35.99,0
39,37.96,36.02,0
38,37.96,36.04,0
38,37.96,36.06,0
40,38.00,36.10,0
39,38.02,36.13,0
38,38.02,36.15,0
38,38.02,36.17,0
40,38.06,36.21,0
39,38.08,36.23,0
39,38.10,36.26,0
38,38.09,36.28,0
40,38.13,36.32,0
38,38.13,36.33,0
38,38.13,36.35,0
42,38.20,36.41,0
38,38.20,36.42,0
39,38.22,36.45,0
40,38.25,36.48,0
41,38.31,36.53,0
40,38.34,36.56,0
40,38.37,36.60,0
39,38.39,36.62,0
40,38.42,36.66,0
40,38.45,36.69,0
40,38.48,36.72,0
42,38.55,36.78,0
40,38.58,36.81,0
40,38.61,36.84,0
40,38.64,36.87,0
39,38.64,36.89,0
40,38.67,36.92,0
39,38.68,36.94,0
40,38.70,36.97,0
40,38.73,37.00,0
40,38.76,37.03,0
40,38.78,37.06,0
40,38.80,37.09,0
40,38.83,37.12,0
40,38.85,37.15,0
40,38.88,37.18,0
40,38.90,37.21,0
40,38.92,37.24,0
40,38.94,37.26,0
40,38.96,37.29,0
40,38.98,37.32,0
41,39.02,37.36,0
40,39.04,37.38,0
40,39.06,37.41,0
41,39.10,37.44,0
40,39.12,37.47,0
40,39.14,37.49,0
40,39.15,37.52,0
40,39.17,37.54,0
41,39.21,37.58,0
41,39.24,37.61,0
42,39.30,37.66,0
41,39.33,37.69,0
42,39.39,37.73,0
42,39.44,37.78,0
42,39.49,37.82,0
41,39.52,37.85,0
44,39.61,37.91,0
42,39.66,37.95,0
42,39.70,37.99,0
42,39.75,38.03,0
43,39.81,38.08,0
42,39.86,38.12,0
42,39.90,38.16,0
42,39.94,38.20,0
41,39.96,38.23,0
42,40.01,38.26,0
42,40.04,38.30,0
44,40.12,38.36,0
42,40.16,38.40,0
42,40.20,38.43,0
42,40.23,38.47,0
43,40.29,38.51,0
42,40.32,38.55,0
42,40.36,38.58,0
42,40.39,38.62,0
42,40.42,38.65,0
39,40.39,38.65,0
42,40.43,38.69,0
42,40.46,38.72,0
42,40.49,38.75,0
43,40.54,38.80,0
42,40.57,38.83,0
42,40.60,38.86,0
43,40.64,38.90,0
42,40.67,38.93,0
42,40.70,38.96,0
44,40.76,39.01,0
42,40.79,39.04,0
42,40.81,39.07,0
42,40.84,39.10,0
42,40.86,39.13,0
42,40.88,39.16,0
42,40.91,39.19,0
42,40.93,39.22,0
43,40.97,39.25,0
42,40.99,39.28,0
42,41.01,39.31,0
42,41.03,39.34,0
42,41.05,39.36,0
41,41.05,39.38,0
42,41.07,39.40,0
42,41.09,39.43,0
42,41.10,39.46,0
43,41.14,39.49,0
42,41.16,39.52,0
44,41.22,39.56,0
42,41.23,39.59,0
42,41.25,39.61,0
42,41.26,39.63,0
42,41.28,39.66,0
41,41.27,39.67,0
41,41.27,39.68,0
42,41.28,39.71,0
41,41.27,39.72,0
42,41.29,39.74,0
42,41.30,39.77,0
45,41.38,39.82,0
42,41.39,39.84,0
42,41.40,39.86,0
42,41.41,39.88,0
44,41.47,39.92,0
44,41.52,39.96,0
42,41.53,39.99,0
43,41.56,40.02,0
41,41.54,40.03,0
42,41.55,40.04,0
42,41.56,40.06,0
42,41.57,40.08,0
41,41.56,40.09,0
42,41.57,40.11,0
42,41.58,40.13,0
43,41.61,40.16,0
41,41.59,40.17,0
42,41.60,40.19,0
42,41.61,40.20,0
43,41.64,40.23,0
44,41.68,40.27,0
42,41.69,40.29,0
42,41.70,40.30,0
44,41.74,40.34,0
44,41.79,40.38,0
42,41.79,40.39,0
42,41.80,40.41,0
44,41.84,40.45,0
45,41.90,40.49,0
44,41.95,40.53,0
43,41.97,40.55,0
44,42.01,40.59,0
43,42.03,40.61,0
42,42.03,40.62,0
42,42.03,40.64,0
44,42.07,40.67,0
44,42.10,40.70,0
43,42.12,40.73,0
42,42.12,40.74,0
44,42.16,40.77,0
44,42.19,40.81,0
43,42.21,40.83,0
44,42.25,40.86,0
44,42.28,40.89,0
45,42.34,40.93,0
43,42.35,40.95,0
44,42.38,40.98,0
44,42.41,41.01,0
43,42.43,41.03,0
44,42.46,41.06,0
42,42.45,41.07,0
44,42.48,41.10,0
43,42.49,41.12,0
42,42.48,41.13,0
44,42.51,41.16,0
44,42.54,41.19,0
44,42.57,41.21,0
46,42.64,41.26,0
44,42.67,41.29,0
45,42.71,41.33,0
43,42.72,41.34,0
42,42.70,41.35,0
43,42.71,41.37,0
45,42.76,41.40,0
43,42.76,41.42,0
44,42.78,41.44,0
44,42.81,41.47,0
44,42.83,41.50,0
43,42.84,41.51,0
46,42.90,41.56,0
44,42.92,41.58,0
43,42.92,41.59,0
43,42.92,41.61,0
45,42.97,41.64,0
44,42.99,41.67,0
41,42.95,41.66,0
44,42.97,41.68,0
44,42.99,41.71,0
44,43.01,41.73,0
44,43.03,41.75,0
44,43.05,41.77,0
44,43.07,41.80,0
44,43.09,41.82,0
45,43.12,41.85,0
45,43.16,41.88,0
44,43.18,41.90,0
44,43.20,41.92,0
44,43.21,41.94,0
44,43.23,41.96,0
44,43.24,41.98,0
44,43.26,42.01,0
44,43.27,42.02,0
44,43.29,42.04,0
44,43.30,42.06,0
44,43.32,42.08,0
45,43.35,42.11,0
47,43.42,42.16,0
44,43.43,42.18,0
45,43.46,42.21,0
47,43.54,42.26,0
47,43.60,42.30,0
46,43.65,42.34,0
46,43.70,42.38,0
47,43.77,42.42,0
47,43.83,42.47,0
46,43.87,42.50,0
46,43.92,42.54,0
48,44.00,42.59,0
47,44.06,42.64,0
47,44.12,42.68,0
46,44.15,42.71,0
47,44.21,42.76,0
46,44.25,42.79,0
48,44.32,42.84,0
48,44.40,42.89,0
49,44.49,42.95,0
48,44.56,43.01,0
48,44.63,43.06,0
46,44.65,43.08,0
49,44.74,43.14,0
48,44.81,43.19,0
48,44.87,43.24,0
48,44.93,43.29,0
49,45.01,43.35,0
49,45.09,43.40,0
48,45.15,43.45,0
48,45.21,43.49,0
50,45.30,43.56,0
51,45.42,43.63,0
50,45.51,43.70,0
48,45.56,43.74,0
50,45.65,43.80,0
49,45.72,43.85,0
50,45.80,43.92,0
49,45.87,43.97,0
47,45.89,44.00,0
50,45.97,44.06,0
50,46.05,44.12,0
50,46.13,44.18,0
47,46.15,44.20,0
50,46.22,44.26,0
50,46.30,44.32,0
52,46.41,44.40,0
54,46.57,44.49,0
51,46.65,44.56,0
52,46.76,44.63,0
52,46.87,44.70,0
53,46.99,44.79,0
52,47.09,44.86,0
52,47.19,44.93,0
52,47.28,45.00,0
54,47.42,45.09,0
54,47.55,45.18,0
54,47.68,45.27,0
54,47.81,45.36,0
53,47.91,45.43,0
52,47.99,45.50,0
56,48.15,45.60,0
54,48.27,45.69,0
53,48.36,45.76,0
54,48.48,45.84,0
56,48.63,45.94,0
56,48.77,46.05,0
54,48.88,46.12,0
55,49.00,46.21,0
54,49.10,46.29,0
54,49.20,46.37,0
55,49.31,46.45,0
54,49.41,46.53,0
55,49.52,46.61,0
54,49.61,46.69,0
55,49.72,46.77,0
56,49.84,46.86,0
55,49.95,46.95,0
58,50.11,47.06,0
55,50.20,47.14,0
55,50.30,47.21,0
56,50.41,47.30,0
56,50.53,47.39,0
56,50.64,47.48,0
57,50.76,47.57,0
56,50.87,47.65,0
60,51.05,47.78,0
57,51.17,47.87,0
56,51.27,47.95,0
56,51.36,48.03,0
56,51.45,48.11,0
56,51.54,48.19,0
56,51.63,48.27,0
56,51.72,48.35,0
55,51.79,48.41,0
57,51.89,48.50,0
57,51.99,48.58,0
56,52.07,48.66,0
57,52.17,48.74,0
60,52.33,48.85,0
58,52.44,48.95,0
57,52.53,49.03,0
56,52.60,49.10,0
61,52.77,49.21,0
60,52.91,49.32,0
60,53.06,49.43,0
59,53.18,49.52,0
61,53.33,49.64,0
62,53.51,49.76,0
62,53.68,49.89,0
60,53.80,49.99,0
60,53.93,50.09,0
61,54.07,50.20,0
61,54.21,50.30,0
60,54.32,50.40,0
63,54.50,50.53,0
62,54.65,50.64,0
62,54.79,50.76,0
64,54.98,50.89,0
64,55.16,51.02,0
64,55.33,51.15,0
65,55.53,51.29,0
64,55.70,51.41,0
65,55.88,51.55,0
66,56.09,51.69,0
64,56.24,51.82,0
66,56.44,51.96,0
68,56.67,52.12,0
68,56.90,52.28,0
68,57.12,52.44,0
66,57.30,52.57,0
68,57.51,52.73,0
68,57.72,52.88,0
66,57.89,53.01,0
68,58.09,53.16,0
68,58.29,53.31,0
68,58.48,53.46,0
72,58.75,53.64,0
68,58.94,53.78,0
70,59.16,53.95,0
70,59.37,54.11,0
70,59.59,54.27,0
70,59.79,54.42,0
71,60.02,54.59,0
71,60.24,54.75,0
70,60.43,54.91,0
70,60.62,55.06,0
71,60.83,55.22,0
70,61.02,55.36,0
70,61.20,55.51,0
70,61.37,55.65,0
72,61.58,55.82,0
72,61.79,55.98,0
72,62.00,56.14,0
72,62.20,56.30,0
74,62.43,56.48,0
76,62.70,56.67,0
74,62.93,56.84,0
75,63.17,57.03,0
75,63.41,57.21,0
74,63.62,57.37,0
74,63.83,57.54,0
76,64.07,57.72,0
77,64.33,57.92,0
77,64.58,58.11,0
76,64.81,58.29,0
77,65.06,58.47,0
77,65.29,58.66,0
80,65.59,58.87,0
78,65.84,59.06,0
78,66.08,59.25,0
78,66.32,59.44,0
81,66.61,59.66,0
79,66.86,59.85,0
80,67.12,60.05,0
79,67.36,60.24,0
82,67.65,60.46,0
80,67.90,60.65,0
80,68.14,60.85,0
81,68.40,61.05,0
81,68.65,61.25,0
80,68.88,61.44,0
83,69.16,61.65,0
84,69.46,61.88,0
83,69.73,62.09,0
84,70.01,62.31,0
83,70.27,62.51,0
85,70.57,62.74,0
87,70.90,62.98,0
86,71.20,63.21,0
86,71.49,63.44,0
87,71.80,63.67,0
88,72.13,63.92,0
88,72.45,64.16,0
88,72.76,64.40,0
89,73.08,64.64,0
90,73.42,64.90,0
89,73.73,65.14,0
90,74.06,65.39,0
92,74.42,65.65,0
92,74.77,65.92,0
96,75.19,66.22,0
96,75.61,66.51,0
97,76.04,66.82,0
95,76.42,67.10,0
96,76.81,67.39,0
94,77.15,67.66,0
96,77.53,67.94,0
95,77.88,68.21,0
95,78.22,68.48,0
94,78.54,68.73,0
95,78.86,69.00,0
96,79.21,69.27,0
98,79.58,69.55,0
98,79.95,69.84,0
101,80.37,70.15,0
99,80.75,70.44,0
104,81.21,70.77,0
100,81.59,71.07,0
100,81.95,71.35,0
103,82.38,71.67,0
103,82.79,71.98,0
104,83.21,72.30,0
105,83.65,72.63,0
103,84.03,72.94,0
105,84.45,73.26,0
107,84.91,73.59,0
104,85.29,73.90,0
105,85.68,74.21,0
105,86.07,74.52,0
104,86.43,74.81,0
105,86.80,75.11,0
105,87.16,75.41,0
104,87.50,75.70,0
105,87.85,75.99,0
105,88.19,76.28,0
105,88.53,76.57,0
105,88.86,76.85,0
106,89.20,77.14,0
105,89.52,77.42,0
105,89.83,77.70,0
106,90.15,77.98,0
108,90.51,78.28,0
109,90.88,78.59,0
109,91.24,78.89,0
109,91.59,79.19,0
111,91.98,79.51,0
117,92.48,79.89,0
113,92.89,80.22,0
113,93.29,80.55,0
113,93.69,80.87,0
113,94.08,81.19,0
113,94.45,81.51,0
116,94.88,81.85,0
115,95.29,82.19,0
118,95.74,82.54,0
115,96.13,82.87,0
115,96.50,83.19,0
115,96.87,83.51,0
114,97.22,83.81,0
115,97.57,84.12,0
115,97.92,84.43,0
114,98.24,84.73,0
114,98.56,85.02,0
115,98.89,85.32,0
114,99.19,85.61,0
114,99.48,85.89,0
116,99.81,86.19,0
116,100.14,86.49,0
115,100.44,86.78,0
114,100.71,87.05,0
117,101.03,87.35,0
116,101.33,87.64,0
116,101.63,87.92,0
116,101.91,88.20,0
115,102.17,88.47,0
116,102.45,88.74,0
115,102.70,89.01,0
116,102.97,89.28,0
115,103.21,89.53,0
116,103.46,89.80,0
116,103.72,90.06,0
116,103.96,90.32,0
117,104.22,90.59,0
118,104.50,90.86,0
117,104.75,91.12,0
118,105.01,91.39,0
117,105.25,91.65,0
116,105.47,91.89,0
118,105.72,92.15,0
118,105.96,92.41,0
118,106.20,92.67,0
118,106.44,92.92,0
118,106.67,93.17,0
118,106.90,93.42,0
118,107.12,93.66,0
118,107.34,93.91,0
118,107.55,94.15,0
118,107.76,94.39,0
118,107.96,94.62,0
118,108.17,94.86,0
118,108.36,95.09,0
118,108.55,95.32,0
118,108.74,95.54,0
118,108.93,95.77,0
118,109.11,95.99,0
118,109.29,96.21,0
118,109.46,96.43,0
118,109.63,96.64,0
120,109.84,96.88,0
118,110.00,97.09,0
120,110.20,97.32,0
118,110.36,97.52,0
121,110.57,97.76,0
119,110.74,97.97,0
119,110.91,98.18,0
118,111.05,98.38,0
118,111.19,98.58,0
119,111.34,98.78,0
118,111.48,98.97,0
118,111.61,99.16,0
118,111.73,99.35,0
118,111.86,99.54,0
115,111.92,99.69,0
116,112.00,99.86,0
116,112.08,100.02,0
117,112.18,100.19,0
117,112.28,100.36,0
118,112.39,100.53,0
117,112.49,100.70,0
117,112.58,100.86,0
117,112.66,101.02,0
116,112.73,101.17,0
117,112.82,101.33,0
115,112.86,101.47,0
117,112.94,101.62,0
117,113.02,101.77,0
116,113.08,101.92,0
116,113.14,102.06,0
117,113.22,102.21,0
117,113.29,102.36,0
116,113.35,102.49,0
116,113.40,102.63,0
116,113.45,102.76,0
117,113.52,102.90,0
117,113.59,103.04,0
115,113.62,103.16,0
116,113.67,103.29,0
115,113.70,103.41,0
116,113.74,103.53,0
115,113.77,103.65,0
115,113.79,103.76,0
115,113.82,103.88,0
115,113.84,103.99,0
115,113.86,104.10,0
114,113.87,104.20,0
114,113.87,104.29,0
115,113.89,104.40,0
113,113.87,104.49,0
113,113.86,104.57,0
113,113.84,104.66,0
113,113.82,104.74,0
114,113.83,104.83,0
114,113.83,104.92,0
113,113.81,105.00,0
113,113.80,105.08,0
113,113.78,105.16,0
113,113.76,105.24,0
113,113.75,105.32,0
112,113.71,105.39,0
113,113.70,105.46,0
112,113.67,105.53,0
113,113.65,105.60,0
111,113.60,105.66,0
113,113.59,105.73,0
111,113.54,105.78,0
111,113.49,105.84,0
111,113.44,105.89,0
111,113.39,105.94,0
111,113.34,105.99,0
110,113.27,106.03,0
111,113.23,106.08,0
111,113.18,106.13,0
110,113.12,106.17,0
110,113.06,106.20,0
109,112.98,106.23,0
109,112.90,106.26,0
109,112.82,106.29,0
109,112.74,106.31,0
110,112.69,106.35,0
109,112.61,106.38,0
109,112.54,106.40,0
109,112.47,106.43,0
109,112.40,106.46,0
109,112.33,106.48,0
109,112.27,106.51,0
108,112.18,106.52,0
108,112.10,106.54,0
108,112.02,106.55,0
108,111.93,106.57,0
108,111.86,106.58,0
107,111.76,106.58,0
108,111.68,106.60,0
108,111.61,106.61,0
107,111.52,106.62,0
107,111.43,106.62,0
107,111.34,106.62,0
107,111.25,106.63,0
107,111.17,106.63,0
105,111.04,106.61,0
106,110.94,106.61,0
106,110.84,106.60,0
106,110.75,106.60,0
107,110.67,106.60,0
105,110.56,106.58,0
105,110.45,106.57,0
105,110.34,106.55,0
106,110.25,106.55,0
105,110.15,106.53,0
105,110.04,106.52,0
105,109.94,106.50,0
105,109.84,106.49,0
104,109.73,106.46,0
105,109.63,106.45,0
108,109.60,106.46,0
104,109.49,106.44,0
103,109.36,106.40,0
104,109.25,106.38,0
103,109.13,106.35,0
103,109.00,106.31,0
103,108.88,106.28,0
103,108.77,106.25,0
103,108.65,106.21,0
103,108.54,106.18,0
103,108.43,106.15,0
102,108.30,106.11,0
102,108.17,106.07,0
102,108.05,106.03,0
103,107.95,106.00,0
102,107.83,105.96,0
99,107.65,105.89,0
101,107.52,105.84,0
102,107.41,105.80,0
102,107.30,105.76,0
101,107.17,105.71,0
101,107.05,105.67,0
101,106.93,105.62,0
101,106.81,105.57,0
101,106.70,105.53,0
100,106.56,105.47,0
101,106.45,105.43,0
100,106.32,105.37,0
100,106.19,105.32,0
99,106.05,105.26,0
100,105.93,105.20,0
99,105.79,105.14,0
100,105.68,105.09,0
99,105.54,105.03,0
99,105.41,104.97,0
100,105.30,104.92,0
100,105.20,104.87,0
99,105.07,104.81,0
98,104.93,104.74,0
99,104.81,104.69,0
98,104.68,104.62,0
99,104.56,104.56,0
98,104.43,104.50,0
99,104.32,104.44,0
97,104.18,104.37,0
98,104.05,104.30,0
97,103.91,104.23,0
97,103.77,104.16,0
98,103.66,104.10,0
95,103.49,104.01,0
96,103.34,103.93,0
97,103.21,103.86,0
96,103.06,103.78,0
97,102.94,103.71,0
98,102.84,103.65,0
97,102.73,103.59,0
96,102.59,103.51,0
95,102.44,103.43,0
96,102.31,103.35,0
97,102.21,103.29,0
96,102.08,103.22,0
95,101.94,103.13,0
95,101.80,103.05,0
96,101.69,102.98,0
94,101.53,102.89,0
96,101.42,102.82,0
95,101.29,102.74,0
97,101.21,102.69,0
94,101.06,102.60,0
96,100.96,102.53,0
96,100.86,102.47,0
96,100.77,102.40,0
94,100.63,102.32,0
95,100.52,102.25,0
94,100.39,102.16,0
95,100.28,102.09,0
94,100.15,102.01,0
95,100.05,101.94,0
94,99.93,101.86,0
95,99.83,101.79,0
95,99.73,101.73,0
95,99.64,101.66,0
95,99.55,101.59,0
95,99.46,101.53,0
94,99.35,101.45,0
93,99.22,101.37,0
93,99.10,101.28,0
94,98.99,101.21,0
94,98.89,101.14,0
95,98.82,101.08,0
94,98.72,101.01,0
94,98.63,100.94,0
93,98.51,100.86,0
93,98.40,100.78,0
93,98.29,100.70,0
94,98.21,100.63,0
93,98.10,100.56,0
94,98.02,100.49,0
94,97.94,100.43,0
93,97.84,100.35,0
93,97.75,100.28,0
92,97.63,100.20,0
92,97.52,100.11,0
92,97.41,100.03,0
94,97.34,99.97,0
92,97.23,99.89,0
92,97.13,99.81,0
92,97.03,99.74,0
93,96.95,99.67,0
92,96.85,99.59,0
91,96.73,99.51,0
92,96.63,99.43,0
91,96.52,99.35,0
92,96.43,99.27,0
92,96.34,99.20,0
92,96.26,99.13,0
92,96.17,99.06,0
90,96.05,98.97,0
91,95.95,98.89,0
91,95.85,98.81,0
91,95.75,98.73,0
90,95.64,98.64,0
91,95.54,98.57,0
90,95.43,98.48,0
90,95.32,98.40,0
90,95.22,98.31,0
90,95.11,98.23,0
91,95.03,98.16,0
90,94.93,98.07,0
90,94.83,97.99,0
90,94.73,97.91,0
91,94.66,97.84,0
90,94.57,97.77,0
88,94.44,97.67,0
88,94.31,97.57,0
89,94.20,97.49,0
90,94.12,97.41,0
88,93.99,97.32,0
89,93.89,97.23,0
89,93.80,97.15,0
89,93.70,97.07,0
89,93.61,96.99,0
88,93.49,96.90,0
89,93.40,96.82,0
88,93.30,96.73,0
88,93.19,96.65,0
89,93.11,96.57,0
88,93.00,96.48,0
88,92.90,96.40,0
88,92.81,96.31,0
88,92.71,96.23,0
88,92.62,96.15,0
88,92.52,96.07,0
88,92.43,95.99,0
88,92.34,95.91,0
88,92.26,95.83,0
87,92.15,95.74,0
88,92.07,95.66,0
88,91.99,95.59,0
88,91.91,95.51,0
88,91.83,95.43,0
88,91.75,95.36,0
87,91.66,95.28,0
87,91.57,95.19,0
88,91.49,95.12,0
88,91.42,95.05,0
88,91.36,94.98,0
87,91.27,94.90,0
88,91.20,94.83,0
86,91.10,94.74,0
87,91.02,94.67,0
86,90.92,94.58,0
86,90.82,94.49,0
88,90.76,94.43,0
86,90.67,94.34,0
86,90.57,94.26,0
86,90.48,94.18,0
86,90.39,94.10,0
90,90.38,94.05,0
86,90.30,93.97,0
86,90.21,93.89,0
86,90.13,93.82,0
87,90.06,93.75,0
86,89.98,93.67,0
86,89.90,93.59,0
86,89.83,93.52,0
90,89.83,93.48,0
86,89.75,93.41,0
86,89.68,93.33,0
84,89.56,93.24,0
85,89.47,93.16,0
84,89.36,93.07,0
88,89.34,93.02,0
85,89.25,92.94,0
83,89.12,92.84,0
84,89.02,92.75,0
84,88.92,92.66,0
84,88.82,92.57,0
84,88.73,92.49,0
84,88.63,92.40,0
84,88.54,92.32,0
84,88.45,92.24,0
84,88.36,92.15,0
83,88.25,92.06,0
84,88.17,91.98,0
84,88.08,91.90,0
85,88.02,91.83,0
84,87.94,91.75,0
84,87.86,91.68,0
84,87.79,91.60,0
84,87.71,91.52,0
84,87.64,91.45,0
84,87.56,91.37,0
83,87.47,91.29,0
84,87.40,91.22,0
84,87.33,91.15,0
84,87.27,91.07,0
84,87.20,91.00,0
83,87.12,90.92,0
85,87.08,90.86,0
84,87.01,90.80,0
83,86.93,90.72,0
83,86.86,90.64,0
85,86.82,90.58,0
83,86.74,90.51,0
82,86.65,90.42,0
82,86.55,90.34,0
84,86.50,90.28,0
82,86.41,90.19,0
82,86.32,90.11,0
82,86.24,90.03,0
83,86.17,89.96,0
84,86.13,89.90,0
82,86.05,89.82,0
82,85.97,89.74,0
81,85.87,89.65,0
82,85.79,89.58,0
82,85.71,89.50,0
82,85.64,89.43,0
81,85.55,89.34,0
83,85.50,89.28,0
82,85.43,89.21,0
82,85.36,89.13,0
81,85.27,89.05,0
82,85.20,88.98,0
82,85.14,88.91,0
82,85.08,88.84,0
82,85.02,88.78,0
82,84.96,88.71,0
82,84.90,88.64,0
82,84.84,88.57,0
82,84.78,88.51,0
81,84.71,88.43,0
82,84.65,88.37,0
82,84.60,88.31,0
82,84.55,88.24,0
81,84.48,88.17,0
80,84.39,88.09,0
82,84.34,88.03,0
81,84.27,87.96,0
82,84.23,87.90,0
81,84.16,87.83,0
79,84.06,87.74,0
81,84.00,87.67,0
82,83.96,87.62,0
82,83.92,87.56,0
79,83.82,87.47,0
82,83.78,87.42,0
82,83.75,87.37,0
80,83.67,87.29,0
82,83.64,87.24,0
82,83.61,87.19,0
80,83.54,87.11,0
80,83.46,87.04,0
81,83.42,86.98,0
80,83.35,86.91,0
80,83.28,86.84,0
80,83.21,86.78,0
81,83.17,86.72,0
80,83.11,86.65,0
81,83.06,86.59,0
79,82.98,86.52,0
81,82.94,86.46,0
80,82.88,86.40,0
80,82.83,86.33,0
80,82.77,86.27,0
80,82.72,86.21,0
80,82.66,86.15,0
78,82.57,86.06,0
79,82.50,85.99,0
79,82.43,85.92,0
79,82.36,85.86,0
79,82.29,85.79,0
82,82.28,85.75,0
79,82.22,85.68,0
79,82.15,85.61,0
81,82.13,85.57,0
78,82.05,85.49,0
79,81.99,85.43,0
79,81.93,85.36,0
79,81.87,85.30,0
80,81.83,85.25,0
79,81.78,85.18,0
79,81.72,85.12,0
78,81.65,85.05,0
78,81.57,84.98,0
78,81.50,84.91,0
79,81.45,84.85,0
78,81.38,84.78,0
75,81.25,84.69,0
78,81.19,84.62,0
78,81.13,84.55,0
78,81.06,84.49,0
78,81.00,84.42,0
78,80.94,84.36,0
79,80.90,84.30,0
77,80.83,84.23,0
74,80.69,84.13,0
78,80.63,84.07,0
77,80.56,84.00,0
76,80.47,83.92,0
76,80.38,83.84,0
76,80.29,83.76,0
77,80.23,83.69,0
76,80.14,83.61,0
76,80.06,83.54,0
76,79.98,83.46,0
77,79.92,83.40,0
76,79.84,83.32,0
76,79.76,83.25,0
76,79.69,83.18,0
77,79.64,83.12,0
76,79.56,83.05,0
75,79.47,82.97,0
76,79.40,82.90,0
76,79.33,82.83,0
76,79.27,82.76,0
74,79.16,82.67,0
76,79.10,82.60,0
77,79.06,82.55,0
75,78.98,82.47,0
74,78.88,82.39,0
76,78.82,82.32,0
76,78.76,82.26,0
76,78.71,82.20,0
74,78.61,82.12,0
76,78.56,82.06,0
75,78.49,81.98,0
75,78.42,81.91,0
74,78.33,81.84,0
76,78.28,81.78,0
75,78.22,81.71,0
74,78.13,81.63,0
74,78.05,81.56,0
76,78.01,81.50,0
74,77.93,81.43,0
74,77.85,81.35,0
76,77.81,81.30,0
75,77.76,81.23,0
74,77.68,81.16,0
74,77.61,81.09,0
74,77.54,81.02,0
74,77.47,80.95,0
75,77.42,80.89,0
74,77.35,80.82,0
75,77.30,80.76,0
76,77.28,80.72,0
74,77.21,80.65,0
74,77.15,80.58,0
76,77.12,80.54,0
76,77.10,80.49,0
74,77.04,80.43,0
74,76.98,80.36,0
76,76.96,80.32,0
75,76.92,80.26,0
75,76.88,80.21,0
76,76.86,80.17,0
74,76.81,80.11,0
75,76.77,80.06,0
76,76.75,80.02,0
74,76.70,79.96,0
76,76.69,79.92,0
76,76.67,79.88,0
75,76.64,79.83,0
76,76.63,79.79,0
76,76.61,79.75,0
76,76.60,79.72,0
75,76.57,79.67,0
76,76.56,79.63,0
76,76.55,79.60,0
77,76.56,79.57,0
74,76.50,79.51,0
76,76.49,79.48,0
76,76.48,79.44,0
76,76.47,79.41,0
76,76.47,79.38,0
78,76.50,79.36,0
76,76.49,79.33,0
76,76.48,79.29,0
76,76.47,79.26,0
76,76.46,79.23,0
76,76.45,79.20,0
75,76.42,79.15,0
76,76.41,79.12,0
76,76.40,79.09,0
75,76.37,79.05,0
75,76.35,79.01,0
77,76.36,78.99,0
78,76.39,78.98,0
76,76.39,78.95,0
74,76.34,78.90,0
76,76.33,78.87,0
77,76.34,78.85,0
75,76.32,78.81,0
76,76.31,78.79,0
77,76.32,78.77,0
78,76.36,78.76,0
75,76.33,78.72,0
76,76.32,78.70,0
76,76.32,78.67,0
76,76.31,78.64,0
76,76.31,78.62,0
76,76.30,78.59,0
77,76.31,78.57,0
75,76.29,78.54,0
76,76.28,78.51,0
78,76.32,78.51,0
77,76.33,78.49,0
78,76.36,78.49,0
78,76.40,78.48,0
78,76.43,78.48,0
79,76.48,78.48,0
75,76.45,78.45,0
78,76.48,78.44,0
78,76.51,78.44,0
78,76.54,78.44,0
78,76.57,78.43,0
78,76.60,78.43,0
78,76.63,78.42,0
78,76.65,78.42,0
78,76.68,78.41,0
78,76.71,78.41,0
78,76.73,78.41,0
78,76.76,78.40,0
78,76.78,78.40,0
78,76.81,78.39,0
76,76.79,78.37,0
77,76.80,78.36,0
78,76.82,78.35,0
76,76.80,78.33,0
77,76.81,78.32,0
77,76.81,78.30,0
79,76.85,78.31,0
79,76.90,78.32,0
78,76.92,78.31,0
78,76.94,78.31,0
76,76.92,78.29,0
78,76.94,78.28,0
77,76.95,78.27,0
78,76.97,78.27,0
76,76.95,78.25,0
78,76.97,78.24,0
78,76.99,78.24,0
77,76.99,78.23,0
78,77.01,78.23,0
78,77.03,78.22,0
77,77.03,78.21,0
80,77.09,78.23,0
78,77.11,78.23,0
77,77.10,78.22,0
77,77.10,78.20,0
78,77.12,78.20,0
78,77.14,78.20,0
76,77.11,78.18,0
77,77.11,78.17,0
76,77.09,78.14,0
77,77.09,78.13,0
77,77.09,78.12,0
76,77.06,78.10,0
79,77.10,78.11,0
79,77.14,78.12,0
77,77.14,78.11,0
77,77.14,78.10,0
77,77.13,78.08,0
76,77.11,78.06,0
76,77.09,78.04,0
76,77.07,78.02,0
77,77.07,78.01,0
76,77.04,77.99,0
76,77.02,77.97,0
76,77.00,77.95,0
76,76.98,77.93,0
76,76.96,77.91,0
76,76.94,77.89,0
76,76.92,77.88,0
77,76.93,77.87,0
76,76.91,77.85,0
76,76.89,77.83,0
75,76.85,77.80,0
76,76.83,77.78,0
76,76.82,77.77,0
76,76.80,77.75,0
76,76.79,77.73,0
75,76.75,77.70,0
76,76.73,77.69,0
74,76.68,77.65,0
74,76.63,77.61,0
76,76.61,77.60,0
76,76.60,77.58,0
75,76.57,77.55,0
76,76.56,77.54,0
76,76.55,77.52,0
75,76.52,77.50,0
74,76.47,77.46,0
74,76.42,77.43,0
75,76.39,77.40,0
74,76.34,77.37,0
74,76.29,77.34,0
74,76.25,77.30,0
76,76.24,77.29,0
75,76.22,77.27,0
74,76.17,77.23,0
74,76.13,77.20,0
75,76.11,77.18,0
74,76.07,77.15,0
74,76.02,77.12,0
74,75.98,77.09,0
74,75.94,77.06,0
74,75.91,77.02,0
75,75.89,77.00,0
77,75.91,77.00,0
79,75.97,77.02,0
74,75.93,76.99,0
76,75.93,76.98,0
76,75.93,76.97,0
75,75.92,76.95,0
74,75.88,76.92,0
77,75.90,76.93,0
76,75.90,76.92,0
76,75.90,76.91,0
76,75.91,76.90,0
77,75.93,76.90,0
76,75.93,76.89,0
75,75.91,76.87,0
74,75.87,76.84,0
75,75.85,76.82,0
75,75.84,76.81,0
73,75.78,76.77,0
75,75.77,76.75,0
76,75.77,76.74,0
75,75.75,76.73,0
76,75.76,76.72,0
76,75.76,76.71,0
76,75.77,76.70,0
75,75.75,76.69,0
74,75.72,76.66,0
74,75.68,76.63,0
76,75.69,76.63,0
75,75.68,76.61,0
74,75.64,76.58,0
78,75.69,76.60,0
74,75.66,76.57,0
74,75.62,76.55,0
74,75.59,76.52,0
77,75.62,76.53,0
74,75.59,76.50,0
74,75.56,76.48,0
75,75.54,76.46,0
75,75.53,76.45,0
74,75.50,76.42,0
74,75.47,76.40,0
74,75.44,76.37,0
75,75.43,76.36,0
75,75.43,76.35,0
76,75.44,76.34,0
74,75.41,76.32,0
75,75.40,76.31,0
75,75.39,76.29,0
75,75.38,76.28,0
74,75.36,76.26,0
75,75.35,76.25,0
74,75.32,76.22,0
74,75.30,76.20,0
73,75.25,76.17,0
74,75.22,76.15,0
74,75.20,76.13,0
74,75.18,76.10,0
73,75.13,76.07,0
74,75.11,76.05,0
74,75.09,76.03,0
74,75.07,76.01,0
76,75.09,76.01,0
74,75.06,75.99,0
74,75.04,75.97,0
74,75.02,75.95,0
76,75.04,75.95,0
74,75.02,75.93,0
74,75.00,75.91,0
74,74.98,75.89,0
73,74.94,75.87,0
74,74.92,75.85,0
74,74.90,75.83,0
74,74.88,75.81,0
74,74.87,75.79,0
74,74.85,75.77,0
74,74.83,75.76,0
74,74.82,75.74,0
74,74.80,75.72,0
74,74.78,75.70,0
74,74.77,75.69,0
74,74.75,75.67,0
74,74.74,75.65,0
76,74.76,75.66,0
74,74.75,75.64,0
76,74.77,75.64,0
75,74.78,75.64,0
74,74.76,75.62,0
76,74.79,75.62,0
74,74.77,75.61,0
75,74.78,75.60,0
77,74.82,75.62,0
74,74.80,75.60,0
74,74.79,75.58,0
75,74.79,75.58,0
74,74.78,75.56,0
74,74.76,75.55,0
74,74.75,75.53,0
75,74.75,75.53,0
74,74.74,75.51,0
74,74.72,75.50,0
75,74.73,75.49,0
74,74.71,75.48,0
74,74.70,75.46,0
74,74.68,75.45,0
74,74.67,75.43,0
74,74.66,75.42,0
74,74.64,75.40,0
75,74.65,75.40,0
74,74.64,75.39,0
74,74.62,75.37,0
74,74.61,75.36,0
74,74.60,75.34,0
74,74.59,75.33,0
72,74.54,75.30,0
73,74.51,75.27,0
74,74.50,75.26,0
71,74.43,75.22,0
72,74.38,75.19,0
74,74.37,75.18,0
73,74.34,75.15,0
73,74.32,75.13,0
74,74.31,75.12,0
74,74.30,75.11,0
74,74.30,75.10,0
73,74.27,75.08,0
74,74.27,75.07,0
73,74.24,75.05,0
72,74.20,75.02,0
73,74.17,75.00,0
74,74.17,74.99,0
73,74.14,74.97,0
73,74.12,74.95,0
72,74.08,74.92,0
74,74.08,74.91,0
73,74.06,74.89,0
72,74.01,74.86,0
73,73.99,74.84,0
76,74.03,74.85,0
73,74.01,74.83,0
72,73.97,74.81,0
73,73.95,74.79,0
73,73.94,74.77,0
74,73.94,74.76,0
74,73.94,74.75,0
74,73.94,74.75,0
73,73.92,74.73,0
74,73.92,74.72,0
73,73.90,74.70,0
74,73.91,74.70,0
73,73.89,74.68,0
73,73.87,74.66,0
73,73.85,74.65,0
72,73.82,74.62,0
75,73.84,74.62,0
73,73.82,74.61,0
72,73.79,74.58,0
72,73.75,74.56,0
72,73.71,74.53,0
73,73.70,74.52,0
74,73.71,74.51,0
74,73.71,74.51,0
74,73.72,74.50,0
73,73.70,74.49,0
74,73.71,74.48,0
72,73.68,74.46,0
74,73.68,74.45,0
74,73.69,74.45,0
74,73.69,74.44,0
74,73.70,74.44,0
74,73.71,74.43,0
74,73.71,74.43,0
74,73.72,74.42,0
76,73.76,74.44,0
74,73.77,74.44,0
74,73.77,74.43,0
73,73.76,74.42,0
74,73.76,74.41,0
74,73.77,74.41,0
74,73.77,74.40,0
74,73.78,74.40,0
74,73.78,74.40,0
75,73.81,74.40,0
74,73.81,74.40,0
76,73.85,74.41,0
76,73.90,74.43,0
75,73.92,74.44,0
74,73.92,74.43,0
74,73.92,74.43,0
76,73.96,74.44,0
75,73.98,74.45,0
74,73.98,74.44,0
74,73.98,74.44,0
74,73.98,74.44,0
76,74.03,74.45,0
78,74.10,74.49,0
74,74.10,74.48,0
74,74.10,74.48,0
75,74.12,74.48,0
76,74.16,74.50,0
76,74.19,74.51,0
77,74.25,74.54,0
75,74.26,74.54,0
77,74.32,74.57,0
77,74.37,74.59,0
77,74.43,74.62,0
76,74.46,74.63,0
76,74.49,74.64,0
76,74.52,74.66,0
76,74.55,74.67,0
76,74.58,74.68,0
78,74.64,74.72,0
78,74.71,74.75,0
79,74.80,74.79,0
79,74.88,74.83,0
77,74.92,74.86,0
78,74.99,74.89,0
78,75.05,74.92,0
81,75.16,74.98,0
79,75.24,75.02,0
79,75.32,75.06,0
79,75.39,75.10,0
79,75.46,75.14,0
79,75.53,75.18,0
80,75.62,75.22,0
82,75.75,75.29,0
81,75.86,75.35,0
82,75.98,75.42,0
80,76.06,75.46,0
82,76.18,75.53,0
81,76.27,75.58,0
82,76.39,75.65,0
82,76.50,75.71,0
82,76.61,75.77,0
83,76.74,75.84,0
83,76.86,75.92,0
84,77.01,76.00,0
83,77.13,76.07,0
83,77.24,76.14,0
83,77.36,76.20,0
85,77.51,76.29,0
84,77.64,76.37,0
85,77.79,76.46,0
87,77.97,76.56,0
86,78.13,76.66,0
90,78.37,76.79,0
93,78.66,76.95,0
93,78.95,77.11,0
91,79.19,77.25,0
92,79.45,77.40,0
92,79.70,77.54,0
92,79.94,77.69,0
94,80.23,77.85,0
94,80.50,78.01,0
96,80.81,78.19,0
94,81.07,78.35,0
94,81.33,78.51,0
94,81.59,78.66,0
95,81.85,78.83,0
96,82.14,79.00,0
94,82.37,79.15,0
95,82.63,79.31,0
95,82.87,79.46,0
96,83.14,79.63,0
96,83.39,79.79,0
96,83.65,79.95,0
95,83.87,80.10,0
97,84.14,80.27,0
96,84.37,80.43,0
98,84.65,80.61,0
100,84.95,80.80,0
100,85.25,80.99,0
103,85.61,81.21,0
97,85.84,81.37,0
100,86.12,81.56,0
102,86.44,81.76,0
104,86.79,81.98,0
102,87.09,82.18,0
103,87.41,82.39,0
102,87.70,82.59,0
103,88.01,82.79,0
104,88.33,83.00,0
107,88.70,83.24,0
107,89.07,83.48,0
108,89.45,83.73,0
109,89.84,83.98,0
107,90.18,84.21,0
109,90.56,84.46,0
110,90.95,84.71,0
111,91.35,84.98,0
111,91.74,85.24,0
111,92.13,85.49,0
111,92.50,85.75,0
112,92.89,86.01,0
111,93.26,86.26,0
111,93.61,86.51,0
113,94.00,86.77,0
115,94.42,87.06,0
113,94.79,87.32,0
114,95.17,87.58,0
116,95.59,87.87,0
117,96.02,88.16,0
119,96.48,88.47,0
119,96.93,88.77,0
122,97.43,89.10,0
121,97.90,89.42,0
119,98.32,89.72,0
120,98.76,90.02,0
120,99.18,90.32,0
118,99.56,90.60,0
120,99.97,90.89,0
120,100.37,91.18,0
121,100.78,91.48,0
120,101.16,91.77,0
121,101.56,92.06,0
124,102.01,92.38,0
124,102.45,92.69,0
128,102.96,93.05,0
126,103.42,93.38,0
130,103.95,93.74,0
130,104.47,94.11,0
130,104.98,94.46,0
128,105.45,94.80,0
129,105.92,95.14,0
130,106.40,95.49,0
130,106.87,95.84,0
130,107.33,96.18,0
130,107.79,96.52,0
131,108.25,96.86,0
130,108.69,97.19,0
130,109.11,97.52,0
130,109.53,97.84,0
130,109.94,98.17,0
130,110.34,98.48,0
130,110.73,98.80,0
130,111.12,99.11,0
130,111.50,99.42,0
132,111.91,99.75,0
132,112.31,100.07,0
131,112.68,100.38,0
132,113.07,100.69,0
134,113.49,101.03,0
134,113.90,101.36,0
133,114.28,101.67,0
134,114.67,102.00,0
133,115.04,102.31,0
134,115.42,102.62,0
134,115.79,102.94,0
134,116.16,103.25,0
133,116.49,103.55,0
134,116.84,103.85,0
137,117.25,104.18,0
137,117.64,104.51,0
136,118.01,104.83,0
137,118.39,105.15,0
141,118.84,105.51,0
143,119.32,105.88,0
141,119.76,106.23,0
142,120.20,106.59,0
143,120.66,106.95,0
141,121.06,107.29,0
141,121.46,107.63,0
141,121.85,107.96,0
141,122.24,108.29,0
141,122.61,108.62,0
141,122.98,108.95,0
141,123.34,109.27,0
141,123.69,109.58,0
141,124.04,109.90,0
140,124.36,110.20,0
141,124.69,110.51,0
139,124.98,110.79,0
141,125.30,111.09,0
140,125.59,111.38,0
141,125.90,111.68,0
141,126.20,111.97,0
141,126.50,112.26,0
141,126.79,112.55,0
142,127.09,112.84,0
143,127.41,113.15,0
143,127.72,113.44,0
141,127.99,113.72,0
141,128.25,113.99,0
142,128.52,114.27,0
141,128.77,114.54,0
142,129.04,114.81,0
142,129.30,115.09,0
141,129.53,115.35,0
141,129.76,115.60,0
141,129.98,115.86,0
141,130.21,116.11,0
141,130.42,116.36,0
140,130.61,116.59,0
141,130.82,116.84,0
141,131.02,117.08,0
142,131.24,117.33,0
141,131.44,117.56,0
141,131.63,117.80,0
141,131.82,118.03,0
140,131.98,118.25,0
140,132.14,118.47,0
140,132.30,118.68,0
140,132.45,118.90,0
140,132.60,119.11,0
139,132.73,119.31,0
139,132.86,119.50,0
139,132.98,119.70,0
139,133.10,119.89,0
139,133.22,120.08,0
139,133.33,120.27,0
141,133.49,120.48,0
138,133.58,120.65,0
140,133.71,120.85,0
138,133.79,121.02,0
139,133.90,121.20,0
140,134.02,121.39,0
139,134.12,121.56,0
138,134.20,121.73,0
138,134.27,121.89,0
140,134.39,122.07,0
139,134.48,122.24,0
137,134.53,122.39,0
137,134.58,122.53,0
137,134.63,122.68,0
137,134.67,122.82,0
137,134.72,122.96,0
136,134.75,123.09,0
137,134.79,123.23,0
136,134.82,123.36,0
138,134.88,123.51,0
136,134.90,123.63,0
136,134.92,123.76,0
136,134.94,123.88,0
136,134.97,124.00,0
135,134.97,124.11,0
135,134.97,124.22,0
135,134.97,124.33,0
135,134.97,124.43,0
135,134.97,124.54,0
134,134.95,124.63,0
135,134.95,124.74,0
134,134.93,124.83,0
134,134.91,124.92,0
134,134.90,125.01,0
134,134.88,125.10,0
133,134.84,125.18,0
135,134.84,125.28,0
133,134.81,125.36,0
133,134.77,125.43,0
133,134.73,125.51,0
132,134.68,125.57,0
132,134.63,125.64,0
132,134.57,125.70,0
132,134.52,125.76,0
132,134.47,125.83,0
132,134.42,125.89,0
131,134.35,125.94,0
131,134.29,125.99,0
131,134.22,126.04,0
131,134.16,126.09,0
131,134.09,126.14,0
131,134.03,126.19,0
130,133.95,126.23,0
131,133.89,126.27,0
129,133.79,126.30,0
127,133.66,126.31,0
129,133.57,126.33,0
130,133.49,126.37,0
129,133.40,126.40,0
129,133.32,126.42,0
129,133.23,126.45,0
129,133.14,126.48,0
129,133.06,126.50,0
129,132.98,126.53,0
129,132.90,126.55,0
128,132.80,126.56,0
129,132.73,126.59,0
129,132.65,126.61,0
129,132.58,126.64,0
128,132.49,126.65,0
129,132.42,126.67,0
127,132.31,126.68,0
128,132.22,126.69,0
127,132.12,126.69,0
127,132.02,126.70,0
127,131.92,126.70,0
127,131.82,126.70,0
127,131.72,126.71,0
127,131.63,126.71,0
127,131.53,126.71,0
126,131.42,126.70,0
126,131.32,126.70,0
126,131.21,126.69,0
125,131.09,126.67,0
125,130.96,126.66,0
125,130.84,126.64,0
125,130.73,126.62,0
125,130.61,126.61,0
125,130.50,126.59,0
124,130.37,126.57,0
124,130.24,126.54,0
125,130.14,126.52,0
123,130.00,126.49,0
124,129.88,126.46,0
127,129.82,126.47,0
123,129.68,126.44,0
124,129.57,126.41,0
123,129.44,126.38,0
123,129.31,126.34,0
123,129.18,126.31,0
123,129.06,126.28,0
122,128.92,126.23,0
124,128.82,126.21,0
121,128.66,126.16,0
122,128.53,126.12,0
121,128.38,126.07,0
123,128.27,126.04,0
121,128.13,125.99,0
121,127.98,125.94,0
121,127.84,125.89,0
119,127.67,125.82,0
121,127.53,125.77,0
120,127.38,125.71,0
120,127.23,125.65,0
119,127.07,125.59,0
119,126.91,125.52,0
119,126.75,125.46,0
119,126.60,125.39,0
119,126.44,125.33,0
120,126.31,125.27,0
119,126.17,125.21,0
119,126.03,125.15,0
119,125.88,125.09,0
119,125.75,125.03,0
118,125.59,124.96,0
117,125.42,124.88,0
118,125.27,124.81,0
117,125.11,124.73,0
117,124.94,124.65,0
118,124.81,124.59,0
117,124.65,124.51,0
117,124.50,124.44,0
117,124.35,124.36,0
117,124.20,124.29,0
117,124.06,124.22,0
116,123.89,124.13,0
116,123.74,124.05,0
116,123.58,123.97,0
117,123.45,123.90,0
115,123.28,123.81,0
117,123.16,123.74,0
116,123.01,123.67,0
115,122.85,123.58,0
113,122.66,123.47,0
115,122.50,123.39,0
115,122.35,123.31,0
114,122.18,123.21,0
115,122.04,123.13,0
114,121.88,123.04,0
117,121.78,122.98,0
113,121.61,122.88,0
115,121.47,122.80,0
114,121.33,122.71,0
113,121.16,122.62,0
113,121.00,122.52,0
113,120.84,122.42,0
113,120.68,122.33,0
115,120.57,122.26,0
113,120.41,122.16,0
113,120.27,122.07,0
111,120.08,121.96,0
113,119.94,121.87,0
112,119.78,121.77,0
112,119.62,121.68,0
112,119.47,121.58,0
112,119.32,121.48,0
111,119.16,121.38,0
111,118.99,121.27,0
111,118.83,121.17,0
111,118.68,121.07,0
111,118.52,120.97,0
111,118.37,120.87,0
111,118.23,120.77,0
111,118.08,120.67,0
111,117.94,120.58,0
109,117.76,120.46,0
110,117.61,120.36,0
109,117.43,120.24,0
110,117.28,120.14,0
109,117.12,120.03,0
109,116.96,119.92,0
109,116.80,119.81,0
109,116.64,119.70,0
110,116.51,119.60,0
109,116.36,119.50,0
109,116.21,119.39,0
109,116.07,119.29,0
109,115.93,119.19,0
108,115.77,119.07,0
109,115.63,118.97,0
107,115.46,118.85,0
108,115.31,118.75,0
108,115.16,118.64,0
108,115.02,118.53,0
107,114.86,118.42,0
107,114.70,118.30,0
108,114.57,118.20,0
107,114.42,118.09,0
107,114.27,117.98,0
107,114.12,117.87,0
107,113.98,117.76,0
107,113.84,117.65,0
106,113.68,117.53,0
106,113.53,117.42,0
110,113.46,117.34,0
106,113.31,117.23,0
105,113.14,117.11,0
105,112.98,116.99,0
105,112.82,116.87,0
106,112.69,116.76,0
106,112.55,116.65,0
106,112.42,116.54,0
105,112.27,116.43,0
105,112.13,116.31,0
105,111.98,116.20,0
105,111.85,116.09,0
104,111.69,115.97,0
104,111.53,115.85,0
104,111.38,115.73,0
104,111.24,115.61,0
104,111.09,115.50,0
104,110.95,115.38,0
103,110.79,115.26,0
104,110.65,115.15,0
104,110.52,115.03,0
103,110.37,114.91,0
103,110.22,114.79,0
103,110.08,114.68,0
103,109.94,114.56,0
103,109.80,114.44,0
101,109.62,114.31,0
102,109.47,114.19,0
103,109.34,114.08,0
102,109.19,113.95,0
102,109.05,113.83,0
102,108.91,113.72,0
101,108.75,113.59,0
102,108.62,113.47,0
101,108.46,113.35,0
101,108.31,113.23,0
103,108.21,113.12,0
102,108.08,113.01,0
102,107.96,112.90,0
102,107.84,112.79,0
103,107.75,112.69,0
101,107.61,112.58,0
101,107.48,112.46,0
101,107.35,112.35,0
101,107.22,112.23,0
101,107.10,112.12,0
101,106.98,112.01,0
101,106.86,111.90,0
101,106.74,111.79,0
101,106.62,111.68,0
100,106.49,111.57,0
101,106.38,111.46,0
101,106.27,111.36,0
100,106.15,111.24,0
99,106.01,111.12,0
99,105.87,111.00,0
98,105.71,110.87,0
98,105.55,110.74,0
100,105.44,110.63,0
100,105.33,110.53,0
99,105.21,110.41,0
99,105.08,110.30,0
99,104.96,110.18,0
98,104.82,110.06,0
98,104.69,109.94,0
98,104.55,109.82,0
98,104.42,109.70,0
99,104.31,109.60,0
98,104.19,109.48,0
97,104.04,109.36,0
98,103.92,109.24,0
97,103.78,109.12,0
100,103.71,109.03,0
97,103.57,108.91,0
98,103.46,108.80,0
97,103.33,108.68,0
97,103.21,108.56,0
97,103.08,108.45,0
97,102.96,108.33,0
102,102.94,108.27,0
96,102.80,108.15,0
97,102.69,108.04,0
97,102.57,107.93,0
97,102.46,107.82,0
96,102.33,107.70,0
95,102.19,107.57,0
96,102.06,107.46,0
96,101.94,107.34,0
95,101.80,107.22,0
96,101.69,107.11,0
96,101.57,107.00,0
95,101.44,106.88,0
94,101.29,106.75,0
96,101.19,106.64,0
94,101.04,106.51,0
97,100.96,106.42,0
94,100.82,106.29,0
95,100.71,106.18,0
96,100.61,106.08,0
95,100.50,105.97,0
96,100.41,105.87,0
95,100.30,105.76,0
94,100.18,105.64,0
94,100.05,105.53,0
94,99.93,105.41,0
95,99.83,105.31,0
94,99.72,105.19,0
94,99.60,105.08,0
91,99.43,104.94,0
94,99.32,104.83,0
94,99.21,104.72,0
94,99.11,104.62,0
93,98.99,104.50,0
93,98.87,104.38,0
93,98.75,104.27,0
93,98.64,104.16,0
93,98.52,104.05,0
93,98.41,103.94,0
93,98.30,103.83,0
93,98.20,103.72,0
93,98.09,103.61,0
92,97.97,103.49,0
92,97.85,103.38,0
93,97.76,103.28,0
93,97.66,103.17,0
91,97.53,103.05,0
92,97.42,102.94,0
92,97.31,102.83,0
92,97.20,102.72,0
92,97.10,102.62,0
91,96.98,102.50,0
92,96.88,102.40,0
92,96.78,102.29,0
91,96.66,102.18,0
92,96.57,102.08,0
92,96.48,101.98,0
91,96.37,101.87,0
91,96.26,101.76,0
92,96.18,101.66,0
92,96.09,101.56,0
91,95.99,101.46,0
91,95.89,101.35,0
90,95.77,101.24,0
89,95.64,101.12,0
89,95.51,101.00,0
90,95.40,100.89,0
87,95.23,100.75,0
89,95.10,100.63,0
90,95.00,100.52,0
90,94.90,100.42,0
90,94.80,100.31,0
89,94.69,100.20,0
89,94.57,100.09,0
89,94.46,99.98,0
90,94.37,99.88,0
89,94.26,99.77,0
90,94.18,99.67,0
88,94.06,99.55,0
89,93.95,99.45,0
89,93.86,99.34,0
92,93.82,99.27,0
88,93.70,99.16,0
89,93.61,99.06,0
89,93.52,98.96,0
89,93.43,98.86,0
88,93.32,98.75,0
88,93.21,98.64,0
85,93.05,98.50,0
89,92.97,98.41,0
88,92.87,98.31,0
88,92.77,98.20,0
88,92.67,98.10,0
88,92.58,98.00,0
88,92.49,97.90,0
88,92.40,97.80,0
88,92.31,97.70,0
89,92.24,97.62,0
88,92.16,97.52,0
88,92.08,97.42,0
89,92.02,97.34,0
87,91.91,97.24,0
87,91.82,97.13,0
86,91.70,97.02,0
87,91.61,96.92,0
88,91.53,96.83,0
86,91.42,96.72,0
86,91.31,96.62,0
86,91.21,96.51,0
87,91.12,96.42,0
86,91.02,96.31,0
87,90.94,96.22,0
87,90.86,96.13,0
87,90.79,96.04,0
86,90.69,95.94,0
86,90.60,95.84,0
85,90.48,95.73,0
87,90.41,95.64,0
86,90.33,95.54,0
84,90.20,95.43,0
85,90.10,95.32,0
86,90.01,95.23,0
84,89.89,95.12,0
84,89.78,95.01,0
85,89.68,94.91,0
85,89.59,94.81,0
84,89.47,94.70,0
84,89.37,94.59,0
86,89.30,94.51,0
86,89.23,94.42,0
84,89.13,94.32,0
85,89.04,94.22,0
84,88.94,94.12,0
84,88.84,94.02,0
84,88.75,93.92,0
84,88.65,93.82,0
84,88.56,93.72,0
83,88.45,93.62,0
84,88.36,93.52,0
84,88.27,93.42,0
84,88.19,93.33,0
84,88.10,93.24,0
84,88.02,93.15,0
84,87.94,93.05,0
84,87.86,92.96,0
83,87.76,92.86,0
82,87.65,92.75,0
84,87.58,92.67,0
83,87.49,92.57,0
82,87.38,92.46,0
83,87.29,92.37,0
82,87.18,92.27,0
83,87.10,92.17,0
86,87.08,92.11,0
84,87.02,92.03,0
84,86.95,91.95,0
82,86.86,91.85,0
84,86.80,91.77,0
82,86.70,91.67,0
83,86.63,91.59,0
82,86.54,91.49,0
82,86.45,91.40,0
83,86.38,91.31,0
82,86.29,91.22,0
83,86.22,91.14,0
82,86.14,91.05,0
82,86.06,90.96,0
82,85.97,90.87,0
82,85.90,90.78,0
82,85.82,90.69,0
82,85.74,90.60,0
82,85.67,90.52,0
82,85.59,90.43,0
82,85.52,90.35,0
82,85.45,90.26,0
82,85.38,90.18,0
82,85.31,90.10,0
83,85.27,90.03,0
82,85.20,89.95,0
82,85.14,89.87,0
82,85.08,89.79,0
81,84.99,89.70,0
82,84.93,89.63,0
82,84.88,89.55,0
82,84.82,89.47,0
83,84.78,89.41,0
83,84.75,89.34,0
84,84.73,89.29,0
81,84.66,89.21,0
83,84.62,89.15,0
82,84.57,89.07,0
82,84.52,89.00,0
82,84.47,88.93,0
81,84.40,88.85,0
82,84.35,88.79,0
82,84.30,88.72,0
81,84.24,88.64,0
82,84.19,88.57,0
81,84.13,88.50,0
82,84.09,88.43,0
82,84.05,88.37,0
84,84.04,88.33,0
82,84.00,88.26,0
80,83.92,88.18,0
81,83.87,88.11,0
82,83.83,88.05,0
82,83.79,87.99,0
82,83.76,87.93,0
81,83.70,87.86,0
82,83.67,87.80,0
82,83.63,87.74,0
82,83.60,87.68,0
81,83.55,87.62,0
81,83.50,87.55,0
81,83.45,87.49,0
80,83.38,87.41,0
81,83.33,87.35,0
81,83.28,87.28,0
80,83.22,87.21,0
82,83.19,87.16,0
81,83.15,87.10,0
82,83.13,87.05,0
80,83.06,86.97,0
80,83.00,86.91,0
79,82.92,86.83,0
81,82.89,86.77,0
80,82.83,86.70,0
82,82.81,86.65,0
79,82.73,86.58,0
82,82.72,86.53,0
81,82.69,86.48,0
79,82.61,86.40,0
81,82.58,86.35,0
82,82.57,86.30,0
82,82.56,86.26,0
82,82.55,86.22,0
83,82.55,86.19,0
82,82.54,86.14,0
82,82.53,86.10,0
82,82.52,86.06,0
82,82.51,86.02,0
82,82.50,85.98,0
84,82.53,85.96,0
82,82.52,85.92,0
82,82.51,85.88,0
82,82.50,85.84,0
82,82.49,85.80,0
84,82.52,85.79,0
82,82.51,85.75,0
84,82.54,85.73,0
84,82.57,85.71,0
82,82.56,85.68,0
82,82.55,85.64,0
82,82.54,85.60,0
82,82.52,85.57,0
82,82.51,85.53,0
82,82.50,85.50,0
82,82.49,85.46,0
82,82.48,85.43,0
82,82.47,85.39,0
82,82.46,85.36,0
85,82.52,85.36,0
84,82.55,85.34,0
82,82.53,85.31,0
83,82.54,85.29,0
83,82.55,85.26,0
82,82.54,85.23,0
82,82.53,85.20,0
81,82.50,85.16,0
83,82.51,85.13,0
82,82.50,85.10,0
82,82.49,85.07,0
82,82.48,85.04,0
81,82.45,85.00,0
81,82.42,84.96,0
82,82.41,84.93,0
82,82.40,84.90,0
81,82.38,84.86,0
82,82.37,84.83,0
82,82.36,84.81,0
82,82.35,84.78,0
82,82.35,84.75,0
82,82.34,84.72,0
81,82.31,84.68,0
81,82.29,84.65,0
82,82.28,84.62,0
82,82.28,84.60,0
82,82.27,84.57,0
83,82.29,84.55,0
83,82.30,84.54,0
82,82.29,84.51,0
82,82.29,84.49,0
83,82.30,84.47,0
81,82.28,84.44,0
82,82.27,84.41,0
80,82.22,84.37,0
81,82.20,84.34,0
82,82.20,84.31,0
81,82.17,84.28,0
80,82.13,84.24,0
81,82.11,84.20,0
80,82.06,84.16,0
80,82.02,84.12,0
80,81.98,84.08,0
79,81.92,84.03,0
81,81.90,84.00,0
80,81.87,83.96,0
82,81.87,83.94,0
81,81.85,83.91,0
81,81.83,83.88,0
80,81.80,83.84,0
80,81.76,83.80,0
81,81.75,83.77,0
81,81.73,83.75,0
80,81.70,83.71,0
81,81.68,83.68,0
82,81.69,83.67,0
81,81.68,83.64,0
80,81.64,83.60,0
82,81.65,83.59,0
81,81.64,83.56,0
82,81.64,83.55,0
80,81.61,83.51,0
82,81.62,83.49,0
81,81.61,83.47,0
80,81.57,83.44,0
80,81.54,83.40,0
79,81.49,83.36,0
81,81.48,83.33,0
80,81.45,83.30,0
80,81.42,83.27,0
79,81.37,83.22,0
80,81.35,83.19,0
80,81.32,83.16,0
80,81.29,83.13,0
80,81.27,83.10,0
81,81.26,83.08,0
79,81.22,83.04,0
81,81.21,83.02,0
79,81.17,82.97,0
79,81.13,82.94,0
79,81.08,82.90,0
79,81.04,82.86,0
79,81.00,82.82,0
79,80.96,82.78,0
80,80.94,82.75,0
79,80.90,82.71,0
79,80.86,82.68,0
79,80.83,82.64,0
79,80.79,82.60,0
79,80.75,82.57,0
79,80.72,82.53,0
79,80.69,82.50,0
83,80.73,82.50,0
80,80.72,82.48,0
79,80.68,82.44,0
80,80.67,82.42,0
80,80.66,82.39,0
80,80.64,82.37,0
78,80.59,82.33,0
79,80.56,82.29,0
79,80.53,82.26,0
80,80.52,82.24,0
79,80.49,82.21,0
80,80.48,82.18,0
79,80.45,82.15,0
79,80.42,82.12,0
79,80.39,82.09,0
80,80.38,82.07,0
79,80.35,82.04,0
79,80.33,82.01,0
78,80.28,81.97,0
78,80.23,81.93,0
79,80.21,81.90,0
78,80.17,81.86,0
78,80.12,81.82,0
78,80.08,81.78,0
78,80.04,81.74,0
78,80.00,81.71,0
78,79.96,81.67,0
78,79.92,81.63,0
78,79.88,81.60,0
78,79.84,81.56,0
78,79.81,81.53,0
79,79.79,81.50,0
79,79.77,81.47,0
78,79.74,81.44,0
78,79.70,81.41,0
78,79.67,81.37,0
77,79.62,81.33,0
78,79.58,81.29,0
78,79.55,81.26,0
77,79.50,81.22,0
77,79.45,81.18,0
78,79.42,81.15,0
76,79.35,81.09,0
78,79.33,81.06,0
78,79.30,81.03,0
76,79.23,80.98,0
78,79.21,80.95,0
76,79.15,80.90,0
77,79.10,80.86,0
76,79.04,80.81,0
76,78.98,80.77,0
78,78.96,80.74,0
76,78.90,80.69,0
76,78.84,80.64,0
78,78.83,80.62,0
76,78.77,80.57,0
76,78.71,80.53,0
76,78.66,80.48,0
76,78.61,80.44,0
76,78.55,80.39,0
76,78.50,80.35,0
76,78.45,80.30,0
76,78.40,80.26,0
77,78.38,80.23,0
79,78.39,80.22,0
76,78.34,80.17,0
76,78.29,80.13,0
76,78.25,80.09,0
76,78.20,80.05,0
75,78.14,80.00,0
76,78.10,79.96,0
75,78.03,79.91,0
75,77.97,79.86,0
76,77.93,79.82,0
74,77.86,79.76,0
76,77.82,79.73,0
74,77.74,79.67,0
74,77.67,79.61,0
76,77.63,79.58,0
75,77.58,79.53,0
71,77.45,79.45,0
74,77.38,79.39,0
75,77.33,79.35,0
73,77.25,79.28,0
76,77.22,79.25,0
76,77.20,79.22,0
75,77.15,79.18,0
76,77.13,79.14,0
74,77.07,79.09,0
74,77.01,79.04,0
75,76.97,79.00,0
74,76.91,78.95,0
76,76.89,78.92,0
76,76.87,78.89,0
74,76.81,78.84,0
76,76.80,78.82,0
77,76.80,78.80,0
74,76.74,78.75,0
74,76.69,78.70,0
74,76.64,78.65,0
75,76.60,78.62,0
74,76.55,78.57,0
74,76.50,78.53,0
74,76.45,78.48,0
73,76.38,78.43,0
74,76.33,78.38,0
74,76.29,78.34,0
74,76.24,78.29,0
75,76.22,78.26,0
74,76.17,78.22,0
74,76.13,78.18,0
74,76.09,78.14,0
74,76.04,78.09,0
74,76.00,78.05,0
74,75.96,78.01,0
74,75.92,77.97,0
73,75.87,77.92,0
74,75.83,77.88,0
74,75.79,77.84,0
74,75.76,77.81,0
73,75.70,77.76,0
73,75.65,77.71,0
72,75.57,77.65,0
73,75.52,77.61,0
73,75.47,77.56,0
72,75.40,77.51,0
72,75.33,77.45,0
73,75.29,77.41,0
73,75.24,77.36,0
72,75.18,77.31,0
72,75.11,77.25,0
74,75.09,77.22,0
72,75.03,77.17,0
72,74.97,77.12,0
72,74.91,77.07,0
72,74.85,77.02,0
72,74.79,76.97,0
72,74.74,76.92,0
72,74.68,76.87,0
73,74.65,76.83,0
74,74.64,76.80,0
72,74.58,76.75,0
72,74.53,76.71,0
73,74.50,76.67,0
72,74.45,76.62,0
72,74.40,76.58,0
72,74.35,76.53,0
72,74.31,76.48,0
72,74.26,76.44,0
72,74.22,76.39,0
72,74.17,76.35,0
73,74.15,76.32,0
72,74.11,76.27,0
72,74.06,76.23,0
72,74.02,76.19,0
72,73.98,76.15,0
72,73.94,76.11,0
72,73.90,76.06,0
72,73.87,76.02,0
72,73.83,75.98,0
72,73.79,75.94,0
74,73.80,75.92,0
72,73.76,75.89,0
72,73.72,75.85,0
74,73.73,75.83,0
73,73.72,75.80,0
72,73.68,75.76,0
71,73.63,75.71,0
71,73.57,75.67,0
72,73.54,75.63,0
72,73.51,75.59,0
72,73.48,75.56,0
71,73.43,75.51,0
71,73.38,75.47,0
71,73.34,75.42,0
71,73.29,75.38,0
72,73.26,75.34,0
72,73.24,75.31,0
71,73.19,75.27,0
72,73.17,75.24,0
71,73.13,75.19,0
72,73.10,75.16,0
70,73.04,75.11,0
71,73.00,75.07,0
72,72.98,75.04,0
71,72.94,75.00,0
72,72.92,74.97,0
73,72.92,74.95,0
73,72.93,74.93,0
72,72.91,74.90,0
72,72.89,74.87,0
71,72.85,74.83,0
72,72.83,74.80,0
72,72.82,74.78,0
72,72.80,74.75,0
71,72.77,74.71,0
72,72.75,74.68,0
72,72.73,74.66,0
72,72.72,74.63,0
73,72.73,74.61,0
73,72.73,74.60,0
72,72.72,74.57,0
72,72.70,74.55,0
72,72.69,74.52,0
74,72.71,74.51,0
73,72.72,74.50,0
74,72.75,74.49,0
74,72.77,74.49,0
76,72.84,74.50,0
74,72.86,74.50,0
75,72.90,74.50,0
76,72.96,74.52,0
77,73.04,74.54,0
78,73.14,74.58,0
78,73.24,74.61,0
78,73.34,74.65,0
78,73.43,74.68,0
78,73.52,74.71,0
79,73.63,74.76,0
82,73.80,74.83,0
80,73.92,74.88,0
80,74.04,74.93,0
80,74.16,74.98,0
79,74.26,75.02,0
81,74.39,75.08,0
82,74.55,75.15,0
82,74.69,75.22,0
83,74.86,75.30,0
85,75.06,75.39,0
84,75.24,75.48,0
82,75.38,75.55,0
84,75.55,75.63,0
84,75.72,75.71,0
84,75.88,75.80,0
86,76.09,75.90,0
86,76.29,76.00,0
86,76.48,76.10,0
86,76.67,76.20,0
86,76.86,76.30,0
88,77.08,76.41,0
88,77.30,76.53,0
86,77.47,76.62,0
88,77.68,76.74,0
87,77.87,76.84,0
86,78.03,76.93,0
86,78.19,77.02,0
88,78.39,77.13,0
88,78.58,77.24,0
88,78.77,77.35,0
90,78.99,77.48,0
91,79.23,77.61,0
92,79.49,77.76,0
90,79.70,77.88,0
90,79.90,78.00,0
92,80.15,78.14,0
93,80.40,78.29,0
92,80.64,78.42,0
92,80.86,78.56,0
94,81.13,78.71,0
94,81.38,78.87,0
94,81.64,79.02,0
93,81.86,79.16,0
94,82.11,79.31,0
94,82.34,79.45,0
94,82.58,79.60,0
94,82.80,79.74,0
94,83.03,79.89,0
93,83.23,80.02,0
96,83.48,80.18,0
94,83.69,80.32,0
93,83.88,80.44,0
94,84.08,80.58,0
94,84.28,80.71,0
94,84.47,80.84,0
95,84.69,80.99,0
98,84.95,81.16,0
97,85.19,81.31,0
98,85.45,81.48,0
99,85.72,81.66,0
98,85.97,81.82,0
101,86.27,82.01,0
100,86.54,82.19,0
101,86.83,82.38,0
99,87.07,82.55,0
100,87.33,82.72,0
99,87.57,82.88,0
100,87.81,83.05,0
101,88.08,83.23,0
101,88.34,83.41,0
100,88.57,83.58,0
99,88.78,83.73,0
100,89.00,83.89,0
99,89.20,84.05,0
101,89.44,84.22,0
101,89.67,84.38,0
101,89.90,84.55,0
106,90.22,84.76,0
104,90.49,84.96,0
104,90.76,85.15,0
105,91.05,85.35,0
108,91.39,85.57,0
106,91.68,85.78,0
107,91.99,85.99,0
109,92.33,86.22,0
109,92.66,86.45,0
111,93.03,86.69,0
111,93.39,86.93,0
109,93.70,87.16,0
111,94.04,87.39,0
111,94.38,87.63,0
111,94.72,87.86,0
111,95.04,88.10,0
113,95.40,88.34,0
113,95.75,88.59,0
113,96.10,88.83,0
112,96.42,89.07,0
113,96.75,89.31,0
113,97.07,89.54,0
112,97.37,89.77,0
113,97.68,90.00,0
113,97.99,90.23,0
113,98.29,90.46,0
115,98.62,90.70,0
119,99.03,90.99,0
119,99.43,91.27,0
119,99.82,91.54,0
118,100.19,91.81,0
121,100.60,92.10,0
120,100.99,92.38,0
120,101.37,92.65,0
120,101.74,92.93,0
119,102.09,93.19,0
122,102.49,93.48,0
120,102.84,93.74,0
119,103.16,93.99,0
121,103.52,94.27,0
124,103.93,94.56,0
120,104.25,94.82,0
122,104.60,95.09,0
120,104.91,95.34,0
121,105.23,95.59,0
120,105.53,95.84,0
121,105.84,96.09,0
121,106.14,96.34,0
120,106.42,96.58,0
121,106.71,96.82,0
122,107.02,97.07,0
122,107.32,97.32,0
121,107.59,97.56,0
122,107.88,97.80,0
122,108.16,98.04,0
122,108.44,98.28,0
122,108.71,98.52,0
122,108.97,98.76,0
122,109.23,98.99,0
124,109.53,99.24,0
122,109.78,99.47,0
123,110.04,99.70,0
122,110.28,99.92,0
122,110.52,100.15,0
123,110.77,100.37,0
124,111.03,100.61,0
123,111.27,100.83,0
124,111.53,101.07,0
123,111.75,101.28,0
124,112.00,101.51,0
125,112.26,101.75,0
128,112.57,102.01,0
129,112.90,102.28,0
128,113.20,102.54,0
129,113.52,102.80,0
130,113.85,103.07,0
129,114.15,103.33,0
130,114.47,103.60,0
128,114.74,103.84,0
129,115.03,104.09,0
129,115.31,104.34,0
129,115.58,104.59,0
128,115.83,104.82,0
129,116.09,105.07,0
129,116.35,105.31,0
128,116.58,105.53,0
129,116.83,105.77,0
128,117.05,105.99,0
129,117.29,106.22,0
128,117.51,106.44,0
128,117.72,106.65,0
128,117.92,106.87,0
129,118.14,107.09,0
128,118.34,107.30,0
128,118.53,107.50,0
128,118.72,107.71,0
128,118.91,107.91,0
129,119.11,108.12,0
128,119.29,108.32,0
128,119.46,108.52,0
128,119.63,108.71,0
128,119.80,108.91,0
128,119.97,109.10,0
131,120.19,109.32,0
128,120.34,109.50,0
127,120.48,109.68,0
128,120.63,109.86,0
128,120.77,110.04,0
127,120.90,110.21,0
127,121.02,110.38,0
127,121.14,110.55,0
128,121.28,110.72,0
128,121.41,110.89,0
127,121.52,111.05,0
127,121.63,111.21,0
126,121.72,111.36,0
127,121.83,111.52,0
127,121.93,111.67,0
125,121.99,111.81,0
126,122.07,111.95,0
125,122.13,112.08,0
125,122.19,112.21,0
125,122.24,112.34,0
125,122.30,112.46,0
125,122.35,112.59,0
125,122.41,112.71,0
125,122.46,112.83,0
125,122.51,112.96,0
125,122.56,113.08,0
123,122.57,113.18,0
125,122.62,113.29,0
124,122.64,113.40,0
124,122.67,113.51,0
124,122.70,113.61,0
123,122.70,113.71,0
124,122.73,113.81,0
123,122.73,113.90,0
125,122.78,114.01,0
123,122.78,114.10,0
124,122.81,114.20,0
123,122.81,114.29,0
123,122.82,114.38,0
123,122.82,114.46,0
123,122.82,114.55,0
121,122.79,114.61,0
121,122.75,114.68,0
121,122.72,114.74,0
122,122.70,114.81,0
122,122.69,114.88,0
122,122.67,114.95,0
121,122.64,115.02,0
121,122.61,115.08,0
121,122.58,115.13,0
121,122.54,115.19,0
121,122.51,115.25,0
121,122.48,115.31,0
121,122.45,115.37,0
120,122.40,115.41,0
124,122.44,115.50,0
120,122.39,115.54,0
121,122.36,115.60,0
119,122.29,115.63,0
119,122.23,115.67,0
120,122.18,115.71,0
120,122.14,115.75,0
119,122.08,115.78,0
119,122.01,115.82,0
119,121.95,115.85,0
119,121.89,115.88,0
119,121.84,115.91,0
119,121.78,115.94,0
118,121.70,115.96,0
118,121.63,115.98,0
117,121.54,115.99,0
114,121.39,115.97,0
119,121.34,116.00,0
117,121.25,116.01,0
117,121.17,116.02,0
117,121.08,116.03,0
118,121.02,116.05,0
117,120.94,116.06,0
116,120.84,116.06,0
116,120.75,116.06,0
116,120.65,116.06,0
116,120.56,116.06,0
115,120.45,116.05,0
115,120.34,116.04,0
115,120.23,116.03,0
115,120.13,116.02,0
115,120.02,116.01,0
116,119.94,116.01,0
115,119.84,116.00,0
116,119.77,116.00,0
115,119.67,115.99,0
114,119.56,115.97,0
114,119.45,115.95,0
115,119.36,115.94,0
113,119.23,115.91,0
114,119.13,115.89,0
113,119.00,115.86,0
113,118.88,115.83,0
113,118.77,115.80,0
111,118.61,115.76,0
113,118.50,115.73,0
113,118.39,115.70,0
113,118.28,115.67,0
112,118.16,115.64,0
113,118.05,115.61,0
112,117.93,115.57,0
111,117.79,115.53,0
111,117.66,115.48,0
111,117.52,115.44,0
111,117.39,115.39,0
111,117.27,115.35,0
111,117.14,115.31,0
111,117.02,115.26,0
109,116.86,115.20,0
111,116.74,115.16,0
111,116.63,115.12,0
111,116.51,115.08,0
111,116.40,115.04,0
110,116.27,114.99,0
111,116.17,114.95,0
109,116.03,114.89,0
109,115.89,114.83,0
109,115.75,114.77,0
109,115.61,114.71,0
110,115.50,114.66,0
109,115.37,114.61,0
109,115.24,114.55,0
110,115.14,114.51,0
109,115.02,114.45,0
109,114.89,114.40,0
109,114.78,114.34,0
109,114.66,114.29,0
109,114.55,114.24,0
108,114.42,114.17,0
108,114.29,114.11,0
106,114.12,114.03,0
108,114.00,113.97,0
107,113.86,113.90,0
108,113.74,113.84,0
107,113.61,113.77,0
107,113.48,113.71,0
107,113.35,113.64,0
107,113.22,113.57,0
106,113.08,113.50,0
107,112.95,113.43,0
105,112.80,113.35,0
105,112.64,113.26,0
106,112.51,113.19,0
106,112.38,113.12,0
107,112.27,113.06,0
105,112.12,112.98,0
105,111.98,112.90,0
105,111.84,112.82,0
105,111.70,112.74,0
105,111.57,112.66,0
105,111.44,112.59,0
105,111.31,112.51,0
105,111.18,112.44,0
104,111.04,112.35,0
105,110.92,112.28,0
104,110.78,112.19,0
105,110.67,112.12,0
104,110.53,112.04,0
104,110.40,111.96,0
104,110.27,111.88,0
102,110.11,111.78,0
103,109.97,111.70,0
103,109.83,111.61,0
104,109.71,111.53,0
103,109.58,111.45,0
103,109.44,111.36,0
103,109.32,111.28,0
101,109.15,111.18,0
102,109.01,111.08,0
101,108.85,110.98,0
101,108.69,110.88,0
101,108.54,110.78,0
101,108.38,110.69,0
103,108.28,110.61,0
102,108.15,110.52,0
102,108.03,110.44,0
101,107.89,110.34,0
102,107.77,110.26,0
101,107.63,110.17,0
101,107.50,110.08,0
101,107.37,109.99,0
100,107.22,109.89,0
101,107.10,109.80,0
100,106.96,109.70,0
100,106.82,109.60,0
99,106.66,109.50,0
99,106.51,109.39,0
100,106.38,109.30,0
100,106.25,109.20,0
99,106.11,109.10,0
99,105.96,109.00,0
100,105.85,108.91,0
99,105.71,108.81,0
100,105.59,108.72,0
100,105.48,108.64,0
98,105.33,108.53,0
99,105.21,108.43,0
96,105.02,108.31,0
98,104.88,108.21,0
98,104.74,108.11,0
98,104.61,108.00,0
98,104.48,107.90,0
98,104.35,107.81,0
98,104.22,107.71,0
98,104.10,107.61,0
99,103.99,107.52,0
98,103.87,107.43,0
97,103.74,107.32,0
98,103.62,107.23,0
98,103.51,107.14,0
97,103.38,107.04,0
97,103.25,106.94,0
97,103.13,106.84,0
97,103.00,106.74,0
98,102.90,106.65,0
96,102.77,106.55,0
96,102.63,106.44,0
96,102.50,106.34,0
96,102.37,106.23,0
95,102.22,106.12,0
96,102.10,106.02,0
96,101.97,105.92,0
96,101.85,105.82,0
96,101.74,105.72,0
96,101.62,105.62,0
95,101.49,105.52,0
96,101.38,105.42,0
95,101.25,105.32,0
95,101.13,105.22,0
95,101.01,105.11,0
95,100.89,105.01,0
94,100.75,104.90,0
94,100.61,104.79,0
96,100.52,104.70,0
94,100.39,104.60,0
95,100.28,104.50,0
94,100.16,104.40,0
95,100.05,104.30,0
94,99.93,104.20,0
94,99.81,104.10,0
94,99.70,104.00,0
93,99.56,103.89,0
93,99.43,103.78,0
91,99.26,103.65,0
93,99.14,103.54,0
95,99.06,103.46,0
93,98.93,103.35,0
93,98.82,103.25,0
93,98.70,103.15,0
93,98.59,103.05,0
93,98.47,102.95,0
93,98.36,102.85,0
92,98.24,102.74,0
93,98.13,102.64,0
92,98.01,102.53,0
92,97.89,102.43,0
93,97.79,102.33,0
92,97.68,102.23,0
92,97.56,102.13,0
93,97.47,102.04,0
92,97.36,101.94,0
91,97.23,101.83,0
92,97.13,101.73,0
92,97.03,101.63,0
93,96.95,101.55,0
93,96.87,101.46,0
92,96.77,101.37,0
91,96.65,101.26,0
92,96.56,101.17,0
94,96.51,101.10,0
92,96.42,101.01,0
92,96.33,100.92,0
91,96.23,100.82,0
91,96.12,100.72,0
91,96.02,100.62,0
92,95.94,100.54,0
95,95.92,100.48,0
91,95.82,100.39,0
91,95.72,100.29,0
92,95.65,100.21,0
92,95.58,100.13,0
87,95.41,100.00,0
91,95.32,99.91,0
90,95.21,99.81,0
90,95.11,99.71,0
90,95.00,99.61,0
90,94.90,99.52,0
90,94.81,99.42,0
90,94.71,99.33,0
94,94.70,99.27,0
90,94.60,99.18,0
90,94.51,99.09,0
90,94.42,99.00,0
90,94.33,98.91,0
90,94.24,98.82,0
90,94.16,98.73,0
90,94.08,98.64,0
90,94.00,98.56,0
88,93.88,98.45,0
90,93.80,98.37,0
88,93.68,98.26,0
89,93.59,98.17,0
90,93.52,98.09,0
88,93.41,97.99,0
90,93.34,97.91,0
88,93.23,97.81,0
88,93.13,97.71,0
90,93.06,97.63,0
89,92.98,97.55,0
88,92.88,97.45,0
88,92.79,97.36,0
89,92.71,97.27,0
88,92.62,97.18,0
89,92.54,97.10,0
90,92.49,97.03,0
88,92.40,96.94,0
88,92.31,96.85,0
88,92.23,96.76,0
90,92.18,96.69,0
88,92.10,96.61,0
88,92.02,96.52,0
88,91.94,96.43,0
88,91.86,96.35,0
88,91.78,96.27,0
87,91.69,96.17,0
86,91.57,96.07,0
87,91.48,95.98,0
88,91.41,95.90,0
87,91.32,95.81,0
86,91.22,95.71,0
89,91.17,95.65,0
86,91.07,95.55,0
87,90.99,95.47,0
86,90.89,95.37,0
87,90.81,95.29,0
88,90.75,95.21,0
86,90.66,95.12,0
87,90.59,95.04,0
86,90.49,94.95,0
86,90.40,94.86,0
86,90.32,94.77,0
88,90.27,94.70,0
88,90.22,94.64,0
86,90.14,94.55,0
86,90.06,94.47,0
86,89.98,94.38,0
86,89.90,94.30,0
86,89.82,94.21,0
86,89.74,94.13,0
87,89.69,94.06,0
85,89.59,93.97,0
85,89.50,93.88,0
84,89.39,93.78,0
87,89.34,93.71,0
86,89.28,93.64,0
84,89.17,93.54,0
85,89.09,93.45,0
85,89.01,93.37,0
84,88.91,93.28,0
84,88.81,93.18,0
84,88.71,93.09,0
85,88.64,93.01,0
84,88.54,92.92,0
84,88.45,92.83,0
84,88.36,92.74,0
84,88.28,92.66,0
84,88.19,92.57,0
84,88.11,92.48,0
84,88.03,92.40,0
85,87.97,92.32,0
83,87.87,92.23,0
82,87.75,92.13,0
84,87.67,92.05,0
84,87.60,91.97,0
83,87.51,91.88,0
83,87.42,91.79,0
84,87.35,91.71,0
83,87.26,91.62,0
83,87.18,91.54,0
82,87.07,91.44,0
83,86.99,91.36,0
83,86.91,91.27,0
83,86.83,91.19,0
84,86.78,91.12,0
83,86.70,91.04,0
83,86.63,90.96,0
82,86.54,90.87,0
82,86.44,90.78,0
83,86.38,90.70,0
83,86.31,90.62,0
82,86.22,90.54,0
82,86.14,90.45,0
84,86.10,90.39,0
82,86.01,90.30,0
82,85.93,90.22,0
82,85.85,90.14,0
82,85.78,90.06,0
82,85.70,89.98,0
83,85.65,89.91,0
82,85.57,89.83,0
82,85.50,89.75,0
82,85.43,89.67,0
82,85.36,89.60,0
82,85.30,89.52,0
85,85.29,89.48,0
82,85.23,89.40,0
82,85.16,89.33,0
81,85.08,89.24,0
81,85.00,89.16,0
81,84.92,89.08,0
80,84.82,88.99,0
82,84.76,88.92,0
79,84.65,88.82,0
80,84.55,88.73,0
80,84.46,88.64,0
82,84.41,88.58,0
81,84.34,88.50,0
80,84.26,88.42,0
80,84.17,88.33,0
80,84.09,88.25,0
80,84.01,88.17,0
80,83.93,88.08,0
81,83.87,88.01,0
80,83.79,87.93,0
80,83.72,87.85,0
81,83.66,87.79,0
79,83.57,87.70,0
80,83.50,87.62,0
79,83.41,87.53,0
80,83.34,87.46,0
80,83.27,87.38,0
80,83.21,87.31,0
80,83.14,87.24,0
80,83.08,87.17,0
80,83.02,87.09,0
80,82.96,87.02,0
80,82.90,86.95,0
81,82.86,86.89,0
80,82.80,86.82,0
79,82.73,86.75,0
79,82.65,86.67,0
79,82.58,86.59,0
79,82.51,86.52,0
78,82.42,86.43,0
78,82.33,86.35,0
79,82.26,86.27,0
79,82.20,86.20,0
78,82.11,86.12,0
78,82.03,86.04,0
77,81.93,85.95,0
78,81.85,85.87,0
78,81.78,85.79,0
78,81.70,85.71,0
79,81.65,85.64,0
78,81.57,85.57,0
78,81.50,85.49,0
78,81.43,85.42,0
77,81.34,85.33,0
78,81.28,85.26,0
78,81.21,85.19,0
78,81.15,85.11,0
77,81.06,85.03,0
78,81.00,84.96,0
78,80.94,84.89,0
78,80.88,84.82,0
77,80.81,84.75,0
78,80.75,84.68,0
76,80.65,84.59,0
78,80.60,84.53,0
77,80.53,84.45,0
76,80.44,84.37,0
76,80.35,84.28,0
78,80.30,84.22,0
77,80.24,84.15,0
76,80.15,84.07,0
76,80.07,83.99,0
78,80.03,83.93,0
77,79.97,83.86,0
76,79.89,83.78,0
76,79.81,83.70,0
76,79.73,83.62,0
76,79.66,83.55,0
78,79.63,83.49,0
77,79.57,83.43,0
76,79.50,83.35,0
75,79.41,83.27,0
76,79.34,83.20,0
76,79.28,83.12,0
76,79.21,83.05,0
76,79.15,82.98,0
76,79.08,82.91,0
77,79.04,82.85,0
76,78.98,82.78,0
76,78.92,82.72,0
78,78.90,82.67,0
76,78.85,82.60,0
76,78.79,82.54,0
75,78.71,82.46,0
76,78.66,82.40,0
76,78.61,82.33,0
76,78.55,82.27,0
75,78.48,82.20,0
74,78.39,82.12,0
75,78.32,82.04,0
76,78.28,81.98,0
75,78.21,81.91,0
75,78.15,81.84,0
76,78.11,81.79,0
75,78.04,81.72,0
76,78.00,81.66,0
76,77.96,81.60,0
74,77.88,81.53,0
76,77.85,81.47,0
76,77.81,81.42,0
76,77.77,81.36,0
76,77.74,81.31,0
76,77.70,81.26,0
78,77.71,81.22,0
77,77.69,81.18,0
78,77.70,81.15,0
76,77.67,81.10,0
78,77.67,81.07,0
76,77.64,81.02,0
76,77.61,80.97,0
77,77.59,80.93,0
77,77.58,80.89,0
76,77.55,80.84,0
76,77.52,80.79,0
77,77.51,80.75,0
79,77.54,80.74,0
78,77.55,80.71,0
78,77.56,80.68,0
78,77.57,80.65,0
79,77.59,80.64,0
79,77.62,80.62,0
79,77.65,80.61,0
79,77.68,80.59,0
81,77.74,80.59,0
79,77.77,80.58,0
80,77.81,80.57,0
78,77.82,80.55,0
80,77.86,80.54,0
80,77.90,80.54,0
80,77.95,80.53,0
80,77.99,80.52,0
80,78.03,80.52,0
80,78.07,80.51,0
80,78.11,80.51,0
80,78.14,80.50,0
80,78.18,80.50,0
80,78.22,80.49,0
80,78.25,80.49,0
80,78.29,80.48,0
80,78.32,80.48,0
79,78.34,80.46,0
80,78.37,80.46,0
79,78.38,80.45,0
79,78.39,80.43,0
79,78.41,80.42,0
78,78.40,80.39,0
80,78.43,80.39,0
80,78.46,80.38,0
78,78.45,80.36,0
78,78.44,80.34,0
79,78.45,80.32,0
79,78.46,80.31,0
78,78.46,80.29,0
78,78.45,80.26,0
79,78.46,80.25,0
79,78.47,80.24,0
79,78.48,80.23,0
78,78.47,80.20,0
79,78.48,80.19,0
79,78.49,80.18,0
78,78.48,80.16,0
78,78.47,80.14,0
78,78.46,80.12,0
79,78.47,80.10,0
78,78.46,80.08,0
78,78.45,80.06,0
78,78.44,80.04,0
78,78.44,80.02,0
78,78.43,80.00,0
79,78.44,79.99,0
78,78.43,79.97,0
78,78.42,79.95,0
75,78.35,79.90,0
78,78.35,79.88,0
77,78.32,79.85,0
78,78.31,79.84,0
78,78.31,79.82,0
76,78.26,79.78,0
77,78.23,79.75,0
76,78.19,79.71,0
78,78.19,79.70,0
78,78.18,79.68,0
77,78.16,79.65,0
78,78.16,79.64,0
80,78.19,79.64,0
78,78.19,79.62,0
78,78.18,79.61,0
76,78.14,79.57,0
79,78.16,79.57,0
78,78.16,79.55,0
78,78.15,79.53,0
78,78.15,79.52,0
77,78.13,79.49,0
78,78.12,79.48,0
78,78.12,79.46,0
78,78.12,79.45,0
78,78.12,79.44,0
78,78.11,79.42,0
78,78.11,79.41,0
79,78.13,79.40,0
79,78.15,79.40,0
78,78.14,79.38,0
79,78.16,79.38,0
81,78.22,79.40,0
78,78.21,79.38,0
78,78.21,79.37,0
78,78.21,79.36,0
79,78.22,79.35,0
78,78.22,79.34,0
78,78.21,79.33,0
78,78.21,79.31,0
79,78.22,79.31,0
78,78.22,79.30,0
78,78.21,79.28,0
78,78.21,79.27,0
78,78.21,79.26,0
78,78.20,79.24,0
78,78.20,79.23,0
78,78.19,79.22,0
77,78.17,79.20,0
78,78.17,79.19,0
76,78.12,79.15,0
77,78.10,79.13,0
77,78.08,79.11,0
77,78.06,79.09,0
78,78.06,79.08,0
78,78.06,79.07,0
78,78.05,79.06,0
77,78.03,79.04,0
76,77.99,79.01,0
76,77.95,78.98,0
77,77.93,78.96,0
76,77.89,78.93,0
76,77.86,78.90,0
77,77.84,78.88,0
77,77.82,78.86,0
75,77.77,78.82,0
76,77.73,78.79,0
78,77.74,78.79,0
78,77.74,78.78,0
76,77.71,78.75,0
77,77.69,78.73,0
78,77.70,78.72,0
77,77.69,78.71,0
76,77.65,78.68,0
76,77.62,78.65,0
78,77.63,78.65,0
78,77.63,78.64,0
76,77.60,78.61,0
76,77.57,78.59,0
76,77.54,78.56,0
77,77.53,78.55,0
78,77.54,78.54,0
76,77.51,78.52,0
78,77.52,78.51,0
78,77.52,78.51,0
76,77.49,78.48,0
76,77.46,78.46,0
78,77.48,78.45,0
76,77.45,78.43,0
78,77.46,78.42,0
77,77.45,78.41,0
76,77.42,78.38,0
76,77.39,78.36,0
76,77.36,78.34,0
76,77.34,78.31,0
76,77.31,78.29,0
76,77.28,78.27,0
76,77.26,78.24,0
76,77.23,78.22,0
76,77.21,78.20,0
78,77.22,78.20,0
76,77.20,78.18,0
76,77.17,78.15,0
77,77.17,78.14,0
76,77.15,78.12,0
77,77.14,78.11,0
78,77.16,78.11,0
76,77.14,78.09,0
76,77.12,78.07,0
76,77.09,78.05,0
76,77.07,78.03,0
76,77.05,78.01,0
76,77.03,77.99,0
77,77.03,77.98,0
76,77.01,77.96,0
76,76.99,77.94,0
75,76.95,77.91,0
76,76.93,77.89,0
76,76.91,77.87,0
75,76.87,77.84,0
76,76.85,77.82,0
76,76.84,77.80,0
76,76.82,77.79,0
75,76.78,77.76,0
76,76.77,77.74,0
75,76.73,77.71,0
74,76.68,77.68,0
74,76.63,77.64,0
75,76.59,77.61,0
76,76.58,77.60,0
75,76.55,77.57,0
74,76.50,77.53,0
76,76.49,77.52,0
74,76.44,77.48,0
74,76.39,77.45,0
74,76.34,77.41,0
76,76.34,77.40,0
74,76.29,77.37,0
74,76.24,77.33,0
74,76.20,77.30,0
74,76.15,77.27,0
74,76.11,77.23,0
74,76.07,77.20,0
74,76.03,77.17,0
74,75.99,77.14,0
74,75.95,77.11,0
74,75.91,77.08,0
74,75.87,77.04,0
75,75.85,77.02,0
74,75.82,76.99,0
74,75.78,76.96,0
74,75.74,76.93,0
75,75.73,76.92,0
76,75.73,76.91,0
74,75.70,76.88,0
74,75.67,76.85,0
74,75.63,76.82,0
74,75.60,76.79,0
74,75.57,76.76,0
74,75.54,76.74,0
75,75.53,76.72,0
74,75.49,76.69,0
74,75.47,76.66,0
76,75.48,76.66,0
74,75.45,76.63,0
74,75.42,76.60,0
74,75.39,76.58,0
74,75.36,76.55,0
74,75.33,76.53,0
74,75.31,76.50,0
74,75.28,76.48,0
74,75.26,76.45,0
74,75.23,76.43,0
74,75.21,76.40,0
76,75.22,76.40,0
73,75.18,76.37,0
74,75.15,76.34,0
72,75.09,76.30,0
73,75.05,76.27,0
74,75.03,76.24,0
71,74.95,76.19,0
74,74.93,76.17,0
73,74.89,76.14,0
72,74.83,76.10,0
72,74.78,76.05,0
72,74.72,76.01,0
74,74.71,75.99,0
73,74.67,75.96,0
74,74.66,75.94,0
72,74.60,75.90,0
74,74.59,75.89,0
73,74.56,75.86,0
73,74.53,75.83,0
74,74.52,75.81,0
74,74.51,75.79,0
73,74.48,75.76,0
71,74.41,75.72,0
73,74.38,75.69,0
72,74.33,75.65,0
72,74.29,75.62,0
74,74.28,75.60,0
73,74.26,75.57,0
72,74.21,75.54,0
72,74.17,75.50,0
75,74.18,75.50,0
72,74.14,75.46,0
72,74.10,75.43,0
71,74.03,75.38,0
74,74.03,75.37,0
72,73.99,75.34,0
72,73.95,75.30,0
72,73.91,75.27,0
73,73.90,75.25,0
74,73.90,75.23,0
72,73.86,75.20,0
71,73.80,75.16,0
72,73.77,75.13,0
72,73.73,75.10,0
73,73.72,75.08,0
72,73.68,75.05,0
72,73.65,75.02,0
72,73.62,74.99,0
72,73.58,74.96,0
72,73.55,74.93,0
72,73.52,74.90,0
72,73.49,74.87,0
72,73.46,74.84,0
72,73.43,74.81,0
72,73.40,74.78,0
73,73.39,74.76,0
72,73.37,74.74,0
72,73.34,74.71,0
72,73.31,74.68,0
72,73.29,74.66,0
72,73.26,74.63,0
72,73.24,74.60,0
73,73.23,74.59,0
73,73.23,74.57,0
72,73.20,74.55,0
72,73.18,74.52,0
73,73.17,74.50,0
72,73.15,74.48,0
72,73.13,74.45,0
74,73.14,74.45,0
73,73.14,74.44,0
72,73.12,74.41,0
72,73.10,74.39,0
74,73.11,74.38,0
73,73.11,74.37,0
73,73.11,74.36,0
74,73.13,74.35,0
72,73.11,74.33,0
75,73.14,74.34,0
74,73.16,74.33,0
74,73.18,74.33,0
74,73.19,74.33,0
74,73.21,74.32,0
74,73.23,74.32,0
74,73.24,74.32,0
74,73.26,74.31,0
74,73.27,74.31,0
74,73.29,74.31,0
74,73.30,74.30,0
74,73.31,74.30,0
74,73.33,74.30,0
74,73.34,74.29,0
76,73.39,74.31,0
74,73.41,74.31,0
74,73.42,74.31,0
74,73.43,74.30,0
76,73.48,74.32,0
75,73.51,74.33,0
74,73.52,74.32,0
74,73.53,74.32,0
74,73.54,74.32,0
76,73.59,74.33,0
74,73.60,74.33,0
78,73.69,74.37,0
76,73.73,74.38,0
79,73.84,74.43,0
74,73.84,74.42,0
78,73.92,74.46,0
74,73.93,74.46,0
77,73.99,74.48,0
76,74.03,74.50,0
76,74.07,74.51,0
76,74.11,74.53,0
79,74.20,74.57,0
78,74.28,74.61,0
77,74.33,74.63,0
78,74.41,74.66,0
77,74.46,74.69,0
78,74.53,74.72,0
77,74.58,74.74,0
77,74.63,74.76,0
75,74.64,74.77,0
76,74.66,74.78,0
77,74.71,74.80,0
78,74.77,74.83,0
78,74.84,74.87,0
77,74.88,74.89,0
77,74.92,74.91,0
76,74.95,74.92,0
74,74.93,74.91,0
79,75.01,74.95,0
78,75.07,74.98,0
76,75.09,74.99,0
76,75.11,75.00,0
77,75.14,75.02,0
77,75.18,75.04,0
78,75.24,75.07,0
78,75.29,75.10,0
77,75.33,75.12,0
77,75.36,75.14,0
77,75.39,75.16,0
78,75.44,75.18,0
80,75.54,75.23,0
80,75.63,75.28,0
79,75.69,75.32,0
78,75.74,75.34,0
79,75.80,75.38,0
80,75.89,75.43,0
79,75.95,75.46,0
77,75.97,75.48,0
79,76.03,75.51,0
80,76.11,75.56,0
80,76.19,75.60,0
82,76.31,75.67,0
82,76.42,75.73,0
82,76.53,75.79,0
82,76.64,75.86,0
80,76.71,75.90,0
81,76.79,75.95,0
81,76.88,76.00,0
84,77.02,76.08,0
84,77.16,76.16,0
84,77.30,76.24,0
84,77.43,76.31,0
84,77.56,76.39,0
83,77.67,76.46,0
84,77.80,76.53,0
83,77.90,76.60,0
82,77.98,76.65,0
84,78.10,76.72,0
83,78.20,76.79,0
84,78.32,76.86,0
84,78.43,76.93,0
88,78.62,77.04,0
86,78.77,77.13,0
86,78.91,77.22,0
86,79.06,77.31,0
86,79.20,77.39,0
89,79.39,77.51,0
88,79.56,77.61,0
88,79.73,77.72,0
88,79.90,77.82,0
90,80.10,77.94,0
89,80.28,78.05,0
88,80.43,78.15,0
90,80.62,78.27,0
88,80.77,78.37,0
90,80.96,78.49,0
88,81.10,78.58,0
91,81.29,78.70,0
91,81.49,78.83,0
90,81.66,78.94,0
92,81.87,79.07,0
92,82.07,79.20,0
92,82.27,79.33,0
92,82.46,79.45,0
93,82.67,79.59,0
93,82.88,79.72,0
92,83.06,79.85,0
92,83.24,79.97,0
94,83.46,80.11,0
93,83.65,80.24,0
92,83.81,80.35,0
93,84.00,80.48,0
92,84.16,80.60,0
93,84.33,80.72,0
94,84.53,80.85,0
93,84.70,80.97,0
94,84.88,81.11,0
96,85.11,81.25,0
95,85.30,81.39,0
96,85.52,81.54,0
96,85.73,81.68,0
97,85.95,81.84,0
99,86.21,82.01,0
100,86.49,82.19,0
98,86.72,82.35,0
99,86.96,82.51,0
99,87.21,82.68,0
99,87.44,82.84,0
99,87.67,83.00,0
100,87.92,83.17,0
100,88.16,83.34,0
101,88.42,83.52,0
100,88.65,83.68,0
97,88.82,83.81,0
101,89.06,83.99,0
101,89.30,84.16,0
101,89.53,84.32,0
100,89.74,84.48,0
99,89.93,84.63,0
98,90.09,84.76,0
100,90.29,84.91,0
100,90.48,85.06,0
100,90.67,85.21,0
101,90.88,85.37,0
102,91.10,85.54,0
104,91.36,85.72,0
104,91.61,85.90,0
102,91.82,86.07,0
104,92.06,86.24,0
104,92.30,86.42,0
104,92.54,86.60,0
105,92.78,86.78,0
106,93.05,86.97,0
105,93.29,87.15,0
105,93.52,87.33,0
105,93.75,87.51,0
110,94.08,87.73,0
105,94.30,87.91,0
105,94.51,88.08,0
105,94.72,88.25,0
105,94.92,88.42,0
105,95.13,88.58,0
106,95.34,88.76,0
107,95.58,88.94,0
107,95.81,89.12,0
108,96.05,89.31,0
107,96.27,89.48,0
106,96.46,89.65,0
106,96.65,89.81,0
105,96.82,89.96,0
108,97.04,90.14,0
107,97.24,90.31,0
107,97.44,90.48,0
109,97.67,90.67,0
107,97.86,90.83,0
107,98.04,90.99,0
108,98.24,91.16,0
107,98.41,91.32,0
107,98.59,91.48,0
107,98.75,91.63,0
109,98.96,91.80,0
107,99.12,91.96,0
109,99.32,92.13,0
107,99.47,92.28,0
108,99.64,92.43,0
109,99.83,92.60,0
109,100.01,92.76,0
109,100.19,92.93,0
109,100.37,93.09,0
109,100.54,93.25,0
109,100.71,93.40,0
108,100.86,93.55,0
110,101.04,93.71,0
109,101.20,93.87,0
109,101.35,94.02,0
109,101.51,94.17,0
110,101.68,94.33,0
109,101.82,94.47,0
109,101.97,94.62,0
110,102.13,94.77,0
108,102.24,94.90,0
110,102.40,95.05,0
108,102.51,95.18,0
109,102.64,95.32,0
110,102.79,95.47,0
109,102.91,95.60,0
110,103.05,95.75,0
110,103.19,95.89,0
108,103.29,96.01,0
109,103.40,96.14,0
109,103.52,96.27,0
109,103.63,96.40,0
110,103.75,96.53,0
111,103.90,96.68,0
108,103.98,96.79,0
111,104.12,96.93,0
110,104.24,97.06,0
111,104.37,97.20,0
112,104.53,97.35,0
110,104.64,97.48,0
111,104.76,97.61,0
111,104.89,97.75,0
110,104.99,97.87,0
111,105.11,98.00,0
112,105.25,98.14,0
111,105.36,98.27,0
110,105.46,98.39,0
111,105.57,98.51,0
111,105.67,98.64,0
111,105.78,98.76,0
111,105.89,98.88,0
113,106.03,99.03,0
114,106.19,99.17,0
113,106.32,99.31,0
113,106.46,99.45,0
114,106.61,99.60,0
114,106.76,99.74,0
114,106.90,99.88,0
114,107.04,100.02,0
112,107.14,100.14,0
114,107.28,100.28,0
115,107.43,100.43,0
116,107.60,100.58,0
115,107.75,100.73,0
115,107.90,100.87,0
115,108.04,101.01,0
120,108.28,101.20,0
119,108.49,101.38,0
117,108.66,101.54,0
118,108.85,101.70,0
119,109.05,101.87,0
119,109.25,102.05,0
120,109.47,102.23,0
115,109.58,102.35,0
119,109.77,102.52,0
117,109.91,102.66,0
119,110.09,102.83,0
119,110.27,102.99,0
120,110.47,103.16,0
119,110.64,103.32,0
118,110.78,103.46,0
119,110.95,103.62,0
119,111.11,103.77,0
120,111.29,103.94,0
119,111.44,104.09,0
119,111.59,104.24,0
119,111.74,104.38,0
120,111.91,104.54,0
119,112.05,104.68,0
119,112.19,104.83,0
117,112.28,104.95,0
117,112.38,105.07,0
117,112.47,105.19,0
118,112.58,105.32,0
118,112.69,105.44,0
118,112.79,105.57,0
117,112.88,105.68,0
117,112.96,105.80,0
117,113.04,105.91,0
118,113.14,106.03,0
117,113.22,106.14,0
118,113.31,106.26,0
118,113.41,106.38,0
117,113.48,106.48,0
119,113.59,106.61,0
117,113.66,106.71,0
117,113.72,106.81,0
117,113.79,106.92,0
117,113.85,107.02,0
117,113.92,107.12,0
117,113.98,107.22,0
117,114.04,107.31,0
117,114.10,107.41,0
117,114.16,107.51,0
116,114.19,107.59,0
115,114.21,107.66,0
115,114.23,107.74,0
116,114.26,107.82,0
115,114.28,107.89,0
115,114.29,107.96,0
115,114.30,108.03,0
117,114.36,108.12,0
115,114.37,108.19,0
115,114.38,108.26,0
113,114.36,108.31,0
115,114.37,108.37,0
116,114.40,108.45,0
116,114.43,108.53,0
112,114.39,108.56,0
114,114.38,108.62,0
113,114.35,108.66,0
113,114.32,108.70,0
115,114.34,108.77,0
113,114.31,108.81,0
114,114.30,108.86,0
114,114.30,108.91,0
113,114.27,108.95,0
113,114.25,108.99,0
115,114.26,109.05,0
113,114.24,109.09,0
113,114.21,109.13,0
111,114.15,109.15,0
112,114.10,109.18,0
113,114.08,109.22,0
113,114.06,109.25,0
112,114.02,109.28,0
112,113.98,109.31,0
111,113.92,109.33,0
112,113.88,109.35,0
111,113.82,109.37,0
111,113.77,109.39,0
111,113.71,109.40,0
111,113.66,109.42,0
112,113.62,109.44,0
110,113.55,109.45,0
111,113.50,109.46,0
111,113.45,109.48,0
110,113.38,109.49,0
111,113.33,109.50,0
110,113.27,109.51,0
110,113.20,109.51,0
110,113.14,109.52,0
109,113.06,109.51,0
109,112.97,109.51,0
109,112.89,109.50,0
110,112.84,109.51,0
110,112.78,109.51,0
106,112.64,109.47,0
109,112.57,109.47,0
109,112.50,109.47,0
109,112.43,109.46,0
109,112.36,109.46,0
109,112.29,109.45,0
109,112.23,109.45,0
108,112.14,109.43,0
107,112.04,109.41,0
109,111.98,109.40,0
108,111.90,109.39,0
108,111.82,109.38,0
108,111.75,109.36,0
107,111.65,109.34,0
108,111.58,109.33,0
107,111.49,109.30,0
107,111.40,109.28,0
107,111.31,109.26,0
107,111.22,109.23,0
107,111.14,109.21,0
105,111.02,109.17,0
107,110.94,109.15,0
106,110.84,109.12,0
106,110.74,109.09,0
106,110.64,109.05,0
105,110.53,109.01,0
107,110.46,108.99,0
105,110.35,108.95,0
105,110.25,108.91,0
105,110.14,108.87,0
105,110.04,108.84,0
106,109.96,108.81,0
105,109.86,108.77,0
105,109.76,108.73,0
105,109.67,108.69,0
105,109.57,108.66,0
104,109.46,108.61,0
104,109.35,108.57,0
104,109.24,108.52,0
104,109.14,108.47,0
104,109.04,108.43,0
105,108.96,108.40,0
103,108.84,108.34,0
104,108.74,108.30,0
103,108.63,108.24,0
103,108.51,108.19,0
103,108.40,108.14,0
104,108.31,108.10,0
103,108.21,108.05,0
103,108.10,108.00,0
103,108.00,107.95,0
102,107.88,107.89,0
103,107.78,107.84,0
101,107.65,107.77,0
102,107.54,107.71,0
99,107.36,107.63,0
102,107.26,107.57,0
102,107.15,107.51,0
101,107.03,107.45,0
101,106.91,107.38,0
101,106.79,107.32,0
101,106.67,107.26,0
101,106.56,107.19,0
102,106.47,107.14,0
101,106.36,107.08,0
100,106.23,107.01,0
101,106.13,106.95,0
100,106.01,106.88,0
100,105.89,106.81,0
101,105.79,106.75,0
100,105.67,106.69,0
100,105.56,106.62,0
100,105.45,106.55,0
99,105.32,106.48,0
100,105.21,106.41,0
99,105.09,106.34,0
99,104.97,106.27,0
99,104.85,106.19,0
98,104.71,106.11,0
98,104.58,106.03,0
98,104.44,105.95,0
100,104.36,105.89,0
98,104.23,105.81,0
97,104.08,105.72,0
98,103.96,105.65,0
99,103.86,105.58,0
98,103.75,105.50,0
97,103.61,105.42,0
98,103.50,105.34,0
97,103.37,105.26,0
96,103.22,105.17,0
97,103.10,105.09,0
96,102.95,105.00,0
96,102.82,104.91,0
96,102.68,104.82,0
96,102.55,104.73,0
97,102.44,104.65,0
96,102.31,104.56,0
96,102.18,104.48,0
96,102.06,104.39,0
96,101.94,104.31,0
96,101.82,104.23,0
96,101.70,104.15,0
95,101.57,104.05,0
95,101.44,103.96,0
96,101.33,103.88,0
96,101.22,103.80,0
96,101.12,103.73,0
95,100.99,103.64,0
94,100.85,103.54,0
96,100.76,103.47,0
95,100.64,103.38,0
95,100.53,103.30,0
96,100.44,103.23,0
95,100.33,103.14,0
95,100.22,103.06,0
94,100.10,102.97,0
94,99.98,102.88,0
94,99.86,102.79,0
94,99.74,102.71,0
93,99.60,102.61,0
95,99.51,102.53,0
93,99.38,102.44,0
93,99.25,102.34,0
93,99.13,102.25,0
93,99.01,102.16,0
93,98.89,102.06,0
93,98.77,101.97,0
93,98.65,101.88,0
93,98.54,101.80,0
93,98.43,101.71,0
92,98.30,101.61,0
93,98.20,101.52,0
92,98.07,101.43,0
93,97.97,101.35,0
93,97.87,101.26,0
91,97.73,101.16,0
92,97.62,101.07,0
91,97.49,100.97,0
93,97.40,100.89,0
92,97.29,100.80,0
93,97.20,100.72,0
92,97.10,100.63,0
91,96.98,100.54,0
92,96.88,100.45,0
93,96.80,100.38,0
91,96.68,100.28,0
88,96.51,100.16,0
91,96.40,100.07,0
91,96.29,99.98,0
92,96.21,99.90,0
92,96.12,99.82,0
91,96.02,99.73,0
90,95.90,99.63,0
92,95.82,99.56,0
90,95.70,99.46,0
90,95.59,99.37,0
90,95.48,99.27,0
90,95.37,99.18,0
90,95.26,99.09,0
90,95.16,99.00,0
90,95.05,98.91,0
89,94.93,98.81,0
91,94.85,98.73,0
90,94.76,98.64,0
90,94.66,98.56,0
91,94.59,98.48,0
90,94.50,98.40,0
90,94.41,98.31,0
90,94.32,98.23,0
91,94.25,98.16,0
92,94.21,98.10,0
90,94.12,98.01,0
88,94.00,97.91,0
88,93.88,97.82,0
89,93.78,97.73,0
88,93.67,97.63,0
88,93.55,97.53,0
89,93.46,97.45,0
87,93.33,97.34,0
88,93.23,97.25,0
88,93.12,97.16,0
89,93.04,97.08,0
88,92.94,96.99,0
88,92.84,96.90,0
88,92.74,96.81,0
88,92.65,96.72,0
88,92.56,96.63,0
88,92.46,96.55,0
88,92.38,96.46,0
88,92.29,96.38,0
88,92.20,96.29,0
88,92.12,96.21,0
88,92.04,96.13,0
89,91.97,96.06,0
88,91.90,95.97,0
86,91.78,95.87,0
88,91.70,95.80,0
87,91.61,95.71,0
86,91.50,95.61,0
88,91.43,95.54,0
88,91.36,95.46,0
87,91.27,95.38,0
87,91.18,95.29,0
86,91.08,95.20,0
87,91.00,95.12,0
87,90.92,95.04,0
90,90.90,94.98,0
87,90.82,94.91,0
87,90.75,94.83,0
86,90.65,94.74,0
88,90.60,94.67,0
86,90.51,94.58,0
87,90.44,94.51,0
86,90.35,94.42,0
88,90.30,94.36,0
86,90.21,94.27,0
85,90.11,94.18,0
86,90.03,94.10,0
86,89.95,94.02,0
86,89.87,93.94,0
86,89.79,93.86,0
86,89.72,93.78,0
85,89.62,93.69,0
86,89.55,93.62,0
85,89.46,93.53,0
87,89.41,93.46,0
85,89.32,93.38,0
85,89.23,93.30,0
85,89.15,93.21,0
85,89.07,93.13,0
86,89.01,93.06,0
84,88.91,92.97,0
85,88.83,92.89,0
85,88.75,92.81,0
85,88.68,92.73,0
84,88.58,92.65,0
84,88.49,92.56,0
84,88.40,92.47,0
84,88.31,92.39,0
84,88.23,92.30,0
83,88.12,92.21,0
85,88.06,92.14,0
84,87.98,92.06,0
84,87.90,91.98,0
83,87.80,91.89,0
84,87.72,91.81,0
84,87.65,91.73,0
82,87.54,91.63,0
82,87.43,91.54,0
84,87.36,91.46,0
83,87.27,91.38,0
83,87.19,91.29,0
82,87.08,91.20,0
84,87.02,91.13,0
83,86.94,91.05,0
82,86.84,90.96,0
83,86.76,90.88,0
83,86.69,90.80,0
82,86.59,90.71,0
82,86.50,90.62,0
82,86.41,90.54,0
84,86.36,90.47,0
82,86.28,90.39,0
82,86.19,90.30,0
82,86.11,90.22,0
81,86.01,90.13,0
82,85.93,90.05,0
82,85.85,89.97,0
81,85.75,89.88,0
82,85.68,89.80,0
81,85.58,89.71,0
82,85.51,89.63,0
82,85.44,89.56,0
82,85.37,89.48,0
82,85.30,89.41,0
80,85.20,89.31,0
82,85.13,89.24,0
82,85.07,89.17,0
80,84.97,89.07,0
82,84.91,89.00,0
79,84.79,88.90,0
80,84.70,88.81,0
80,84.60,88.73,0
79,84.49,88.63,0
80,84.40,88.54,0
84,84.39,88.50,0
80,84.30,88.41,0
79,84.20,88.32,0
82,84.15,88.26,0
81,84.09,88.18,0
80,84.01,88.10,0
81,83.95,88.03,0
79,83.85,87.94,0
79,83.75,87.85,0
80,83.68,87.77,0
79,83.58,87.68,0
80,83.51,87.61,0
79,83.42,87.52,0
82,83.39,87.47,0
79,83.31,87.38,0
79,83.22,87.30,0
77,83.10,87.19,0
82,83.07,87.14,0
79,82.99,87.06,0
79,82.91,86.98,0
79,82.83,86.90,0
79,82.76,86.82,0
79,82.68,86.74,0
79,82.61,86.67,0
80,82.56,86.60,0
79,82.49,86.52,0
78,82.40,86.44,0
78,82.31,86.35,0
79,82.24,86.28,0
81,82.22,86.23,0
79,82.15,86.16,0
79,82.09,86.08,0
78,82.01,86.00,0
79,81.95,85.93,0
77,81.85,85.84,0
78,81.77,85.77,0
79,81.72,85.70,0
78,81.64,85.62,0
78,81.57,85.54,0
78,81.50,85.47,0
77,81.41,85.38,0
77,81.32,85.30,0
78,81.25,85.23,0
77,81.17,85.15,0
79,81.12,85.08,0
78,81.06,85.01,0
78,81.00,84.94,0
78,80.94,84.87,0
77,80.86,84.79,0
77,80.79,84.72,0
77,80.71,84.64,0
78,80.66,84.57,0
77,80.58,84.50,0
79,80.55,84.44,0
76,80.46,84.36,0
76,80.37,84.27,0
77,80.30,84.20,0
76,80.22,84.12,0
76,80.13,84.04,0
80,80.13,84.00,0
77,80.07,83.93,0
76,79.99,83.85,0
76,79.91,83.77,0
76,79.83,83.69,0
76,79.75,83.62,0
77,79.70,83.55,0
75,79.60,83.46,0
76,79.53,83.39,0
76,79.46,83.32,0
75,79.37,83.23,0
74,79.26,83.14,0
76,79.20,83.07,0
76,79.13,83.00,0
75,79.05,82.92,0
74,78.95,82.83,0
74,78.85,82.74,0
76,78.79,82.67,0
75,78.72,82.60,0
74,78.62,82.51,0
75,78.55,82.44,0
75,78.48,82.36,0
74,78.39,82.28,0
74,78.30,82.19,0
78,78.30,82.15,0
75,78.23,82.08,0
75,78.17,82.01,0
74,78.08,81.93,0
74,78.00,81.85,0
74,77.92,81.77,0
74,77.84,81.69,0
76,77.81,81.64,0
74,77.73,81.56,0
74,77.66,81.49,0
74,77.58,81.41,0
74,77.51,81.34,0
74,77.44,81.26,0
74,77.37,81.19,0
74,77.30,81.12,0
73,77.22,81.04,0
73,77.13,80.96,0
73,77.05,80.88,0
74,76.99,80.81,0
73,76.91,80.73,0
73,76.83,80.65,0
72,76.74,80.57,0
74,76.68,80.50,0
74,76.63,80.44,0
77,76.63,80.40,0
72,76.54,80.32,0
76,76.53,80.27,0
72,76.44,80.19,0
72,76.35,80.11,0
72,76.26,80.03,0
73,76.20,79.96,0
74,76.16,79.90,0
75,76.13,79.85,0
73,76.07,79.78,0
73,76.01,79.71,0
74,75.97,79.66,0
73,75.91,79.59,0
72,75.83,79.51,0
73,75.77,79.45,0
73,75.72,79.38,0
71,75.62,79.30,0
73,75.57,79.24,0
72,75.50,79.17,0
72,75.43,79.09,0
72,75.36,79.02,0
73,75.31,78.96,0
72,75.25,78.89,0
72,75.18,78.82,0
72,75.12,78.76,0
73,75.08,78.70,0
72,75.02,78.63,0
72,74.96,78.56,0
71,74.88,78.49,0
73,74.84,78.43,0
70,74.74,78.35,0
71,74.67,78.28,0
70,74.57,78.19,0
72,74.52,78.13,0
71,74.45,78.06,0
70,74.36,77.98,0
71,74.30,77.91,0
72,74.25,77.85,0
70,74.16,77.77,0
71,74.10,77.70,0
72,74.06,77.65,0
71,74.00,77.58,0
71,73.94,77.52,0
70,73.86,77.44,0
70,73.78,77.37,0
72,73.75,77.31,0
72,73.71,77.26,0
71,73.66,77.20,0
72,73.62,77.14,0
71,73.57,77.08,0
72,73.54,77.03,0
72,73.51,76.98,0
72,73.48,76.93,0
72,73.45,76.88,0
71,73.40,76.82,0
72,73.37,76.78,0
72,73.35,76.73,0
72,73.32,76.68,0
72,73.29,76.63,0
72,73.27,76.59,0
72,73.24,76.54,0
72,73.22,76.50,0
73,73.21,76.46,0
70,73.15,76.40,0
72,73.12,76.35,0
71,73.08,76.30,0
70,73.02,76.24,0
72,73.00,76.19,0
72,72.98,76.15,0
73,72.98,76.12,0
72,72.96,76.08,0
72,72.94,76.04,0
72,72.92,76.00,0
72,72.90,75.96,0
72,72.89,75.92,0
72,72.87,75.88,0
72,72.85,75.84,0
71,72.81,75.79,0
74,72.84,75.77,0
71,72.80,75.73,0
71,72.77,75.68,0
71,72.73,75.63,0
70,72.68,75.58,0
70,72.62,75.52,0
72,72.61,75.49,0
71,72.58,75.44,0
73,72.59,75.42,0
72,72.57,75.38,0
71,72.54,75.34,0
72,72.53,75.30,0
72,72.52,75.27,0
70,72.47,75.22,0
71,72.44,75.18,0
70,72.39,75.12,0
70,72.34,75.07,0
70,72.30,75.02,0
71,72.27,74.98,0
71,72.25,74.94,0
70,72.20,74.89,0
69,72.14,74.83,0
70,72.09,74.79,0
70,72.05,74.74,0
69,71.99,74.68,0
69,71.93,74.62,0
70,71.89,74.58,0
70,71.86,74.53,0
72,71.86,74.51,0
70,71.82,74.46,0
70,71.78,74.42,0
70,71.75,74.37,0
70,71.71,74.33,0
69,71.66,74.28,0
70,71.63,74.23,0
69,71.57,74.18,0
70,71.54,74.14,0
70,71.51,74.10,0
69,71.46,74.05,0
69,71.41,74.00,0
69,71.36,73.95,0
70,71.34,73.91,0
70,71.31,73.87,0
71,71.30,73.84,0
69,71.26,73.79,0
72,71.27,73.77,0
68,71.21,73.71,0
69,71.16,73.67,0
70,71.14,73.63,0
69,71.10,73.58,0
70,71.07,73.55,0
69,71.03,73.50,0
69,70.99,73.46,0
67,70.91,73.39,0
70,70.89,73.36,0
69,70.86,73.32,0
70,70.84,73.28,0
68,70.78,73.23,0
68,70.73,73.18,0
68,70.67,73.13,0
69,70.64,73.08,0
66,70.55,73.01,0
68,70.50,72.96,0
69,70.47,72.92,0
68,70.42,72.88,0
70,70.41,72.85,0
70,70.40,72.82,0
69,70.37,72.78,0
68,70.32,72.73,0
68,70.28,72.68,0
71,70.29,72.67,0
69,70.27,72.63,0
70,70.26,72.60,0
68,70.22,72.56,0
68,70.17,72.51,0
69,70.15,72.48,0
68,70.11,72.43,0
70,70.10,72.41,0
68,70.06,72.36,0
69,70.04,72.33,0
69,70.02,72.30,0
70,70.02,72.27,0
70,70.02,72.25,0
69,70.00,72.22,0
69,69.98,72.19,0
68,69.94,72.15,0
69,69.92,72.11,0
70,69.92,72.09,0
72,69.96,72.09,0
71,69.98,72.08,0
70,69.98,72.06,0
70,69.98,72.04,0
70,69.98,72.02,0
71,70.00,72.01,0
70,70.00,71.99,0
71,70.02,71.98,0
71,70.04,71.97,0
70,70.04,71.95,0
69,70.02,71.92,0
70,70.02,71.90,0
70,70.02,71.88,0
70,70.02,71.86,0
69,70.00,71.83,0
70,70.00,71.82,0
69,69.98,71.79,0
70,69.98,71.77,0
69,69.96,71.74,0
70,69.96,71.72,0
72,70.00,71.73,0
70,70.00,71.71,0
69,69.98,71.68,0
70,69.98,71.67,0
70,69.98,71.65,0
68,69.94,71.61,0
69,69.92,71.59,0
70,69.93,71.57,0
70,69.93,71.56,0
69,69.91,71.53,0
69,69.89,71.50,0
70,69.89,71.49,0
69,69.88,71.46,0
69,69.86,71.44,0
69,69.84,71.42,0
70,69.84,71.40,0
69,69.83,71.38,0
68,69.79,71.34,0
68,69.75,71.31,0
68,69.72,71.28,0
68,69.69,71.24,0
68,69.65,71.21,0
68,69.62,71.18,0
67,69.57,71.14,0
70,69.57,71.13,0
68,69.54,71.10,0
67,69.49,71.05,0
68,69.46,71.02,0
68,69.43,70.99,0
67,69.38,70.95,0
66,69.32,70.90,0
68,69.29,70.88,0
69,69.28,70.86,0
67,69.24,70.82,0
68,69.21,70.79,0
69,69.21,70.77,0
68,69.19,70.74,0
67,69.14,70.71,0
68,69.12,70.68,0
67,69.08,70.64,0
68,69.06,70.62,0
67,69.01,70.58,0
66,68.95,70.53,0
68,68.93,70.51,0
70,68.96,70.50,0
66,68.90,70.46,0
68,68.88,70.43,0
67,68.84,70.40,0
67,68.80,70.37,0
66,68.75,70.32,0
68,68.73,70.30,0
67,68.70,70.27,0
70,68.73,70.26,0
66,68.67,70.22,0
66,68.62,70.18,0
68,68.60,70.16,0
67,68.57,70.13,0
66,68.52,70.08,0
66,68.47,70.04,0
67,68.44,70.01,0
63,68.33,69.94,0
66,68.29,69.90,0
66,68.24,69.86,0
67,68.22,69.84,0
66,68.17,69.80,0
66,68.13,69.76,0
67,68.11,69.73,0
66,68.06,69.69,0
65,68.00,69.65,0
66,67.96,69.61,0
67,67.94,69.58,0
66,67.90,69.55,0
66,67.87,69.51,0
66,67.83,69.48,0
66,67.79,69.44,0
66,67.76,69.41,0
66,67.72,69.37,0
66,67.69,69.34,0
67,67.67,69.32,0
66,67.64,69.28,0
66,67.61,69.25,0
67,67.59,69.23,0
66,67.56,69.20,0
66,67.53,69.17,0
66,67.50,69.13,0
66,67.47,69.10,0
66,67.44,69.07,0
67,67.43,69.05,0
68,67.44,69.04,0
65,67.39,69.00,0
66,67.37,68.97,0
66,67.34,68.94,0
66,67.31,68.91,0
66,67.29,68.88,0
66,67.26,68.85,0
66,67.24,68.82,0
68,67.25,68.82,0
66,67.23,68.79,0
66,67.20,68.76,0
66,67.18,68.73,0
65,67.13,68.69,0
66,67.11,68.67,0
66,67.09,68.64,0
68,67.11,68.63,0
66,67.08,68.61,0
66,67.06,68.58,0
66,67.04,68.56,0
68,67.06,68.55,0
66,67.04,68.53,0
66,67.02,68.50,0
66,67.00,68.48,0
65,66.96,68.44,0
66,66.94,68.42,0
66,66.92,68.39,0
66,66.90,68.37,0
65,66.86,68.33,0
66,66.85,68.31,0
66,66.83,68.29,0
66,66.81,68.26,0
68,66.84,68.26,0
66,66.82,68.24,0
66,66.80,68.22,0
66,66.79,68.20,0
66,66.77,68.17,0
66,66.76,68.15,0
66,66.74,68.13,0
66,66.73,68.11,0
66,66.71,68.09,0
66,66.70,68.07,0
66,66.68,68.05,0
65,66.65,68.02,0
66,66.64,68.00,0
66,66.62,67.98,0
66,66.61,67.96,0
66,66.60,67.94,0
65,66.57,67.91,0
66,66.56,67.89,0
66,66.55,67.87,0
64,66.49,67.83,0
65,66.46,67.80,0
66,66.46,67.78,0
66,66.45,67.77,0
66,66.44,67.75,0
65,66.41,67.72,0
66,66.40,67.70,0
66,66.39,67.69,0
68,66.42,67.69,0
66,66.42,67.67,0
66,66.41,67.66,0
66,66.40,67.64,0
66,66.39,67.62,0
66,66.38,67.61,0
66,66.38,67.59,0
66,66.37,67.58,0
66,66.36,67.56,0
66,66.35,67.54,0
66,66.35,67.53,0
66,66.34,67.51,0
66,66.33,67.50,0
65,66.31,67.47,0
66,66.30,67.46,0
66,66.29,67.44,0
66,66.29,67.43,0
66,66.28,67.41,0
66,66.28,67.40,0
66,66.27,67.39,0
67,66.29,67.38,0
70,66.36,67.41,0
67,66.37,67.40,0
66,66.37,67.39,0
66,66.36,67.38,0
66,66.35,67.36,0
68,66.38,67.37,0
68,66.42,67.38,0
68,66.45,67.38,0
68,66.48,67.39,0
71,66.57,67.42,0
70,66.64,67.45,0
70,66.71,67.48,0
70,66.77,67.50,0
68,66.80,67.51,0
68,66.82,67.51,0
69,66.86,67.53,0
69,66.91,67.54,0
69,66.95,67.56,0
68,66.97,67.56,0
68,66.99,67.56,0
70,67.05,67.59,0
69,67.09,67.60,0
69,67.13,67.62,0
68,67.14,67.62,0
68,67.16,67.62,0
71,67.24,67.66,0
68,67.25,67.66,0
68,67.27,67.66,0
68,67.28,67.67,0
68,67.30,67.67,0
68,67.31,67.67,0
68,67.33,67.68,0
69,67.36,67.69,0
68,67.37,67.69,0
68,67.38,67.70,0
68,67.40,67.70,0
68,67.41,67.70,0
68,67.42,67.71,0
68,67.43,67.71,0
67,67.42,67.70,0
69,67.46,67.72,0
69,67.49,67.73,0
68,67.50,67.73,0
68,67.51,67.73,0
69,67.54,67.75,0
69,67.57,67.76,0
68,67.57,67.76,0
68,67.58,67.76,0
69,67.61,67.78,0
69,67.64,67.79,0
68,67.65,67.79,0
68,67.65,67.79,0
69,67.68,67.80,0
70,67.73,67.83,0
70,67.77,67.85,0
68,67.78,67.85,0
70,67.82,67.87,0
69,67.84,67.88,0
70,67.89,67.90,0
69,67.91,67.91,0
69,67.93,67.93,0
70,67.97,67.95,0
70,68.01,67.97,0
71,68.07,68.00,0
71,68.13,68.03,0
70,68.17,68.05,0
70,68.21,68.07,0
74,68.32,68.13,0
71,68.38,68.15,0
70,68.41,68.17,0
70,68.44,68.19,0
70,68.47,68.21,0
71,68.52,68.24,0
70,68.55,68.25,0
70,68.58,68.27,0
71,68.63,68.30,0
70,68.66,68.32,0
70,68.68,68.33,0
70,68.71,68.35,0
70,68.73,68.37,0
70,68.76,68.38,0
70,68.79,68.40,0
70,68.81,68.41,0
69,68.81,68.42,0
70,68.84,68.44,0
70,68.86,68.45,0
69,68.86,68.46,0
70,68.89,68.47,0
69,68.89,68.48,0
70,68.91,68.49,0
70,68.93,68.51,0
70,68.95,68.52,0
71,68.99,68.55,0
70,69.01,68.56,0
70,69.03,68.58,0
72,69.09,68.61,0
72,69.15,68.65,0
71,69.19,68.67,0
70,69.20,68.68,0
72,69.26,68.72,0
70,69.28,68.73,0
75,69.39,68.79,0
72,69.44,68.82,0
72,69.49,68.85,0
72,69.54,68.89,0
74,69.63,68.94,0
70,69.64,68.95,0
71,69.67,68.97,0
70,69.67,68.98,0
71,69.70,69.00,0
71,69.73,69.02,0
71,69.75,69.04,0
72,69.80,69.07,0
71,69.82,69.09,0
71,69.84,69.11,0
72,69.89,69.14,0
73,69.95,69.17,0
72,69.99,69.20,0
71,70.01,69.22,0
71,70.03,69.24,0
71,70.05,69.26,0
73,70.11,69.29,0
71,70.13,69.31,0
71,70.14,69.33,0
71,70.16,69.34,0
72,70.20,69.37,0
72,70.23,69.40,0
71,70.25,69.41,0
72,70.28,69.44,0
72,70.32,69.46,0
72,70.35,69.49,0
72,70.39,69.52,0
73,70.44,69.55,0
72,70.47,69.57,0
72,70.50,69.60,0
72,70.53,69.62,0
72,70.56,69.65,0
72,70.59,69.67,0
72,70.62,69.69,0
72,70.64,69.72,0
73,70.69,69.75,0
74,70.76,69.79,0
72,70.78,69.81,0
74,70.85,69.86,0
76,70.95,69.92,0
74,71.01,69.96,0
74,71.07,70.00,0
74,71.13,70.04,0
76,71.23,70.10,0
76,71.32,70.16,0
76,71.42,70.22,0
76,71.51,70.27,0
77,71.62,70.34,0
78,71.74,70.42,0
78,71.87,70.49,0
78,71.99,70.57,0
79,72.13,70.65,0
78,72.25,70.73,0
78,72.36,70.80,0
78,72.48,70.87,0
80,72.63,70.96,0
80,72.78,71.05,0
80,72.92,71.14,0
82,73.10,71.25,0
81,73.26,71.35,0
82,73.43,71.45,0
80,73.57,71.54,0
79,73.67,71.61,0
82,73.84,71.72,0
82,74.00,71.82,0
82,74.16,71.92,0
84,74.36,72.04,0
84,74.55,72.16,0
85,74.76,72.29,0
85,74.97,72.42,0
86,75.19,72.55,0
84,75.36,72.67,0
85,75.56,72.79,0
87,75.79,72.93,0
86,75.99,73.06,0
86,76.19,73.19,0
86,76.39,73.32,0
88,76.62,73.47,0
87,76.83,73.60,0
87,77.03,73.74,0
88,77.25,73.88,0
86,77.42,74.00,0
86,77.60,74.12,0
88,77.80,74.26,0
88,78.01,74.40,0
88,78.21,74.53,0
90,78.44,74.69,0
88,78.63,74.82,0
90,78.86,74.97,0
92,79.12,75.14,0
93,79.40,75.32,0
94,79.69,75.51,0
93,79.96,75.68,0
92,80.20,75.85,0
95,80.50,76.04,0
98,80.85,76.26,0
95,81.13,76.45,0
95,81.41,76.63,0
96,81.70,76.83,0
95,81.97,77.01,0
97,82.27,77.21,0
98,82.58,77.41,0
100,82.93,77.64,0
98,83.23,77.84,0
98,83.53,78.05,0
99,83.84,78.26,0
99,84.14,78.46,0
99,84.44,78.67,0
98,84.71,78.86,0
97,84.95,79.04,0
98,85.21,79.23,0
100,85.51,79.44,0
100,85.80,79.65,0
99,86.06,79.84,0
99,86.32,80.03,0
101,86.62,80.24,0
99,86.86,80.43,0
102,87.17,80.64,0
104,87.50,80.88,0
103,87.81,81.10,0
103,88.12,81.32,0
102,88.39,81.52,0
103,88.69,81.74,0
104,88.99,81.96,0
105,89.31,82.19,0
104,89.61,82.41,0
104,89.89,82.63,0
103,90.16,82.83,0
104,90.43,83.04,0
104,90.70,83.25,0
106,91.01,83.48,0
107,91.33,83.71,0
107,91.64,83.95,0
108,91.97,84.19,0
107,92.27,84.42,0
107,92.57,84.64,0
108,92.87,84.88,0
107,93.16,85.10,0
109,93.47,85.34,0
108,93.76,85.56,0
109,94.07,85.80,0
108,94.35,86.02,0
108,94.62,86.24,0
109,94.91,86.47,0
109,95.19,86.69,0
109,95.47,86.91,0
111,95.78,87.16,0
111,96.08,87.39,0
110,96.36,87.62,0
110,96.63,87.84,0
111,96.92,88.07,0
111,97.20,88.30,0
109,97.44,88.51,0
111,97.71,88.74,0
112,97.99,88.97,0
113,98.30,89.21,0
113,98.59,89.45,0
113,98.88,89.68,0
111,99.12,89.90,0
111,99.36,90.11,0
113,99.63,90.34,0
113,99.90,90.56,0
113,100.16,90.79,0
113,100.42,91.01,0
117,100.75,91.27,0
119,101.11,91.55,0
120,101.49,91.83,0
118,101.82,92.09,0
121,102.20,92.38,0
122,102.60,92.68,0
122,102.99,92.97,0
122,103.37,93.26,0
122,103.74,93.55,0
124,104.15,93.85,0
121,104.48,94.12,0
121,104.81,94.39,0
122,105.16,94.67,0
123,105.51,94.95,0
122,105.84,95.22,0
122,106.17,95.49,0
123,106.50,95.77,0
123,106.83,96.04,0
122,107.14,96.30,0
121,107.41,96.54,0
124,107.75,96.82,0
123,108.05,97.08,0
122,108.33,97.33,0
122,108.60,97.58,0
122,108.87,97.82,0
124,109.17,98.08,0
123,109.45,98.33,0
124,109.74,98.59,0
124,110.03,98.84,0
125,110.33,99.10,0
124,110.60,99.35,0
124,110.87,99.60,0
123,111.11,99.83,0
124,111.37,100.08,0
125,111.64,100.32,0
124,111.89,100.56,0
125,112.15,100.81,0
125,112.41,101.05,0
125,112.66,101.29,0
125,112.91,101.52,0
126,113.17,101.77,0
126,113.42,102.01,0
126,113.68,102.25,0
128,113.96,102.51,0
126,114.20,102.74,0
125,114.42,102.97,0
126,114.65,103.20,0
125,114.86,103.41,0
125,115.06,103.63,0
126,115.28,103.85,0
126,115.49,104.08,0
126,115.70,104.30,0
125,115.89,104.50,0
125,116.07,104.71,0
125,116.25,104.91,0
125,116.43,105.11,0
125,116.60,105.31,0
125,116.77,105.51,0
125,116.93,105.70,0
125,117.09,105.89,0
124,117.23,106.08,0
125,117.38,106.27,0
124,117.52,106.44,0
124,117.65,106.62,0
125,117.79,106.80,0
125,117.94,106.98,0
125,118.08,107.16,0
125,118.22,107.34,0
126,118.37,107.53,0
125,118.51,107.70,0
125,118.64,107.88,0
125,118.76,108.05,0
125,118.89,108.22,0
126,119.03,108.40,0
124,119.13,108.55,0
124,119.23,108.71,0
125,119.34,108.87,0
125,119.46,109.03,0
124,119.55,109.18,0
124,119.64,109.33,0
123,119.70,109.46,0
123,119.77,109.60,0
123,119.83,109.73,0
124,119.92,109.88,0
123,119.98,110.01,0
121,120.00,110.12,0
122,120.04,110.24,0
121,120.06,110.34,0
121,120.08,110.45,0
122,120.12,110.57,0
122,120.15,110.68,0
121,120.17,110.78,0
121,120.19,110.89,0
121,120.20,110.99,0
124,120.28,111.12,0
121,120.29,111.22,0
121,120.31,111.31,0
120,120.30,111.40,0
121,120.32,111.50,0
120,120.31,111.58,0
121,120.32,111.68,0
120,120.32,111.76,0
120,120.31,111.84,0
120,120.30,111.92,0
119,120.28,111.99,0
120,120.27,112.07,0
121,120.29,112.16,0
119,120.26,112.23,0
119,120.24,112.30,0
119,120.21,112.37,0
119,120.19,112.43,0
119,120.16,112.50,0
119,120.14,112.56,0
118,120.10,112.62,0
119,120.08,112.68,0
119,120.05,112.74,0
118,120.01,112.80,0
117,119.95,112.84,0
118,119.91,112.89,0
119,119.89,112.95,0
117,119.84,112.99,0
119,119.82,113.05,0
118,119.78,113.10,0
119,119.77,113.16,0
120,119.77,113.23,0
119,119.76,113.29,0
119,119.74,113.34,0
119,119.73,113.40,0
119,119.71,113.46,0
119,119.70,113.51,0
118,119.66,113.56,0
118,119.63,113.60,0
117,119.58,113.64,0
117,119.53,113.67,0
117,119.48,113.70,0
117,119.43,113.74,0
117,119.38,113.77,0
117,119.33,113.80,0
117,119.28,113.83,0
117,119.24,113.86,0
117,119.19,113.90,0
116,119.13,113.92,0
117,119.09,113.95,0
116,119.03,113.97,0
115,118.95,113.98,0
116,118.89,114.00,0
115,118.81,114.01,0
115,118.73,114.02,0
115,118.66,114.03,0
119,118.66,114.08,0
115,118.59,114.09,0
116,118.54,114.11,0
115,118.47,114.12,0
114,118.38,114.11,0
114,118.29,114.11,0
115,118.23,114.12,0
113,118.12,114.11,0
113,118.02,114.10,0
113,117.92,114.09,0
113,117.82,114.08,0
113,117.72,114.07,0
114,117.65,114.07,0
113,117.56,114.06,0
113,117.47,114.04,0
113,117.38,114.03,0
113,117.29,114.02,0
113,117.20,114.01,0
112,117.10,113.99,0
112,117.00,113.97,0
112,116.90,113.95,0
111,116.78,113.92,0
111,116.66,113.90,0
111,116.55,113.87,0
111,116.44,113.84,0
111,116.33,113.81,0
109,116.18,113.76,0
111,116.08,113.73,0
111,115.98,113.71,0
111,115.88,113.68,0
111,115.78,113.65,0
111,115.69,113.63,0
111,115.59,113.60,0
110,115.48,113.56,0
111,115.39,113.54,0
111,115.30,113.51,0
109,115.18,113.47,0
110,115.07,113.43,0
111,114.99,113.41,0
109,114.87,113.36,0
111,114.79,113.34,0
109,114.68,113.30,0
109,114.56,113.25,0
109,114.45,113.21,0
108,114.32,113.16,0
108,114.20,113.11,0
108,114.07,113.06,0
108,113.95,113.01,0
107,113.81,112.95,0
108,113.70,112.90,0
107,113.56,112.84,0
108,113.45,112.79,0
107,113.32,112.73,0
107,113.20,112.67,0
107,113.07,112.62,0
111,113.03,112.60,0
107,112.91,112.55,0
108,112.81,112.50,0
105,112.66,112.42,0
107,112.54,112.37,0
106,112.41,112.31,0
108,112.32,112.26,0
106,112.20,112.20,0
106,112.07,112.14,0
105,111.93,112.07,0
105,111.79,112.00,0
105,111.66,111.93,0
106,111.54,111.87,0
105,111.41,111.80,0
105,111.29,111.73,0
105,111.16,111.66,0
105,111.04,111.60,0
105,110.92,111.53,0
105,110.80,111.47,0
105,110.68,111.40,0
104,110.55,111.33,0
104,110.42,111.25,0
104,110.29,111.18,0
104,110.16,111.11,0
103,110.02,111.03,0
104,109.90,110.96,0
104,109.78,110.89,0
103,109.65,110.81,0
104,109.53,110.74,0
103,109.40,110.66,0
103,109.27,110.59,0
103,109.15,110.51,0
104,109.05,110.45,0
103,108.92,110.37,0
104,108.83,110.31,0
103,108.71,110.24,0
103,108.60,110.16,0
103,108.48,110.09,0
104,108.39,110.03,0
103,108.29,109.96,0
103,108.18,109.89,0
101,108.04,109.80,0
101,107.90,109.71,0
101,107.76,109.63,0
102,107.64,109.55,0
102,107.53,109.47,0
101,107.40,109.39,0
103,107.31,109.33,0
101,107.19,109.24,0
101,107.06,109.16,0
102,106.96,109.09,0
101,106.84,109.01,0
101,106.72,108.93,0
101,106.61,108.85,0
99,106.46,108.75,0
99,106.31,108.65,0
100,106.18,108.57,0
101,106.08,108.49,0
99,105.94,108.40,0
99,105.80,108.30,0
100,105.68,108.22,0
100,105.57,108.14,0
99,105.44,108.05,0
99,105.31,107.95,0
98,105.16,107.86,0
99,105.04,107.77,0
98,104.90,107.67,0
98,104.76,107.57,0
100,104.67,107.50,0
99,104.55,107.41,0
99,104.44,107.33,0
99,104.33,107.24,0
98,104.21,107.15,0
98,104.08,107.06,0
98,103.96,106.97,0
98,103.84,106.88,0
97,103.70,106.78,0
98,103.59,106.69,0
97,103.46,106.60,0
98,103.35,106.51,0
97,103.22,106.42,0
97,103.10,106.32,0
96,102.96,106.22,0
96,102.82,106.12,0
97,102.70,106.02,0
96,102.57,105.92,0
96,102.43,105.83,0
96,102.31,105.73,0
96,102.18,105.63,0
94,102.02,105.51,0
97,101.92,105.43,0
96,101.80,105.33,0
96,101.68,105.24,0
96,101.57,105.15,0
95,101.44,105.05,0
94,101.29,104.94,0
95,101.16,104.84,0
95,101.04,104.74,0
95,100.92,104.64,0
94,100.78,104.53,0
94,100.64,104.43,0
94,100.51,104.33,0
94,100.38,104.22,0
94,100.25,104.12,0
95,100.15,104.03,0
94,100.03,103.93,0
93,99.88,103.82,0
95,99.79,103.73,0
94,99.67,103.63,0
93,99.54,103.53,0
93,99.41,103.42,0
93,99.28,103.32,0
95,99.19,103.23,0
93,99.07,103.13,0
94,98.97,103.04,0
95,98.89,102.96,0
93,98.77,102.86,0
93,98.66,102.76,0
97,98.62,102.70,0
93,98.51,102.61,0
93,98.40,102.51,0
93,98.29,102.42,0
93,98.19,102.32,0
94,98.10,102.24,0
93,98.00,102.15,0
93,97.90,102.05,0
93,97.80,101.96,0
93,97.71,101.87,0
93,97.61,101.79,0
93,97.52,101.70,0
95,97.47,101.63,0
93,97.38,101.54,0
93,97.29,101.46,0
92,97.19,101.36,0
93,97.10,101.28,0
93,97.02,101.20,0
93,96.94,101.12,0
93,96.86,101.04,0
93,96.78,100.95,0
94,96.73,100.89,0
92,96.63,100.80,0
92,96.54,100.71,0
91,96.43,100.61,0
92,96.34,100.53,0
92,96.26,100.44,0
93,96.19,100.37,0
94,96.15,100.30,0
92,96.06,100.22,0
92,95.98,100.14,0
92,95.90,100.06,0
92,95.82,99.97,0
92,95.75,99.90,0
92,95.67,99.82,0
92,95.60,99.74,0
92,95.53,99.66,0
91,95.44,99.57,0
92,95.37,99.50,0
92,95.30,99.42,0
92,95.23,99.35,0
92,95.17,99.28,0
91,95.09,99.19,0
92,95.02,99.12,0
92,94.96,99.05,0
91,94.89,98.97,0
94,94.87,98.92,0
92,94.81,98.85,0
91,94.73,98.77,0
91,94.66,98.69,0
90,94.57,98.61,0
92,94.51,98.54,0
90,94.42,98.46,0
91,94.36,98.38,0
89,94.25,98.29,0
90,94.16,98.20,0
90,94.08,98.12,0
91,94.02,98.05,0
89,93.92,97.96,0
90,93.84,97.88,0
90,93.76,97.80,0
90,93.69,97.72,0
91,93.63,97.66,0
89,93.54,97.57,0
90,93.47,97.49,0
90,93.40,97.42,0
89,93.31,97.34,0
89,93.23,97.25,0
90,93.16,97.18,0
89,93.08,97.10,0
90,93.02,97.03,0
89,92.94,96.95,0
89,92.86,96.87,0
90,92.80,96.80,0
89,92.73,96.72,0
90,92.67,96.65,0
90,92.62,96.59,0
89,92.55,96.51,0
90,92.49,96.45,0
90,92.44,96.38,0
90,92.40,96.32,0
89,92.33,96.24,0
91,92.30,96.19,0
90,92.26,96.13,0
88,92.17,96.05,0
88,92.09,95.97,0
89,92.02,95.90,0
88,91.94,95.82,0
88,91.87,95.74,0
88,91.79,95.66,0
88,91.71,95.59,0
88,91.64,95.51,0
88,91.57,95.44,0
89,91.51,95.37,0
88,91.44,95.30,0
88,91.37,95.23,0
88,91.31,95.15,0
88,91.24,95.08,0
88,91.18,95.01,0
88,91.11,94.94,0
87,91.03,94.86,0
88,90.97,94.79,0
88,90.91,94.72,0
87,90.83,94.65,0
87,90.76,94.57,0
87,90.68,94.50,0
87,90.61,94.42,0
86,90.51,94.34,0
86,90.42,94.25,0
88,90.38,94.19,0
87,90.31,94.12,0
87,90.24,94.05,0
86,90.16,93.97,0
87,90.09,93.90,0
86,90.01,93.82,0
86,89.93,93.74,0
86,89.85,93.66,0
87,89.80,93.60,0
86,89.72,93.52,0
86,89.65,93.44,0
87,89.59,93.38,0
86,89.52,93.31,0
86,89.45,93.23,0
86,89.38,93.16,0
87,89.33,93.10,0
87,89.29,93.04,0
86,89.22,92.97,0
86,89.16,92.90,0
86,89.09,92.83,0
86,89.03,92.76,0
86,88.97,92.69,0
88,88.95,92.65,0
87,88.91,92.59,0
87,88.88,92.53,0
87,88.84,92.48,0
86,88.78,92.41,0
87,88.75,92.36,0
87,88.71,92.31,0
86,88.66,92.24,0
86,88.60,92.18,0
86,88.55,92.12,0
87,88.52,92.07,0
85,88.45,92.00,0
86,88.40,91.94,0
86,88.35,91.88,0
86,88.31,91.82,0
86,88.26,91.76,0
86,88.21,91.70,0
86,88.17,91.65,0
86,88.13,91.59,0
85,88.06,91.52,0
86,88.02,91.47,0
86,87.98,91.41,0
87,87.96,91.37,0
85,87.90,91.31,0
85,87.85,91.24,0
85,87.79,91.18,0
85,87.73,91.12,0
85,87.68,91.06,0
86,87.64,91.01,0
86,87.61,90.96,0
85,87.56,90.90,0
85,87.51,90.84,0
84,87.44,90.77,0
83,87.35,90.69,0
84,87.28,90.63,0
85,87.24,90.57,0
85,87.19,90.51,0
84,87.13,90.45,0
85,87.09,90.39,0
85,87.04,90.34,0
85,87.00,90.29,0
84,86.94,90.22,0
84,86.88,90.16,0
84,86.83,90.10,0
84,86.77,90.04,0
84,86.71,89.98,0
84,86.66,89.92,0
84,86.61,89.86,0
83,86.53,89.79,0
82,86.44,89.71,0
83,86.38,89.65,0
83,86.31,89.58,0
84,86.26,89.52,0
84,86.22,89.47,0
84,86.17,89.41,0
83,86.11,89.35,0
82,86.03,89.28,0
82,85.95,89.20,0
84,85.91,89.15,0
83,85.85,89.09,0
82,85.77,89.02,0
84,85.74,88.97,0
84,85.70,88.92,0
83,85.65,88.86,0
84,85.61,88.81,0
83,85.56,88.75,0
83,85.51,88.70,0
83,85.46,88.64,0
84,85.43,88.59,0
84,85.40,88.55,0
83,85.36,88.49,0
82,85.29,88.43,0
84,85.26,88.38,0
84,85.24,88.34,0
82,85.17,88.27,0
84,85.15,88.23,0
82,85.09,88.17,0
82,85.02,88.11,0
83,84.98,88.06,0
82,84.92,88.00,0
84,84.91,87.96,0
82,84.85,87.90,0
83,84.81,87.85,0
82,84.75,87.79,0
82,84.70,87.73,0
82,84.65,87.67,0
82,84.59,87.62,0
82,84.54,87.56,0
81,84.47,87.50,0
81,84.40,87.43,0
82,84.35,87.38,0
81,84.29,87.31,0
82,84.24,87.26,0
81,84.17,87.20,0
82,84.13,87.14,0
85,84.15,87.12,0
82,84.11,87.07,0
81,84.04,87.01,0
82,84.00,86.96,0
82,83.96,86.91,0
82,83.92,86.86,0
81,83.86,86.80,0
81,83.81,86.75,0
81,83.75,86.69,0
82,83.72,86.64,0
81,83.66,86.58,0
81,83.61,86.53,0
81,83.56,86.47,0
80,83.49,86.41,0
80,83.42,86.34,0
82,83.39,86.30,0
81,83.34,86.25,0
81,83.29,86.20,0
79,83.21,86.12,0
81,83.16,86.07,0
80,83.10,86.01,0
82,83.08,85.97,0
80,83.02,85.91,0
80,82.96,85.85,0
80,82.90,85.79,0
80,82.84,85.74,0
79,82.76,85.67,0
80,82.71,85.61,0
79,82.63,85.55,0
79,82.56,85.48,0
78,82.47,85.41,0
79,82.40,85.34,0
80,82.35,85.29,0
79,82.28,85.23,0
78,82.20,85.15,0
79,82.13,85.09,0
79,82.07,85.03,0
78,81.99,84.96,0
78,81.91,84.89,0
78,81.83,84.82,0
78,81.76,84.75,0
78,81.68,84.69,0
78,81.61,84.62,0
79,81.56,84.56,0
78,81.48,84.50,0
78,81.41,84.43,0
78,81.35,84.37,0
78,81.28,84.30,0
79,81.23,84.25,0
78,81.17,84.19,0
78,81.11,84.13,0
78,81.04,84.07,0
78,80.98,84.01,0
78,80.92,83.95,0
78,80.86,83.89,0
77,80.79,83.82,0
79,80.75,83.77,0
77,80.68,83.70,0
78,80.62,83.64,0
78,80.57,83.59,0
77,80.50,83.52,0
75,80.39,83.44,0
77,80.32,83.37,0
77,80.25,83.31,0
77,80.19,83.25,0
78,80.15,83.19,0
76,80.06,83.12,0
78,80.02,83.07,0
78,79.98,83.02,0
78,79.94,82.97,0
78,79.90,82.92,0
77,79.84,82.86,0
77,79.79,82.80,0
76,79.71,82.73,0
76,79.64,82.67,0
77,79.59,82.61,0
78,79.55,82.56,0
77,79.50,82.51,0
76,79.43,82.44,0
77,79.38,82.39,0
76,79.32,82.32,0
77,79.27,82.27,0
76,79.20,82.21,0
76,79.14,82.15,0
76,79.08,82.08,0
76,79.02,82.02,0
76,78.96,81.96,0
77,78.92,81.91,0
79,78.92,81.89,0
76,78.86,81.83,0
76,78.80,81.77,0
75,78.73,81.70,0
75,78.65,81.63,0
76,78.60,81.58,0
76,78.55,81.52,0
75,78.48,81.46,0
76,78.43,81.40,0
74,78.34,81.33,0
75,78.27,81.26,0
77,78.25,81.22,0
76,78.20,81.17,0
74,78.12,81.10,0
75,78.05,81.04,0
75,77.99,80.98,0
74,77.91,80.91,0
75,77.86,80.85,0
75,77.80,80.79,0
74,77.72,80.72,0
76,77.69,80.67,0
74,77.61,80.61,0
74,77.54,80.54,0
74,77.47,80.48,0
75,77.42,80.42,0
74,77.35,80.36,0
74,77.29,80.29,0
74,77.22,80.23,0
75,77.18,80.18,0
74,77.11,80.12,0
74,77.05,80.05,0
75,77.01,80.00,0
76,76.99,79.96,0
74,76.93,79.90,0
74,76.87,79.85,0
75,76.83,79.80,0
76,76.82,79.76,0
74,76.76,79.70,0
74,76.70,79.64,0
74,76.65,79.59,0
74,76.60,79.53,0
74,76.55,79.48,0
74,76.50,79.42,0
74,76.45,79.37,0
73,76.38,79.30,0
74,76.33,79.25,0
72,76.24,79.18,0
74,76.20,79.13,0
76,76.19,79.10,0
72,76.11,79.02,0
74,76.07,78.97,0
74,76.03,78.92,0
72,75.95,78.86,0
72,75.87,78.79,0
73,75.81,78.73,0
72,75.73,78.66,0
72,75.66,78.60,0
72,75.59,78.53,0
72,75.51,78.46,0
73,75.46,78.41,0
72,75.39,78.35,0
72,75.33,78.28,0
72,75.26,78.22,0
72,75.19,78.16,0
77,75.23,78.15,0
72,75.17,78.08,0
72,75.10,78.02,0
73,75.06,77.97,0
72,75.00,77.91,0
72,74.94,77.85,0
72,74.88,77.80,0
72,74.82,77.74,0
75,74.83,77.71,0
72,74.77,77.65,0
72,74.71,77.60,0
72,74.66,77.54,0
72,74.61,77.48,0
72,74.55,77.43,0
72,74.50,77.38,0
71,74.43,77.31,0
71,74.37,77.25,0
71,74.30,77.19,0
72,74.25,77.13,0
71,74.19,77.07,0
70,74.10,77.00,0
72,74.06,76.95,0
70,73.98,76.88,0
72,73.94,76.83,0
70,73.86,76.77,0
72,73.82,76.72,0
70,73.75,76.65,0
71,73.69,76.59,0
71,73.64,76.54,0
71,73.59,76.48,0
71,73.53,76.43,0
71,73.48,76.37,0
71,73.43,76.32,0
72,73.41,76.28,0
70,73.34,76.21,0
72,73.31,76.17,0
72,73.28,76.13,0
71,73.24,76.08,0
70,73.17,76.02,0
71,73.13,75.97,0
72,73.11,75.93,0
70,73.05,75.87,0
70,72.98,75.81,0
70,72.93,75.75,0
71,72.89,75.70,0
70,72.83,75.65,0
70,72.77,75.59,0
71,72.74,75.55,0
72,72.72,75.51,0
70,72.67,75.45,0
70,72.61,75.40,0
70,72.56,75.35,0
71,72.53,75.30,0
70,72.48,75.25,0
70,72.43,75.20,0
69,72.36,75.14,0
70,72.31,75.08,0
70,72.27,75.03,0
70,72.22,74.98,0
70,72.18,74.93,0
70,72.13,74.88,0
70,72.09,74.83,0
70,72.05,74.79,0
70,72.01,74.74,0
70,71.97,74.69,0
70,71.93,74.64,0
70,71.89,74.60,0
69,71.83,74.54,0
69,71.78,74.49,0
69,71.72,74.43,0
68,71.65,74.37,0
68,71.57,74.30,0
70,71.54,74.26,0
71,71.53,74.23,0
70,71.50,74.19,0
69,71.45,74.13,0
69,71.40,74.08,0
68,71.33,74.02,0
70,71.31,73.98,0
70,71.28,73.94,0
68,71.22,73.88,0
68,71.15,73.82,0
68,71.09,73.77,0
70,71.07,73.73,0
68,71.01,73.67,0
68,70.94,73.61,0
68,70.89,73.56,0
70,70.87,73.52,0
68,70.81,73.47,0
68,70.75,73.41,0
68,70.70,73.36,0
68,70.65,73.30,0
68,70.59,73.25,0
68,70.54,73.20,0
68,70.49,73.15,0
67,70.42,73.09,0
68,70.37,73.03,0
68,70.32,72.98,0
68,70.28,72.93,0
68,70.23,72.88,0
66,70.15,72.82,0
68,70.10,72.77,0
68,70.06,72.72,0
68,70.02,72.67,0
68,69.98,72.63,0
68,69.94,72.58,0
68,69.90,72.53,0
70,69.90,72.51,0
70,69.91,72.48,0
68,69.87,72.44,0
68,69.83,72.39,0
67,69.77,72.34,0
68,69.74,72.30,0
68,69.70,72.25,0
68,69.67,72.21,0
67,69.62,72.16,0
66,69.54,72.10,0
68,69.51,72.06,0
67,69.46,72.01,0
66,69.39,71.95,0
67,69.35,71.90,0
68,69.32,71.86,0
67,69.27,71.81,0
71,69.31,71.80,0
67,69.26,71.75,0
68,69.24,71.72,0
66,69.17,71.66,0
67,69.13,71.61,0
67,69.09,71.57,0
66,69.02,71.51,0
66,68.96,71.46,0
68,68.94,71.42,0
69,68.94,71.40,0
66,68.89,71.34,0
66,68.83,71.29,0
66,68.77,71.24,0
65,68.70,71.17,0
66,68.64,71.12,0
66,68.59,71.07,0
68,68.58,71.04,0
65,68.51,70.98,0
66,68.46,70.93,0
66,68.41,70.88,0
67,68.38,70.84,0
66,68.33,70.79,0
66,68.28,70.75,0
66,68.24,70.70,0
67,68.21,70.66,0
66,68.17,70.61,0
66,68.13,70.57,0
63,68.02,70.49,0
66,67.98,70.45,0
65,67.92,70.39,0
65,67.87,70.34,0
66,67.83,70.30,0
66,67.79,70.25,0
65,67.74,70.20,0
66,67.70,70.16,0
68,67.71,70.14,0
66,67.67,70.10,0
65,67.62,70.04,0
64,67.55,69.98,0
64,67.48,69.92,0
66,67.45,69.88,0
65,67.40,69.84,0
64,67.33,69.78,0
66,67.30,69.74,0
65,67.26,69.69,0
65,67.21,69.65,0
65,67.17,69.60,0
64,67.10,69.54,0
66,67.08,69.51,0
64,67.02,69.45,0
64,66.96,69.40,0
65,66.92,69.35,0
65,66.88,69.31,0
64,66.82,69.26,0
64,66.77,69.20,0
64,66.71,69.15,0
65,66.68,69.11,0
64,66.63,69.06,0
64,66.57,69.01,0
64,66.52,68.96,0
65,66.49,68.92,0
64,66.44,68.87,0
64,66.39,68.82,0
64,66.34,68.77,0
65,66.32,68.74,0
64,66.27,68.69,0
63,66.21,68.63,0
64,66.16,68.59,0
64,66.12,68.54,0
64,66.08,68.49,0
63,66.01,68.44,0
64,65.97,68.39,0
64,65.93,68.35,0
66,65.94,68.33,0
65,65.92,68.29,0
64,65.88,68.25,0
64,65.84,68.21,0
64,65.80,68.17,0
64,65.77,68.13,0
64,65.73,68.08,0
64,65.70,68.04,0
65,65.68,68.01,0
64,65.65,67.97,0
64,65.62,67.93,0
64,65.59,67.89,0
66,65.59,67.87,0
64,65.56,67.84,0
64,65.53,67.80,0
64,65.50,67.76,0
66,65.51,67.74,0
64,65.48,67.70,0
63,65.43,67.66,0
63,65.38,67.61,0
63,65.33,67.56,0
64,65.31,67.53,0
63,65.26,67.48,0
63,65.22,67.44,0
63,65.17,67.39,0
64,65.15,67.36,0
62,65.09,67.31,0
62,65.02,67.25,0
63,64.98,67.21,0
63,64.94,67.17,0
62,64.88,67.12,0
62,64.83,67.07,0
64,64.81,67.04,0
62,64.75,66.99,0
62,64.70,66.94,0
62,64.64,66.89,0
63,64.61,66.85,0
62,64.56,66.80,0
62,64.51,66.75,0
62,64.46,66.70,0
63,64.43,66.67,0
62,64.38,66.62,0
66,64.41,66.61,0
61,64.34,66.56,0
63,64.32,66.52,0
61,64.25,66.47,0
62,64.21,66.42,0
61,64.14,66.37,0
62,64.10,66.32,0
62,64.06,66.28,0
62,64.02,66.24,0
61,63.96,66.19,0
61,63.90,66.13,0
62,63.86,66.09,0
62,63.82,66.05,0
62,63.79,66.01,0
62,63.75,65.97,0
62,63.71,65.93,0
58,63.60,65.85,0
62,63.57,65.81,0
61,63.52,65.77,0
62,63.49,65.73,0
62,63.46,65.69,0
61,63.41,65.64,0
61,63.36,65.60,0
62,63.33,65.56,0
60,63.27,65.51,0
61,63.22,65.46,0
61,63.18,65.42,0
60,63.11,65.36,0
60,63.05,65.31,0
62,63.03,65.27,0
62,63.01,65.24,0
62,62.99,65.21,0
62,62.97,65.18,0
61,62.93,65.14,0
61,62.89,65.09,0
62,62.87,65.06,0
61,62.84,65.02,0
61,62.80,64.98,0
62,62.78,64.95,0
60,62.73,64.90,0
62,62.71,64.87,0
61,62.68,64.84,0
62,62.66,64.81,0
60,62.61,64.76,0
62,62.60,64.73,0
62,62.59,64.70,0
60,62.54,64.66,0
60,62.48,64.61,0
62,62.48,64.58,0
61,62.45,64.55,0
60,62.40,64.50,0
60,62.35,64.46,0
60,62.30,64.41,0
60,62.26,64.37,0
62,62.25,64.35,0
61,62.23,64.31,0
60,62.18,64.27,0
60,62.14,64.23,0
60,62.09,64.18,0
60,62.05,64.14,0
60,62.01,64.10,0
61,61.99,64.07,0
62,61.99,64.05,0
60,61.95,64.01,0
60,61.91,63.97,0
61,61.89,63.94,0
63,61.92,63.93,0
60,61.88,63.89,0
60,61.84,63.85,0
61,61.82,63.82,0
60,61.79,63.78,0
60,61.75,63.75,0
60,61.72,63.71,0
60,61.68,63.67,0
61,61.67,63.65,0
60,61.64,63.61,0
60,61.60,63.57,0
59,61.55,63.53,0
60,61.52,63.49,0
60,61.49,63.46,0
60,61.46,63.42,0
60,61.43,63.39,0
60,61.40,63.35,0
61,61.39,63.33,0
59,61.35,63.29,0
58,61.28,63.23,0
60,61.25,63.20,0
59,61.21,63.16,0
59,61.16,63.12,0
58,61.10,63.07,0
60,61.08,63.04,0
60,61.06,63.01,0
57,60.98,62.95,0
59,60.94,62.91,0
60,60.92,62.88,0
58,60.86,62.83,0
58,60.80,62.78,0
59,60.77,62.74,0
60,60.75,62.72,0
59,60.72,62.68,0
58,60.66,62.63,0
58,60.61,62.59,0
60,60.60,62.56,0
58,60.54,62.51,0
58,60.49,62.47,0
58,60.44,62.42,0
58,60.39,62.38,0
59,60.37,62.35,0
58,60.32,62.30,0
60,60.31,62.28,0
59,60.29,62.25,0
58,60.24,62.20,0
58,60.20,62.16,0
59,60.17,62.13,0
59,60.15,62.10,0
61,60.17,62.09,0
60,60.16,62.07,0
58,60.12,62.03,0
58,60.08,61.99,0
58,60.04,61.95,0
58,59.99,61.91,0
59,59.97,61.88,0
59,59.96,61.85,0
58,59.92,61.81,0
58,59.88,61.77,0
59,59.86,61.74,0
58,59.82,61.71,0
58,59.79,61.67,0
60,59.79,61.65,0
58,59.76,61.62,0
58,59.72,61.58,0
55,59.63,61.52,0
58,59.59,61.48,0
58,59.56,61.45,0
57,59.51,61.40,0
58,59.48,61.37,0
58,59.45,61.33,0
57,59.40,61.29,0
58,59.37,61.26,0
58,59.35,61.22,0
57,59.30,61.18,0
58,59.27,61.15,0
58,59.25,61.12,0
57,59.20,61.08,0
58,59.18,61.05,0
58,59.15,61.02,0
58,59.13,60.99,0
57,59.09,60.95,0
57,59.05,60.91,0
58,59.03,60.88,0
58,59.01,60.85,0
58,58.99,60.82,0
57,58.95,60.78,0
58,58.93,60.75,0
59,58.93,60.74,0
58,58.91,60.71,0
57,58.87,60.67,0
57,58.83,60.64,0
58,58.82,60.61,0
58,58.80,60.58,0
58,58.79,60.56,0
57,58.75,60.52,0
57,58.71,60.49,0
57,58.68,60.45,0
57,58.65,60.42,0
57,58.61,60.38,0
57,58.58,60.35,0
57,58.55,60.32,0
58,58.54,60.29,0
57,58.51,60.26,0
58,58.50,60.24,0
57,58.47,60.20,0
57,58.44,60.17,0
57,58.41,60.14,0
57,58.38,60.11,0
57,58.35,60.08,0
56,58.31,60.04,0
57,58.28,60.01,0
57,58.26,59.98,0
57,58.23,59.95,0
56,58.19,59.91,0
57,58.16,59.88,0
56,58.12,59.84,0
56,58.08,59.80,0
56,58.03,59.76,0
56,57.99,59.73,0
57,57.97,59.70,0
56,57.93,59.66,0
56,57.90,59.63,0
57,57.88,59.60,0
56,57.84,59.56,0
56,57.80,59.53,0
56,57.77,59.49,0
57,57.75,59.47,0
56,57.72,59.43,0
56,57.68,59.40,0
56,57.65,59.36,0
56,57.62,59.33,0
56,57.58,59.30,0
56,57.55,59.26,0
56,57.52,59.23,0
56,57.49,59.20,0
56,57.46,59.17,0
56,57.43,59.14,0
56,57.40,59.10,0
55,57.35,59.06,0
55,57.31,59.02,0
54,57.24,58.97,0
56,57.22,58.94,0
56,57.19,58.91,0
55,57.15,58.87,0
54,57.09,58.83,0
55,57.04,58.79,0
56,57.02,58.76,0
56,57.00,58.73,0
56,56.98,58.70,0
56,56.96,58.68,0
55,56.92,58.64,0
55,56.89,58.60,0
56,56.87,58.58,0
56,56.85,58.55,0
55,56.81,58.52,0
60,56.88,58.53,0
54,56.82,58.49,0
56,56.80,58.46,0
56,56.79,58.44,0
56,56.77,58.41,0
54,56.72,58.37,0
54,56.66,58.32,0
56,56.65,58.30,0
56,56.64,58.28,0
55,56.60,58.25,0
55,56.57,58.21,0
54,56.52,58.17,0
55,56.49,58.14,0
56,56.48,58.12,0
54,56.43,58.08,0
55,56.40,58.05,0
58,56.43,58.05,0
56,56.42,58.03,0
55,56.40,57.99,0
55,56.37,57.96,0
55,56.34,57.94,0
56,56.33,57.92,0
54,56.29,57.88,0
55,56.26,57.85,0
53,56.20,57.80,0
54,56.15,57.76,0
54,56.11,57.72,0
54,56.07,57.69,0
55,56.05,57.66,0
54,56.00,57.62,0
54,55.96,57.59,0
55,55.95,57.56,0
53,55.89,57.52,0
54,55.85,57.48,0
54,55.81,57.45,0
54,55.78,57.41,0
56,55.78,57.40,0
54,55.74,57.36,0
54,55.71,57.33,0
55,55.70,57.31,0
55,55.68,57.28,0
54,55.65,57.25,0
54,55.61,57.22,0
54,55.58,57.19,0
54,55.55,57.15,0
54,55.52,57.12,0
54,55.49,57.09,0
54,55.46,57.06,0
54,55.43,57.03,0
54,55.40,57.00,0
54,55.37,56.97,0
54,55.35,56.94,0
54,55.32,56.91,0
53,55.27,56.87,0
54,55.25,56.84,0
53,55.20,56.80,0
53,55.16,56.77,0
54,55.14,56.74,0
54,55.11,56.71,0
54,55.09,56.68,0
53,55.05,56.65,0
54,55.03,56.62,0
54,55.01,56.59,0
54,54.99,56.57,0
54,54.97,56.54,0
54,54.95,56.52,0
54,54.93,56.49,0
53,54.89,56.46,0
53,54.85,56.42,0
52,54.80,56.38,0
53,54.76,56.34,0
54,54.74,56.32,0
54,54.73,56.30,0
52,54.67,56.25,0
52,54.62,56.21,0
54,54.61,56.19,0
53,54.58,56.16,0
52,54.53,56.12,0
52,54.47,56.08,0
53,54.45,56.04,0
54,54.44,56.02,0
52,54.39,55.98,0
54,54.38,55.96,0
53,54.35,55.93,0
53,54.33,55.91,0
54,54.32,55.89,0
54,54.31,55.87,0
52,54.27,55.83,0
52,54.22,55.79,0
53,54.20,55.76,0
52,54.15,55.72,0
53,54.13,55.70,0
52,54.09,55.66,0
52,54.05,55.62,0
52,54.00,55.59,0
53,53.98,55.56,0
54,53.98,55.55,0
54,53.98,55.53,0
52,53.95,55.50,0
54,53.95,55.48,0
54,53.95,55.47,0
53,53.93,55.44,0
53,53.91,55.42,0
