Teste de posicionamento 4(EMG tendao-inervacao (Vermelho A, Verde C) + Ref no cotovelo) - 19/10/2024 - teste7 - 5 contrações
long frequencia = 1000;                 //frequência de aquisição do sinal, neste caso, 1000 sinais por segundo
float fator1 = 0.02, fator2 = 0.01;
float incerteza = 0.13;
float pico_basal = 130; // Mínimo para ser considerado um pico de contração
int filtro_horizontal=200000; //intervalo de 200ms valores não pode ter mais de 1 contração

Biceps_D,mediaMovel_1,mediaMovel_2,Contracao
43,0.86,0.43,0
44,1.72,0.87,0
44,2.57,1.30,0
43,3.38,1.71,0
44,4.19,2.14,0
45,5.01,2.57,0
46,5.83,3.00,0
43,6.57,3.40,0
45,7.34,3.82,0
43,8.05,4.21,0
46,8.81,4.63,0
44,9.51,5.02,0
44,10.20,5.41,0
43,10.86,5.79,0
44,11.52,6.17,0
41,12.11,6.52,0
45,12.77,6.90,0
44,13.39,7.27,0
44,14.01,7.64,0
44,14.61,8.00,0
44,15.19,8.36,0
44,15.77,8.72,0
44,16.33,9.07,0
44,16.89,9.42,0
43,17.41,9.76,0
44,17.94,10.10,0
44,18.46,10.44,0
43,18.95,10.76,0
44,19.45,11.10,0
46,19.99,11.45,0
44,20.47,11.77,0
45,20.96,12.10,0
44,21.42,12.42,0
45,21.89,12.75,0
44,22.33,13.06,0
44,22.76,13.37,0
44,23.19,13.68,0
50,23.73,14.04,0
44,24.13,14.34,0
43,24.51,14.63,0
46,24.94,14.94,0
44,25.32,15.23,0
44,25.69,15.52,0
44,26.06,15.80,0
44,26.42,16.08,0
41,26.71,16.33,0
43,27.04,16.60,0
44,27.37,16.87,0
43,27.69,17.14,0
44,28.01,17.40,0
43,28.31,17.66,0
43,28.61,17.91,0
45,28.93,18.18,0
40,29.16,18.40,0
44,29.45,18.66,0
42,29.70,18.89,0
44,29.99,19.14,0
44,30.27,19.39,0
43,30.52,19.63,0
42,30.75,19.85,0
45,31.04,20.10,0
44,31.30,20.34,0
42,31.51,20.56,0
44,31.76,20.79,0
44,32.01,21.02,0
44,32.25,21.25,0
43,32.46,21.47,0
44,32.69,21.70,0
44,32.92,21.92,0
43,33.12,22.13,0
42,33.30,22.33,0
44,33.51,22.55,0
44,33.72,22.76,0
43,33.91,22.96,0
42,34.07,23.15,0
44,34.27,23.36,0
44,34.46,23.57,0
43,34.63,23.76,0
42,34.78,23.95,0
44,34.97,24.15,0
44,35.15,24.34,0
43,35.30,24.53,0
42,35.44,24.71,0
44,35.61,24.90,0
43,35.76,25.08,0
42,35.88,25.25,0
44,36.04,25.44,0
44,36.20,25.62,0
44,36.36,25.81,0
42,36.47,25.97,0
44,36.62,26.15,0
44,36.77,26.33,0
43,36.89,26.49,0
42,37.00,26.65,0
44,37.14,26.82,0
44,37.27,26.99,0
45,37.43,27.17,0
44,37.56,27.34,0
44,37.69,27.51,0
44,37.81,27.67,0
43,37.92,27.83,0
42,38.00,27.97,0
44,38.12,28.13,0
44,38.24,28.29,0
43,38.33,28.43,0
44,38.45,28.59,0
44,38.56,28.74,0
43,38.65,28.89,0
42,38.71,29.02,0
44,38.82,29.17,0
44,38.92,29.32,0
44,39.02,29.46,0
44,39.12,29.61,0
44,39.22,29.75,0
44,39.32,29.89,0
43,39.39,30.03,0
43,39.46,30.16,0
43,39.53,30.28,0
44,39.62,30.42,0
44,39.71,30.56,0
42,39.76,30.67,0
44,39.84,30.80,0
43,39.90,30.93,0
43,39.97,31.05,0
43,40.03,31.17,0
44,40.11,31.30,0
43,40.16,31.41,0
43,40.22,31.53,0
44,40.30,31.65,0
44,40.37,31.78,0
42,40.40,31.88,0
44,40.47,32.00,0
43,40.53,32.11,0
44,40.59,32.23,0
42,40.62,32.33,0
43,40.67,32.43,0
42,40.70,32.53,0
44,40.76,32.64,0
42,40.79,32.74,0
43,40.83,32.84,0
44,40.90,32.95,0
42,40.92,33.04,0
42,40.94,33.13,0
44,41.00,33.24,0
46,41.10,33.37,0
42,41.12,33.45,0
42,41.14,33.54,0
42,41.15,33.62,0
43,41.19,33.72,0
42,41.21,33.80,0
42,41.22,33.88,0
43,41.26,33.97,0
47,41.37,34.10,0
42,41.39,34.18,0
42,41.40,34.26,0
41,41.39,34.33,0
42,41.40,34.41,0
42,41.41,34.48,0
42,41.43,34.56,0
43,41.46,34.64,0
39,41.41,34.68,0
42,41.42,34.76,0
42,41.43,34.83,0
42,41.44,34.90,0
41,41.43,34.96,0
42,41.45,35.03,0
42,41.46,35.10,0
42,41.47,35.17,0
41,41.46,35.23,0
42,41.47,35.30,0
42,41.48,35.36,0
43,41.51,35.44,0
42,41.52,35.51,0
42,41.53,35.57,0
41,41.52,35.63,0
42,41.53,35.69,0
42,41.54,35.75,0
42,41.55,35.82,0
42,41.56,35.88,0
42,41.56,35.94,0
42,41.57,36.00,0
42,41.58,36.06,0
42,41.59,36.12,0
42,41.60,36.18,0
42,41.61,36.24,0
42,41.61,36.29,0
42,41.62,36.35,0
42,41.63,36.41,0
42,41.64,36.46,0
42,41.64,36.52,0
42,41.65,36.57,0
41,41.64,36.62,0
42,41.65,36.67,0
42,41.65,36.72,0
42,41.66,36.78,0
42,41.67,36.83,0
42,41.67,36.88,0
42,41.68,36.93,0
42,41.69,36.98,0
41,41.67,37.02,0
42,41.68,37.07,0
44,41.73,37.14,0
42,41.73,37.19,0
42,41.74,37.24,0
42,41.74,37.29,0
42,41.75,37.33,0
41,41.73,37.37,0
42,41.74,37.42,0
42,41.74,37.46,0
42,41.75,37.51,0
41,41.73,37.54,0
42,41.74,37.59,0
41,41.72,37.62,0
41,41.71,37.65,0
41,41.69,37.69,0
42,41.70,37.73,0
41,41.69,37.76,0
42,41.69,37.81,0
41,41.68,37.84,0
42,41.69,37.88,0
44,41.73,37.94,0
42,41.74,37.98,0
41,41.72,38.01,0
42,41.73,38.05,0
44,41.77,38.11,0
42,41.78,38.15,0
42,41.78,38.19,0
42,41.79,38.23,0
41,41.77,38.25,0
42,41.78,38.29,0
42,41.78,38.33,0
44,41.82,38.39,0
41,41.81,38.41,0
42,41.81,38.45,0
42,41.82,38.48,0
42,41.82,38.52,0
43,41.84,38.56,0
42,41.85,38.60,0
42,41.85,38.63,0
42,41.85,38.67,0
42,41.86,38.70,0
42,41.86,38.73,0
42,41.86,38.76,0
42,41.86,38.80,0
43,41.89,38.84,0
42,41.89,38.87,0
44,41.93,38.92,0
42,41.93,38.95,0
45,41.99,39.01,0
43,42.01,39.05,0
42,42.01,39.08,0
43,42.03,39.12,0
45,42.09,39.18,0
42,42.09,39.21,0
42,42.09,39.24,0
44,42.13,39.28,0
45,42.18,39.34,0
43,42.20,39.38,0
44,42.24,39.42,0
44,42.27,39.47,0
45,42.33,39.53,0
43,42.34,39.56,0
42,42.33,39.58,0
44,42.37,39.63,0
43,42.38,39.66,0
44,42.41,39.71,0
44,42.44,39.75,0
47,42.53,39.82,0
43,42.54,39.85,0
44,42.57,39.89,0
44,42.60,39.94,0
44,42.63,39.98,0
43,42.64,40.01,0
44,42.66,40.05,0
46,42.73,40.11,0
41,42.70,40.11,0
44,42.72,40.15,0
44,42.75,40.19,0
44,42.77,40.23,0
45,42.82,40.28,0
45,42.86,40.32,0
46,42.92,40.38,0
46,42.99,40.44,0
44,43.01,40.47,0
46,43.07,40.53,0
44,43.08,40.56,0
46,43.14,40.62,0
47,43.22,40.68,0
46,43.28,40.73,0
48,43.37,40.81,0
45,43.40,40.85,0
46,43.45,40.90,0
48,43.55,40.97,0
48,43.63,41.04,0
46,43.68,41.09,0
47,43.75,41.15,0
46,43.79,41.20,0
48,43.88,41.27,0
46,43.92,41.31,0
47,43.98,41.37,0
49,44.08,41.45,0
47,44.14,41.50,0
46,44.18,41.55,0
47,44.23,41.60,0
50,44.35,41.69,0
46,44.38,41.73,0
46,44.41,41.77,0
46,44.45,41.81,0
46,44.48,41.86,0
46,44.51,41.90,0
46,44.54,41.94,0
46,44.57,41.98,0
49,44.66,42.05,0
47,44.70,42.10,0
46,44.73,42.14,0
46,44.75,42.18,0
45,44.76,42.21,0
46,44.78,42.24,0
48,44.85,42.30,0
47,44.89,42.35,0
47,44.93,42.39,0
49,45.01,42.46,0
47,45.05,42.51,0
47,45.09,42.55,0
49,45.17,42.62,0
49,45.25,42.68,0
49,45.32,42.74,0
49,45.40,42.80,0
49,45.47,42.87,0
48,45.52,42.92,0
48,45.57,42.97,0
49,45.64,43.03,0
49,45.70,43.09,0
48,45.75,43.14,0
48,45.80,43.19,0
49,45.86,43.24,0
49,45.92,43.30,0
50,46.00,43.37,0
48,46.04,43.42,0
49,46.10,43.47,0
50,46.18,43.54,0
49,46.24,43.59,0
50,46.31,43.66,0
49,46.37,43.71,0
49,46.42,43.76,0
50,46.49,43.82,0
48,46.52,43.87,0
50,46.59,43.93,0
49,46.64,43.98,0
50,46.71,44.04,0
50,46.77,44.10,0
52,46.88,44.18,0
50,46.94,44.24,0
50,47.00,44.29,0
50,47.06,44.35,0
52,47.16,44.43,0
51,47.24,44.49,0
52,47.33,44.57,0
52,47.42,44.64,0
52,47.52,44.72,0
51,47.59,44.78,0
53,47.69,44.86,0
52,47.78,44.93,0
53,47.88,45.01,0
54,48.01,45.10,0
54,48.13,45.19,0
52,48.20,45.26,0
53,48.30,45.34,0
52,48.37,45.40,0
52,48.45,45.47,0
54,48.56,45.55,0
53,48.65,45.63,0
52,48.71,45.69,0
52,48.78,45.76,0
52,48.84,45.82,0
53,48.93,45.89,0
52,48.99,45.95,0
56,49.13,46.05,0
54,49.23,46.13,0
54,49.32,46.21,0
56,49.45,46.31,0
56,49.59,46.40,0
60,49.79,46.54,0
55,49.90,46.63,0
56,50.02,46.72,0
56,50.14,46.81,0
56,50.26,46.90,0
57,50.39,47.00,0
56,50.50,47.09,0
57,50.63,47.19,0
58,50.78,47.30,0
58,50.93,47.41,0
58,51.07,47.51,0
58,51.21,47.62,0
58,51.34,47.72,0
58,51.47,47.83,0
58,51.61,47.93,0
58,51.73,48.03,0
56,51.82,48.11,0
58,51.94,48.21,0
59,52.08,48.32,0
57,52.18,48.40,0
57,52.28,48.49,0
58,52.39,48.58,0
61,52.56,48.71,0
59,52.69,48.81,0
58,52.80,48.90,0
59,52.92,49.00,0
57,53.01,49.08,0
59,53.12,49.18,0
58,53.22,49.27,0
59,53.34,49.37,0
60,53.47,49.47,0
60,53.60,49.58,0
58,53.69,49.66,0
59,53.80,49.76,0
59,53.90,49.85,0
58,53.98,49.93,0
58,54.06,50.01,0
61,54.20,50.12,0
60,54.32,50.22,0
60,54.43,50.32,0
60,54.54,50.41,0
60,54.65,50.51,0
61,54.78,50.62,0
60,54.88,50.71,0
60,54.99,50.80,0
60,55.09,50.89,0
61,55.20,51.00,0
60,55.30,51.09,0
60,55.39,51.17,0
62,55.53,51.28,0
61,55.64,51.38,0
59,55.70,51.46,0
60,55.79,51.54,0
61,55.89,51.64,0
61,55.99,51.73,0
61,56.09,51.82,0
60,56.17,51.90,0
60,56.25,51.99,0
62,56.36,52.09,0
62,56.48,52.18,0
60,56.55,52.26,0
61,56.64,52.35,0
60,56.70,52.43,0
60,56.77,52.50,0
60,56.83,52.58,0
62,56.94,52.67,0
60,57.00,52.74,0
60,57.06,52.82,0
60,57.12,52.89,0
62,57.22,52.98,0
60,57.27,53.05,0
60,57.33,53.12,0
60,57.38,53.19,0
61,57.45,53.27,0
60,57.50,53.33,0
60,57.55,53.40,0
62,57.64,53.49,0
60,57.69,53.55,0
60,57.74,53.62,0
60,57.78,53.68,0
60,57.82,53.74,0
61,57.89,53.82,0
60,57.93,53.88,0
60,57.97,53.94,0
62,58.05,54.02,0
62,58.13,54.10,0
61,58.19,54.17,0
62,58.27,54.25,0
62,58.34,54.32,0
61,58.39,54.39,0
62,58.47,54.47,0
62,58.54,54.54,0
62,58.61,54.62,0
62,58.67,54.69,0
62,58.74,54.76,0
62,58.80,54.84,0
62,58.87,54.91,0
62,58.93,54.98,0
62,58.99,55.05,0
62,59.05,55.12,0
62,59.11,55.19,0
62,59.17,55.26,0
64,59.27,55.34,0
64,59.36,55.43,0
62,59.41,55.50,0
62,59.47,55.56,0
62,59.52,55.62,0
62,59.57,55.69,0
62,59.61,55.75,0
63,59.68,55.82,0
62,59.73,55.89,0
62,59.77,55.95,0
62,59.82,56.01,0
63,59.88,56.08,0
64,59.96,56.16,0
66,60.09,56.26,0
62,60.12,56.31,0
66,60.24,56.41,0
64,60.32,56.49,0
64,60.39,56.56,0
64,60.46,56.63,0
64,60.53,56.71,0
65,60.62,56.79,0
63,60.67,56.85,0
64,60.74,56.92,0
64,60.80,57.00,0
64,60.87,57.07,0
65,60.95,57.15,0
65,61.03,57.22,0
64,61.09,57.29,0
65,61.17,57.37,0
65,61.24,57.44,0
67,61.36,57.54,0
69,61.51,57.65,0
68,61.64,57.76,0
68,61.77,57.86,0
68,61.89,57.96,0
68,62.02,58.06,0
69,62.15,58.17,0
68,62.27,58.27,0
68,62.39,58.37,0
68,62.50,58.46,0
68,62.61,58.56,0
68,62.72,58.65,0
66,62.78,58.73,0
69,62.91,58.83,0
69,63.03,58.93,0
68,63.13,59.02,0
68,63.23,59.11,0
68,63.32,59.20,0
69,63.43,59.30,0
68,63.53,59.39,0
68,63.62,59.47,0
69,63.72,59.57,0
69,63.83,59.66,0
68,63.91,59.75,0
70,64.03,59.85,0
70,64.15,59.95,0
69,64.25,60.04,0
70,64.36,60.14,0
68,64.44,60.22,0
69,64.53,60.31,0
70,64.64,60.40,0
70,64.75,60.50,0
70,64.85,60.59,0
69,64.93,60.68,0
69,65.01,60.76,0
70,65.11,60.85,0
70,65.21,60.94,0
72,65.35,61.06,0
70,65.44,61.14,0
70,65.53,61.23,0
71,65.64,61.33,0
73,65.79,61.45,0
74,65.95,61.57,0
74,66.11,61.70,0
74,66.27,61.82,0
75,66.45,61.95,0
74,66.60,62.07,0
76,66.79,62.21,0
76,66.97,62.35,0
76,67.15,62.49,0
76,67.33,62.62,0
79,67.56,62.79,0
78,67.77,62.94,0
77,67.95,63.08,0
76,68.12,63.21,0
77,68.29,63.35,0
76,68.45,63.47,0
77,68.62,63.61,0
77,68.79,63.74,0
77,68.95,63.87,0
79,69.15,64.02,0
78,69.33,64.16,0
79,69.52,64.31,0
79,69.71,64.46,0
79,69.90,64.61,0
80,70.10,64.76,0
80,70.30,64.91,0
79,70.47,65.05,0
78,70.62,65.18,0
79,70.79,65.32,0
81,70.99,65.48,0
80,71.17,65.62,0
80,71.35,65.77,0
81,71.54,65.92,0
82,71.75,66.08,0
80,71.92,66.22,0
80,72.08,66.36,0
80,72.24,66.49,0
81,72.41,66.64,0
80,72.56,66.77,0
82,72.75,66.92,0
82,72.94,67.07,0
82,73.12,67.22,0
83,73.32,67.38,0
82,73.49,67.53,0
83,73.68,67.68,0
84,73.89,67.85,0
82,74.05,67.99,0
82,74.21,68.13,0
83,74.38,68.28,0
82,74.54,68.41,0
83,74.71,68.56,0
82,74.85,68.69,0
84,75.03,68.85,0
83,75.19,68.99,0
84,75.37,69.14,0
86,75.58,69.31,0
88,75.83,69.49,0
91,76.13,69.71,0
88,76.37,69.89,0
86,76.56,70.05,0
89,76.81,70.24,0
89,77.06,70.43,0
88,77.28,70.61,0
88,77.49,70.78,0
89,77.72,70.96,0
89,77.95,71.14,0
90,78.19,71.33,0
88,78.38,71.50,0
89,78.60,71.67,0
90,78.82,71.86,0
90,79.05,72.04,0
90,79.27,72.22,0
92,79.52,72.41,0
87,79.67,72.56,0
90,79.88,72.73,0
90,80.08,72.91,0
91,80.30,73.09,0
90,80.49,73.26,0
92,80.72,73.44,0
90,80.91,73.61,0
90,81.09,73.77,0
91,81.29,73.95,0
90,81.46,74.11,0
90,81.63,74.27,0
92,81.84,74.44,0
92,82.04,74.62,0
90,82.20,74.77,0
92,82.40,74.95,0
95,82.65,75.15,0
96,82.92,75.35,0
95,83.16,75.55,0
96,83.42,75.76,0
97,83.69,75.97,0
98,83.97,76.19,0
98,84.25,76.41,0
98,84.53,76.62,0
98,84.80,76.84,0
98,85.06,77.05,0
99,85.34,77.27,0
98,85.59,77.47,0
98,85.84,77.68,0
98,86.09,77.88,0
100,86.36,78.10,0
100,86.64,78.32,0
101,86.92,78.55,0
102,87.23,78.78,0
101,87.50,79.01,0
101,87.77,79.23,0
101,88.04,79.44,0
101,88.29,79.66,0
104,88.61,79.90,0
107,88.98,80.17,0
105,89.30,80.42,0
105,89.61,80.67,0
105,89.92,80.91,0
105,90.22,81.15,0
105,90.52,81.39,0
107,90.85,81.65,0
105,91.13,81.88,0
105,91.41,82.11,0
106,91.70,82.35,0
106,91.98,82.59,0
107,92.28,82.83,0
106,92.56,83.06,0
107,92.85,83.30,0
108,93.15,83.55,0
107,93.43,83.78,0
107,93.70,84.02,0
108,93.99,84.26,0
109,94.29,84.50,0
108,94.56,84.74,0
108,94.83,84.97,0
108,95.09,85.20,0
107,95.33,85.42,0
107,95.56,85.63,0
108,95.81,85.86,0
107,96.04,86.07,0
108,96.28,86.29,0
109,96.53,86.52,0
111,96.82,86.76,0
110,97.08,86.99,0
109,97.32,87.21,0
111,97.59,87.45,0
111,97.86,87.69,0
111,98.13,87.92,0
111,98.38,88.15,0
111,98.64,88.38,0
111,98.88,88.61,0
109,99.09,88.81,0
111,99.32,89.03,0
111,99.56,89.25,0
112,99.81,89.48,0
113,100.07,89.71,0
109,100.25,89.91,0
112,100.48,90.13,0
112,100.71,90.35,0
114,100.98,90.58,0
112,101.20,90.80,0
113,101.44,91.02,0
112,101.65,91.23,0
114,101.89,91.46,0
112,102.10,91.66,0
113,102.31,91.88,0
113,102.53,92.09,0
113,102.74,92.30,0
112,102.92,92.49,0
113,103.12,92.70,0
114,103.34,92.91,0
113,103.54,93.11,0
112,103.70,93.30,0
112,103.87,93.49,0
112,104.03,93.67,0
112,104.19,93.86,0
111,104.33,94.03,0
112,104.48,94.21,0
112,104.63,94.39,0
112,104.78,94.56,0
110,104.88,94.72,0
113,105.05,94.90,0
111,105.17,95.06,0
111,105.28,95.22,0
110,105.38,95.37,0
111,105.49,95.52,0
111,105.60,95.68,0
111,105.71,95.83,0
111,105.81,95.98,0
111,105.92,96.13,0
110,106.00,96.27,0
110,106.08,96.41,0
110,106.16,96.54,0
110,106.23,96.68,0
110,106.31,96.81,0
112,106.42,96.96,0
110,106.49,97.09,0
112,106.60,97.24,0
111,106.69,97.38,0
110,106.76,97.51,0
110,106.82,97.63,0
110,106.89,97.76,0
110,106.95,97.88,0
110,107.01,98.00,0
109,107.05,98.11,0
110,107.11,98.23,0
108,107.13,98.33,0
109,107.16,98.43,0
108,107.18,98.53,0
112,107.28,98.66,0
108,107.29,98.76,0
109,107.33,98.86,0
109,107.36,98.96,0
108,107.37,99.05,0
108,107.38,99.14,0
109,107.42,99.24,0
108,107.43,99.33,0
107,107.42,99.40,0
108,107.43,99.49,0
108,107.44,99.57,0
107,107.43,99.65,0
105,107.39,99.70,0
106,107.36,99.77,0
107,107.35,99.84,0
106,107.32,99.90,0
107,107.32,99.97,0
107,107.31,100.04,0
107,107.30,100.11,0
107,107.30,100.18,0
107,107.29,100.25,0
108,107.31,100.32,0
107,107.30,100.39,0
107,107.29,100.46,0
107,107.29,100.52,0
107,107.28,100.59,0
105,107.24,100.63,0
106,107.21,100.69,0
105,107.17,100.73,0
105,107.12,100.77,0
106,107.10,100.82,0
105,107.06,100.87,0
105,107.02,100.91,0
105,106.98,100.95,0
105,106.94,100.99,0
105,106.90,101.03,0
105,106.86,101.07,0
105,106.83,101.11,0
104,106.77,101.14,0
104,106.71,101.17,0
104,106.66,101.19,0
104,106.61,101.22,0
104,106.55,101.25,0
105,106.52,101.29,0
103,106.45,101.30,0
103,106.38,101.32,0
103,106.32,101.34,0
104,106.27,101.36,0
103,106.20,101.38,0
103,106.14,101.40,0
103,106.08,101.41,0
103,106.02,101.43,0
103,105.96,101.44,0
102,105.88,101.45,0
103,105.82,101.47,0
103,105.76,101.48,0
103,105.71,101.50,0
103,105.65,101.51,0
103,105.60,101.53,0
102,105.53,101.53,0
102,105.46,101.54,0
102,105.39,101.54,0
101,105.30,101.53,0
101,105.21,101.53,0
101,105.13,101.52,0
104,105.11,101.55,0
101,105.03,101.54,0
101,104.94,101.54,0
101,104.87,101.53,0
100,104.77,101.52,0
99,104.65,101.49,0
102,104.60,101.50,0
100,104.51,101.48,0
101,104.44,101.48,0
99,104.33,101.45,0
99,104.22,101.43,0
99,104.12,101.40,0
99,104.02,101.38,0
98,103.90,101.35,0
98,103.78,101.31,0
100,103.70,101.30,0
99,103.61,101.28,0
99,103.52,101.25,0
99,103.43,101.23,0
98,103.32,101.20,0
98,103.21,101.17,0
98,103.11,101.14,0
98,103.00,101.10,0
98,102.90,101.07,0
98,102.81,101.04,0
98,102.71,101.01,0
98,102.62,100.98,0
97,102.50,100.94,0
97,102.39,100.90,0
98,102.31,100.87,0
97,102.20,100.83,0
97,102.10,100.80,0
96,101.97,100.75,0
96,101.85,100.70,0
96,101.74,100.65,0
96,101.62,100.61,0
96,101.51,100.56,0
96,101.40,100.52,0
96,101.29,100.47,0
96,101.19,100.43,0
96,101.08,100.38,0
96,100.98,100.34,0
96,100.88,100.29,0
96,100.78,100.25,0
95,100.67,100.20,0
96,100.57,100.16,0
95,100.46,100.11,0
95,100.35,100.05,0
94,100.23,99.99,0
95,100.12,99.94,0
95,100.02,99.89,0
95,99.92,99.85,0
96,99.84,99.81,0
95,99.74,99.76,0
94,99.63,99.70,0
94,99.52,99.64,0
94,99.41,99.59,0
94,99.30,99.53,0
94,99.19,99.48,0
94,99.09,99.42,0
95,99.01,99.38,0
94,98.91,99.32,0
94,98.81,99.27,0
94,98.71,99.22,0
94,98.62,99.17,0
93,98.51,99.10,0
94,98.42,99.05,0
93,98.31,98.99,0
93,98.20,98.93,0
94,98.12,98.88,0
92,97.99,98.81,0
93,97.89,98.76,0
92,97.78,98.69,0
92,97.66,98.62,0
92,97.55,98.56,0
94,97.48,98.51,0
93,97.39,98.45,0
92,97.28,98.39,0
92,97.17,98.33,0
91,97.05,98.25,0
93,96.97,98.20,0
91,96.85,98.13,0
92,96.75,98.07,0
90,96.62,97.99,0
92,96.53,97.93,0
92,96.44,97.87,0
91,96.33,97.80,0
91,96.22,97.73,0
91,96.12,97.66,0
90,95.99,97.59,0
90,95.87,97.51,0
89,95.74,97.43,0
91,95.64,97.36,0
90,95.53,97.29,0
90,95.42,97.22,0
89,95.29,97.13,0
90,95.18,97.06,0
90,95.08,96.99,0
90,94.98,96.92,0
90,94.88,96.85,0
90,94.78,96.78,0
90,94.69,96.72,0
90,94.59,96.65,0
90,94.50,96.58,0
91,94.43,96.53,0
90,94.34,96.46,0
90,94.25,96.40,0
89,94.15,96.32,0
89,94.05,96.25,0
92,94.01,96.21,0
88,93.89,96.12,0
89,93.79,96.05,0
88,93.67,95.97,0
88,93.56,95.89,0
88,93.45,95.81,0
88,93.34,95.74,0
88,93.23,95.66,0
88,93.13,95.58,0
88,93.02,95.51,0
88,92.92,95.43,0
88,92.83,95.36,0
88,92.73,95.28,0
88,92.63,95.21,0
88,92.54,95.14,0
88,92.45,95.07,0
85,92.30,94.97,0
87,92.20,94.89,0
88,92.11,94.82,0
87,92.01,94.74,0
86,91.89,94.65,0
88,91.81,94.59,0
88,91.74,94.52,0
86,91.62,94.43,0
88,91.55,94.37,0
86,91.44,94.29,0
87,91.35,94.21,0
87,91.26,94.14,0
87,91.18,94.07,0
86,91.07,93.99,0
87,90.99,93.92,0
86,90.89,93.84,0
88,90.83,93.78,0
87,90.76,93.71,0
87,90.68,93.65,0
88,90.63,93.59,0
85,90.52,93.50,0
86,90.43,93.43,0
87,90.36,93.37,0
87,90.29,93.30,0
86,90.20,93.23,0
86,90.12,93.16,0
87,90.06,93.09,0
87,90.00,93.03,0
87,89.94,92.97,0
86,89.86,92.90,0
87,89.80,92.84,0
88,89.76,92.80,0
86,89.69,92.73,0
86,89.62,92.66,0
86,89.54,92.59,0
86,89.47,92.53,0
87,89.42,92.47,0
86,89.35,92.41,0
86,89.29,92.34,0
85,89.20,92.27,0
86,89.14,92.21,0
86,89.07,92.15,0
86,89.01,92.08,0
85,88.93,92.01,0
85,88.85,91.94,0
85,88.78,91.87,0
85,88.70,91.81,0
85,88.63,91.74,0
85,88.56,91.67,0
84,88.46,91.59,0
84,88.37,91.52,0
84,88.29,91.44,0
84,88.20,91.37,0
84,88.12,91.29,0
84,88.04,91.22,0
86,87.99,91.17,0
84,87.91,91.10,0
83,87.82,91.02,0
84,87.74,90.95,0
84,87.67,90.88,0
83,87.57,90.80,0
82,87.46,90.71,0
83,87.37,90.63,0
84,87.30,90.57,0
83,87.22,90.49,0
82,87.11,90.41,0
84,87.05,90.34,0
83,86.97,90.27,0
82,86.87,90.19,0
82,86.77,90.10,0
82,86.68,90.02,0
83,86.60,89.95,0
82,86.51,89.87,0
82,86.42,89.79,0
84,86.37,89.74,0
82,86.29,89.66,0
82,86.20,89.58,0
82,86.12,89.51,0
82,86.03,89.43,0
83,85.97,89.37,0
82,85.89,89.29,0
82,85.82,89.22,0
79,85.68,89.12,0
82,85.61,89.05,0
82,85.53,88.98,0
82,85.46,88.91,0
83,85.41,88.85,0
82,85.35,88.78,0
80,85.24,88.69,0
82,85.17,88.62,0
81,85.09,88.55,0
80,84.99,88.46,0
80,84.89,88.38,0
79,84.77,88.28,0
81,84.70,88.21,0
82,84.64,88.15,0
82,84.59,88.09,0
80,84.50,88.01,0
81,84.43,87.94,0
80,84.34,87.86,0
80,84.25,87.78,0
79,84.15,87.69,0
79,84.04,87.60,0
80,83.96,87.53,0
81,83.90,87.46,0
80,83.83,87.39,0
80,83.75,87.31,0
80,83.67,87.24,0
80,83.60,87.17,0
79,83.51,87.09,0
80,83.44,87.02,0
80,83.37,86.95,0
80,83.30,86.88,0
80,83.24,86.81,0
80,83.17,86.74,0
77,83.05,86.64,0
79,82.97,86.57,0
79,82.89,86.49,0
79,82.81,86.42,0
79,82.73,86.34,0
79,82.66,86.27,0
79,82.59,86.20,0
79,82.51,86.12,0
80,82.46,86.06,0
78,82.37,85.98,0
78,82.29,85.90,0
79,82.22,85.83,0
77,82.12,85.74,0
78,82.03,85.67,0
79,81.97,85.60,0
78,81.89,85.52,0
79,81.84,85.46,0
79,81.78,85.39,0
78,81.70,85.32,0
79,81.65,85.26,0
77,81.56,85.17,0
78,81.49,85.10,0
78,81.42,85.03,0
78,81.35,84.96,0
77,81.26,84.88,0
78,81.20,84.81,0
78,81.13,84.75,0
78,81.07,84.68,0
77,80.99,84.60,0
78,80.93,84.53,0
78,80.87,84.47,0
77,80.79,84.39,0
79,80.76,84.34,0
76,80.66,84.26,0
78,80.61,84.20,0
78,80.56,84.13,0
77,80.48,84.06,0
77,80.42,83.99,0
76,80.33,83.91,0
77,80.26,83.84,0
77,80.20,83.77,0
75,80.09,83.69,0
76,80.01,83.61,0
76,79.93,83.53,0
76,79.85,83.46,0
76,79.77,83.38,0
76,79.70,83.31,0
76,79.62,83.24,0
76,79.55,83.16,0
76,79.48,83.09,0
76,79.41,83.02,0
76,79.34,82.95,0
75,79.26,82.87,0
76,79.19,82.80,0
77,79.15,82.74,0
76,79.08,82.68,0
75,79.00,82.60,0
76,78.94,82.53,0
76,78.88,82.47,0
77,78.85,82.41,0
76,78.79,82.35,0
76,78.73,82.29,0
78,78.72,82.24,0
77,78.68,82.19,0
77,78.65,82.14,0
76,78.60,82.08,0
76,78.55,82.02,0
76,78.49,81.96,0
76,78.44,81.90,0
76,78.40,81.84,0
78,78.39,81.80,0
77,78.36,81.75,0
76,78.31,81.69,0
76,78.27,81.64,0
76,78.22,81.58,0
75,78.16,81.52,0
76,78.11,81.46,0
76,78.07,81.41,0
76,78.03,81.35,0
76,77.99,81.30,0
76,77.95,81.25,0
76,77.91,81.19,0
76,77.87,81.14,0
76,77.83,81.09,0
74,77.76,81.02,0
75,77.70,80.96,0
75,77.65,80.90,0
75,77.60,80.84,0
74,77.52,80.77,0
76,77.49,80.72,0
74,77.42,80.66,0
75,77.38,80.60,0
74,77.31,80.53,0
76,77.28,80.49,0
74,77.22,80.42,0
75,77.17,80.37,0
76,77.15,80.33,0
74,77.09,80.26,0
74,77.02,80.20,0
74,76.96,80.14,0
74,76.90,80.08,0
76,76.89,80.04,0
74,76.83,79.98,0
73,76.75,79.91,0
73,76.68,79.84,0
74,76.62,79.78,0
74,76.57,79.72,0
75,76.54,79.67,0
76,76.53,79.64,0
74,76.48,79.58,0
74,76.43,79.52,0
74,76.38,79.47,0
75,76.35,79.42,0
74,76.31,79.37,0
74,76.26,79.32,0
75,76.23,79.27,0
73,76.17,79.21,0
74,76.13,79.16,0
74,76.08,79.11,0
74,76.04,79.06,0
73,75.98,79.00,0
73,75.92,78.94,0
74,75.88,78.89,0
74,75.85,78.84,0
74,75.81,78.79,0
72,75.73,78.72,0
72,75.66,78.65,0
72,75.58,78.59,0
73,75.53,78.53,0
72,75.46,78.47,0
72,75.39,78.40,0
74,75.36,78.36,0
73,75.32,78.30,0
72,75.25,78.24,0
73,75.21,78.19,0
72,75.14,78.13,0
72,75.08,78.07,0
72,75.02,78.00,0
72,74.96,77.94,0
72,74.90,77.89,0
72,74.84,77.83,0
72,74.78,77.77,0
72,74.73,77.71,0
72,74.67,77.65,0
71,74.60,77.59,0
72,74.55,77.53,0
70,74.46,77.46,0
72,74.41,77.40,0
72,74.36,77.35,0
72,74.31,77.29,0
70,74.23,77.22,0
72,74.18,77.17,0
71,74.12,77.11,0
72,74.08,77.06,0
70,73.99,76.98,0
72,73.95,76.94,0
70,73.88,76.87,0
72,73.84,76.82,0
70,73.76,76.75,0
70,73.69,76.68,0
71,73.63,76.62,0
70,73.56,76.56,0
70,73.49,76.49,0
71,73.44,76.44,0
70,73.37,76.37,0
70,73.30,76.31,0
70,73.24,76.25,0
70,73.17,76.18,0
70,73.11,76.12,0
69,73.03,76.05,0
70,72.97,75.99,0
70,72.91,75.93,0
70,72.85,75.87,0
70,72.79,75.81,0
70,72.74,75.75,0
70,72.68,75.70,0
70,72.63,75.64,0
70,72.57,75.58,0
69,72.50,75.52,0
70,72.45,75.46,0
70,72.40,75.41,0
68,72.32,75.33,0
68,72.23,75.26,0
70,72.18,75.21,0
69,72.12,75.15,0
68,72.04,75.07,0
69,71.98,75.01,0
70,71.94,74.96,0
68,71.86,74.89,0
68,71.78,74.82,0
69,71.73,74.77,0
69,71.67,74.71,0
68,71.60,74.64,0
68,71.53,74.58,0
68,71.46,74.51,0
68,71.39,74.44,0
69,71.34,74.39,0
69,71.29,74.34,0
68,71.23,74.27,0
67,71.14,74.20,0
68,71.08,74.14,0
68,71.02,74.08,0
68,70.96,74.02,0
68,70.90,73.96,0
68,70.84,73.90,0
68,70.78,73.84,0
68,70.73,73.78,0
66,70.63,73.70,0
68,70.58,73.64,0
67,70.51,73.58,0
66,70.42,73.50,0
69,70.39,73.46,0
69,70.36,73.41,0
68,70.32,73.36,0
68,70.27,73.30,0
68,70.22,73.25,0
67,70.16,73.19,0
66,70.08,73.12,0
66,69.99,73.05,0
66,69.91,72.98,0
67,69.86,72.92,0
66,69.78,72.85,0
63,69.64,72.75,0
68,69.61,72.70,0
66,69.54,72.63,0
66,69.47,72.57,0
66,69.40,72.50,0
67,69.35,72.45,0
66,69.28,72.38,0
66,69.22,72.32,0
63,69.09,72.23,0
65,69.01,72.15,0
67,68.97,72.10,0
69,68.97,72.07,0
66,68.91,72.01,0
65,68.83,71.94,0
65,68.76,71.87,0
66,68.70,71.81,0
66,68.65,71.75,0
66,68.60,71.70,0
66,68.54,71.64,0
66,68.49,71.58,0
66,68.44,71.53,0
66,68.39,71.47,0
66,68.35,71.42,0
66,68.30,71.36,0
66,68.25,71.31,0
66,68.21,71.26,0
66,68.16,71.20,0
66,68.12,71.15,0
66,68.08,71.10,0
67,68.06,71.06,0
69,68.08,71.04,0
66,68.03,70.99,0
65,67.97,70.93,0
65,67.91,70.87,0
66,67.88,70.82,0
65,67.82,70.76,0
66,67.78,70.71,0
65,67.73,70.66,0
66,67.69,70.61,0
64,67.62,70.54,0
64,67.55,70.48,0
64,67.47,70.41,0
66,67.44,70.37,0
63,67.36,70.30,0
64,67.29,70.23,0
65,67.24,70.18,0
64,67.18,70.12,0
65,67.13,70.07,0
65,67.09,70.02,0
63,67.01,69.95,0
68,67.03,69.93,0
64,66.97,69.87,0
65,66.93,69.82,0
65,66.89,69.77,0
64,66.83,69.71,0
65,66.80,69.67,0
64,66.74,69.61,0
66,66.73,69.57,0
66,66.71,69.54,0
64,66.66,69.48,0
64,66.60,69.43,0
65,66.57,69.38,0
65,66.54,69.34,0
64,66.49,69.29,0
64,66.44,69.23,0
65,66.41,69.19,0
65,66.38,69.15,0
65,66.36,69.11,0
64,66.31,69.06,0
66,66.30,69.03,0
65,66.28,68.99,0
64,66.23,68.94,0
64,66.19,68.89,0
64,66.14,68.84,0
65,66.12,68.80,0
64,66.08,68.75,0
64,66.04,68.70,0
64,65.99,68.66,0
65,65.97,68.62,0
64,65.94,68.57,0
64,65.90,68.53,0
64,65.86,68.48,0
64,65.82,68.44,0
64,65.79,68.39,0
64,65.75,68.35,0
64,65.71,68.31,0
64,65.68,68.26,0
64,65.65,68.22,0
64,65.61,68.18,0
64,65.58,68.14,0
64,65.55,68.10,0
64,65.52,68.05,0
64,65.49,68.01,0
64,65.46,67.97,0
64,65.43,67.93,0
63,65.38,67.88,0
62,65.31,67.83,0
63,65.27,67.78,0
64,65.24,67.74,0
64,65.22,67.70,0
62,65.15,67.65,0
63,65.11,67.60,0
63,65.07,67.55,0
62,65.01,67.50,0
64,64.99,67.46,0
63,64.95,67.42,0
63,64.91,67.37,0
62,64.85,67.32,0
62,64.79,67.27,0
64,64.78,67.23,0
63,64.74,67.19,0
62,64.69,67.14,0
63,64.65,67.10,0
64,64.64,67.07,0
63,64.61,67.03,0
67,64.65,67.03,0
64,64.64,67.00,0
63,64.61,66.96,0
63,64.58,66.92,0
62,64.52,66.87,0
64,64.51,66.84,0
64,64.50,66.81,0
63,64.47,66.77,0
62,64.42,66.72,0
62,64.38,66.68,0
63,64.35,66.64,0
64,64.34,66.61,0
62,64.29,66.57,0
62,64.25,66.52,0
62,64.20,66.48,0
62,64.16,66.43,0
61,64.10,66.38,0
62,64.05,66.33,0
63,64.03,66.30,0
63,64.01,66.27,0
64,64.01,66.25,0
64,64.01,66.22,0
62,63.97,66.18,0
63,63.95,66.15,0
64,63.95,66.13,0
64,63.95,66.11,0
64,63.96,66.08,0
63,63.94,66.05,0
64,63.94,66.03,0
64,63.94,66.01,0
64,63.94,65.99,0
63,63.92,65.96,0
64,63.92,65.94,0
64,63.92,65.92,0
64,63.93,65.90,0
64,63.93,65.89,0
64,63.93,65.87,0
64,63.93,65.85,0
64,63.93,65.83,0
65,63.95,65.82,0
64,63.95,65.80,0
64,63.95,65.79,0
64,63.96,65.77,0
64,63.96,65.75,0
64,63.96,65.73,0
64,63.96,65.71,0
64,63.96,65.70,0
64,63.96,65.68,0
64,63.96,65.66,0
64,63.96,65.65,0
65,63.98,65.64,0
64,63.98,65.62,0
64,63.98,65.61,0
64,63.98,65.59,0
65,64.00,65.59,0
65,64.02,65.58,0
64,64.02,65.56,0
64,64.02,65.55,0
64,64.02,65.53,0
64,64.02,65.52,0
64,64.02,65.50,0
64,64.02,65.49,0
65,64.04,65.48,0
65,64.06,65.48,0
64,64.06,65.46,0
64,64.06,65.45,0
65,64.08,65.44,0
64,64.07,65.43,0
64,64.07,65.42,0
64,64.07,65.40,0
64,64.07,65.39,0
64,64.07,65.37,0
64,64.07,65.36,0
64,64.07,65.35,0
65,64.08,65.34,0
64,64.08,65.33,0
64,64.08,65.32,0
64,64.08,65.30,0
65,64.10,65.30,0
65,64.12,65.30,0
66,64.15,65.30,0
66,64.19,65.31,0
66,64.23,65.32,0
66,64.26,65.32,0
66,64.30,65.33,0
65,64.31,65.33,0
66,64.35,65.33,0
68,64.42,65.36,0
66,64.45,65.37,0
66,64.48,65.37,0
68,64.55,65.40,0
67,64.60,65.42,0
66,64.63,65.42,0
68,64.70,65.45,0
67,64.74,65.46,0
66,64.77,65.47,0
66,64.79,65.47,0
66,64.82,65.48,0
67,64.86,65.49,0
66,64.88,65.50,0
68,64.94,65.52,0
66,64.97,65.53,0
67,65.01,65.54,0
67,65.05,65.56,0
66,65.07,65.56,0
68,65.12,65.59,0
67,65.16,65.60,0
67,65.20,65.62,0
68,65.25,65.64,0
68,65.31,65.66,0
68,65.36,65.69,0
68,65.42,65.71,0
68,65.47,65.73,0
68,65.52,65.76,0
68,65.57,65.78,0
71,65.68,65.83,0
68,65.72,65.85,0
68,65.77,65.87,0
68,65.81,65.89,0
71,65.92,65.95,0
68,65.96,65.97,0
68,66.00,65.99,0
68,66.04,66.01,0
68,66.08,66.03,0
68,66.12,66.05,0
68,66.15,66.07,0
68,66.19,66.08,0
71,66.29,66.13,0
68,66.32,66.15,0
68,66.36,66.17,0
67,66.37,66.18,0
69,66.42,66.21,0
68,66.45,66.23,0
68,66.48,66.24,0
69,66.53,66.27,0
69,66.58,66.30,0
68,66.61,66.32,0
67,66.62,66.32,0
68,66.65,66.34,0
69,66.69,66.37,0
69,66.74,66.39,0
69,66.79,66.42,0
69,66.83,66.44,0
71,66.91,66.49,0
69,66.95,66.51,0
68,66.98,66.53,0
69,67.02,66.55,0
70,67.08,66.59,0
69,67.11,66.61,0
70,67.17,66.65,0
70,67.23,66.68,0
70,67.28,66.71,0
70,67.34,66.75,0
70,67.39,66.78,0
69,67.42,66.80,0
70,67.48,66.83,0
70,67.53,66.86,0
70,67.58,66.90,0
71,67.64,66.94,0
72,67.73,66.99,0
72,67.82,67.04,0
72,67.90,67.09,0
72,67.98,67.14,0
72,68.06,67.18,0
72,68.14,67.23,0
72,68.22,67.28,0
72,68.29,67.33,0
72,68.37,67.37,0
72,68.44,67.42,0
72,68.51,67.47,0
73,68.60,67.52,0
72,68.67,67.57,0
73,68.76,67.62,0
72,68.82,67.67,0
72,68.88,67.71,0
72,68.95,67.75,0
72,69.01,67.79,0
72,69.07,67.84,0
73,69.15,67.89,0
72,69.20,67.93,0
72,69.26,67.97,0
72,69.31,68.01,0
74,69.41,68.07,0
73,69.48,68.12,0
72,69.53,68.16,0
74,69.62,68.22,0
74,69.71,68.27,0
74,69.79,68.33,0
74,69.88,68.39,0
74,69.96,68.44,0
74,70.04,68.50,0
74,70.12,68.55,0
78,70.28,68.65,0
74,70.35,68.70,0
74,70.42,68.76,0
74,70.50,68.81,0
78,70.65,68.90,0
76,70.75,68.97,0
75,70.84,69.03,0
75,70.92,69.09,0
76,71.02,69.16,0
76,71.12,69.23,0
77,71.24,69.31,0
76,71.34,69.37,0
76,71.43,69.44,0
76,71.52,69.50,0
77,71.63,69.58,0
76,71.72,69.64,0
76,71.80,69.71,0
76,71.89,69.77,0
77,71.99,69.84,0
76,72.07,69.90,0
76,72.15,69.97,0
77,72.24,70.04,0
78,72.36,70.12,0
78,72.47,70.19,0
78,72.58,70.27,0
78,72.69,70.35,0
79,72.82,70.44,0
79,72.94,70.52,0
81,73.10,70.63,0
79,73.22,70.71,0
79,73.34,70.79,0
79,73.45,70.88,0
79,73.56,70.96,0
78,73.65,71.03,0
79,73.76,71.11,0
79,73.86,71.19,0
79,73.96,71.26,0
80,74.08,71.35,0
85,74.30,71.49,0
80,74.42,71.57,0
80,74.53,71.66,0
79,74.62,71.73,0
81,74.75,71.82,0
82,74.89,71.92,0
80,74.99,72.01,0
81,75.11,72.10,0
79,75.19,72.16,0
83,75.35,72.27,0
82,75.48,72.37,0
82,75.61,72.47,0
83,75.76,72.57,0
81,75.86,72.66,0
82,75.99,72.75,0
80,76.07,72.82,0
80,76.14,72.89,0
81,76.24,72.97,0
80,76.32,73.05,0
79,76.37,73.10,0
81,76.46,73.18,0
81,76.55,73.26,0
80,76.62,73.33,0
80,76.69,73.40,0
81,76.78,73.47,0
81,76.86,73.55,0
80,76.92,73.61,0
81,77.01,73.69,0
81,77.09,73.76,0
82,77.18,73.84,0
82,77.28,73.92,0
82,77.37,74.00,0
82,77.47,74.08,0
82,77.56,74.16,0
82,77.65,74.24,0
82,77.73,74.32,0
82,77.82,74.40,0
82,77.90,74.47,0
82,77.98,74.55,0
82,78.06,74.62,0
82,78.14,74.70,0
83,78.24,74.78,0
84,78.36,74.87,0
84,78.47,74.96,0
85,78.60,75.06,0
84,78.71,75.15,0
84,78.81,75.24,0
86,78.96,75.35,0
85,79.08,75.44,0
86,79.22,75.55,0
84,79.31,75.63,0
85,79.43,75.73,0
85,79.54,75.82,0
85,79.65,75.91,0
86,79.77,76.01,0
84,79.86,76.09,0
85,79.96,76.18,0
84,80.04,76.26,0
86,80.16,76.36,0
86,80.28,76.45,0
85,80.37,76.54,0
86,80.48,76.63,0
86,80.59,76.73,0
86,80.70,76.82,0
87,80.83,76.92,0
90,81.01,77.05,0
89,81.17,77.17,0
88,81.31,77.28,0
88,81.44,77.39,0
90,81.61,77.51,0
88,81.74,77.62,0
89,81.89,77.73,0
89,82.03,77.85,0
90,82.19,77.97,0
88,82.30,78.07,0
88,82.42,78.17,0
89,82.55,78.28,0
93,82.76,78.42,0
90,82.90,78.54,0
89,83.03,78.64,0
90,83.17,78.76,0
91,83.32,78.88,0
90,83.46,78.99,0
90,83.59,79.10,0
90,83.71,79.21,0
92,83.88,79.34,0
93,84.06,79.47,0
94,84.26,79.62,0
96,84.50,79.78,0
96,84.73,79.94,0
94,84.91,80.09,0
94,85.09,80.22,0
96,85.31,80.38,0
95,85.51,80.53,0
96,85.72,80.68,0
98,85.96,80.86,0
100,86.24,81.05,0
99,86.50,81.23,0
100,86.77,81.41,0
103,87.09,81.63,0
101,87.37,81.82,0
100,87.62,82.01,0
101,87.89,82.20,0
101,88.15,82.38,0
101,88.41,82.57,0
101,88.66,82.75,0
102,88.93,82.95,0
102,89.19,83.14,0
103,89.47,83.34,0
103,89.74,83.53,0
104,90.02,83.74,0
104,90.30,83.94,0
105,90.60,84.15,0
107,90.92,84.38,0
107,91.24,84.61,0
110,91.62,84.86,0
110,91.99,85.11,0
113,92.41,85.39,0
113,92.82,85.67,0
113,93.22,85.94,0
113,93.62,86.21,0
114,94.03,86.49,0
114,94.43,86.76,0
114,94.82,87.04,0
116,95.24,87.32,0
115,95.64,87.60,0
116,96.04,87.89,0
117,96.46,88.18,0
116,96.85,88.46,0
118,97.28,88.75,0
119,97.71,89.05,0
121,98.18,89.37,0
121,98.63,89.69,0
121,99.08,90.00,0
120,99.50,90.30,0
123,99.97,90.63,0
124,100.45,90.96,0
123,100.90,91.28,0
122,101.32,91.59,0
122,101.74,91.89,0
123,102.16,92.21,0
125,102.62,92.53,0
124,103.05,92.85,0
124,103.46,93.16,0
123,103.86,93.46,0
125,104.28,93.77,0
124,104.67,94.08,0
124,105.06,94.37,0
124,105.44,94.67,0
124,105.81,94.96,0
125,106.19,95.26,0
125,106.57,95.56,0
125,106.94,95.86,0
126,107.32,96.16,0
126,107.69,96.46,0
125,108.04,96.74,0
129,108.46,97.06,0
132,108.93,97.41,0
130,109.35,97.74,0
132,109.80,98.08,0
134,110.29,98.44,0
134,110.76,98.80,0
136,111.27,99.17,0
136,111.76,99.54,0
137,112.27,99.91,0
140,112.82,100.31,0
139,113.34,100.70,0
139,113.86,101.08,0
139,114.36,101.46,0
140,114.87,101.85,0
139,115.36,102.22,0
140,115.85,102.60,0
141,116.35,102.98,0
141,116.84,103.36,0
143,117.37,103.76,0
145,117.92,104.17,0
145,118.46,104.58,0
145,118.99,104.98,0
147,119.55,105.40,0
149,120.14,105.84,0
149,120.72,106.27,0
149,121.28,106.70,0
149,121.84,107.12,0
149,122.38,107.54,0
153,122.99,107.99,0
147,123.47,108.38,0
149,123.98,108.79,0
149,124.49,109.19,0
151,125.02,109.61,0
149,125.50,110.00,0
150,125.99,110.40,0
151,126.49,110.81,0
150,126.96,111.20,0
153,127.48,111.62,0
156,128.05,112.06,0
156,128.61,112.50,0
159,129.21,112.97,0
159,129.81,113.43,0
159,130.39,113.88,0
158,130.95,114.33,0
155,131.43,114.73,0
158,131.96,115.16,0
159,132.50,115.60,0
160,133.05,116.05,0
159,133.57,116.48,0
160,134.10,116.91,0
159,134.59,117.33,0
160,135.10,117.76,0
159,135.58,118.17,0
160,136.07,118.59,0
160,136.55,119.00,0
160,137.02,119.41,0
159,137.46,119.81,0
159,137.89,120.20,0
159,138.31,120.59,0
159,138.72,120.97,0
159,139.13,121.35,0
159,139.53,121.73,0
160,139.94,122.11,0
159,140.32,122.48,0
161,140.73,122.87,0
161,141.14,123.25,0
160,141.51,123.62,0
159,141.86,123.97,0
162,142.27,124.35,0
159,142.60,124.70,0
161,142.97,125.06,0
161,143.33,125.42,0
161,143.68,125.77,0
162,144.05,126.14,0
162,144.41,126.50,0
161,144.74,126.84,0
161,145.07,127.18,0
161,145.38,127.52,0
161,145.70,127.86,0
161,146.00,128.19,0
160,146.28,128.50,0
161,146.58,128.83,0
160,146.85,129.14,0
164,147.19,129.49,0
161,147.46,129.81,0
161,147.74,130.12,0
159,147.96,130.41,0
161,148.22,130.71,0
161,148.48,131.01,0
161,148.73,131.31,0
160,148.95,131.60,0
160,149.17,131.89,0
160,149.39,132.17,0
160,149.60,132.45,0
160,149.81,132.72,0
160,150.01,132.99,0
160,150.21,133.26,0
161,150.43,133.54,0
159,150.60,133.80,0
159,150.77,134.05,0
160,150.95,134.31,0
159,151.11,134.55,0
160,151.29,134.81,0
159,151.45,135.05,0
159,151.60,135.29,0
160,151.77,135.54,0
159,151.91,135.77,0
159,152.05,136.00,0
159,152.19,136.23,0
159,152.33,136.46,0
158,152.44,136.68,0
158,152.55,136.89,0
157,152.64,137.09,0
158,152.75,137.30,0
158,152.85,137.51,0
157,152.94,137.70,0
157,153.02,137.90,0
158,153.12,138.10,0
156,153.17,138.28,0
155,153.21,138.44,0
155,153.25,138.61,0
155,153.28,138.77,0
156,153.34,138.94,0
155,153.37,139.10,0
155,153.40,139.26,0
155,153.43,139.42,0
155,153.47,139.58,0
154,153.48,139.72,0
155,153.51,139.87,0
154,153.52,140.02,0
153,153.51,140.15,0
153,153.50,140.27,0
153,153.49,140.40,0
153,153.48,140.53,0
153,153.47,140.65,0
153,153.46,140.78,0
152,153.43,140.89,0
153,153.42,141.01,0
151,153.37,141.11,0
152,153.34,141.22,0
151,153.30,141.32,0
153,153.29,141.43,0
151,153.25,141.53,0
149,153.16,141.60,0
151,153.12,141.70,0
151,153.07,141.79,0
151,153.03,141.88,0
151,152.99,141.97,0
150,152.93,142.05,0
151,152.89,142.14,0
150,152.84,142.22,0
151,152.80,142.31,0
149,152.72,142.38,0
149,152.65,142.44,0
149,152.58,142.51,0
150,152.52,142.58,0
149,152.45,142.65,0
149,152.39,142.71,0
149,152.32,142.77,0
148,152.23,142.83,0
149,152.17,142.89,0
148,152.08,142.94,0
148,152.00,142.99,0
147,151.90,143.03,0
148,151.82,143.08,0
147,151.73,143.12,0
148,151.65,143.17,0
147,151.56,143.21,0
147,151.47,143.24,0
145,151.34,143.26,0
146,151.23,143.29,0
146,151.13,143.32,0
147,151.04,143.35,0
147,150.96,143.39,0
145,150.84,143.40,0
145,150.73,143.42,0
145,150.61,143.44,0
148,150.56,143.48,0
145,150.45,143.50,0
145,150.34,143.51,0
144,150.21,143.52,0
145,150.11,143.53,0
145,150.01,143.55,0
145,149.91,143.56,0
145,149.81,143.58,0
144,149.69,143.58,0
145,149.60,143.59,0
145,149.51,143.61,0
143,149.38,143.60,0
144,149.27,143.61,0
143,149.14,143.60,0
143,149.02,143.59,0
143,148.90,143.59,0
141,148.74,143.56,0
143,148.63,143.56,0
142,148.50,143.54,0
141,148.35,143.52,0
142,148.22,143.50,0
143,148.11,143.50,0
141,147.97,143.47,0
141,147.83,143.45,0
141,147.70,143.42,0
141,147.56,143.40,0
139,147.39,143.35,0
141,147.26,143.33,0
139,147.10,143.29,0
140,146.96,143.25,0
140,146.82,143.22,0
139,146.66,143.18,0
140,146.53,143.15,0
139,146.38,143.11,0
139,146.23,143.06,0
138,146.06,143.01,0
137,145.88,142.95,0
137,145.71,142.89,0
137,145.53,142.83,0
138,145.38,142.79,0
138,145.23,142.74,0
137,145.07,142.68,0
137,144.91,142.62,0
137,144.75,142.57,0
137,144.59,142.51,0
136,144.42,142.45,0
136,144.25,142.38,0
136,144.09,142.32,0
135,143.91,142.25,0
136,143.75,142.18,0
135,143.57,142.11,0
136,143.42,142.05,0
135,143.25,141.98,0
135,143.09,141.91,0
134,142.91,141.83,0
131,142.67,141.72,0
134,142.50,141.65,0
134,142.33,141.57,0
133,142.14,141.48,0
133,141.96,141.40,0
133,141.78,141.31,0
135,141.64,141.25,0
133,141.47,141.17,0
133,141.30,141.09,0
133,141.13,141.01,1
133,140.97,140.93,1
132,140.79,140.84,2
132,140.62,140.75,2
132,140.44,140.66,2
131,140.25,140.56,2
132,140.09,140.48,2
131,139.91,140.38,2
132,139.75,140.30,2
131,139.57,140.21,2
130,139.38,140.11,2
130,139.20,140.00,2
129,138.99,139.89,2
129,138.79,139.79,2
129,138.60,139.68,2
129,138.40,139.57,2
129,138.22,139.47,2
129,138.03,139.36,2
130,137.87,139.27,2
129,137.69,139.16,2
129,137.52,139.06,2
128,137.33,138.95,2
128,137.14,138.84,2
128,136.96,138.73,2
128,136.78,138.63,2
127,136.58,138.51,2
128,136.41,138.41,2
127,136.22,138.29,2
127,136.04,138.18,2
127,135.86,138.07,2
127,135.68,137.96,2
127,135.51,137.85,2
125,135.30,137.72,2
127,135.13,137.61,2
126,134.95,137.49,2
126,134.77,137.38,2
125,134.58,137.26,2
125,134.38,137.13,2
125,134.20,137.01,2
125,134.01,136.89,2
126,133.85,136.78,2
125,133.68,136.67,2
125,133.50,136.55,2
125,133.33,136.43,2
125,133.16,136.32,2
125,133.00,136.21,2
125,132.84,136.09,2
124,132.66,135.97,2
124,132.49,135.85,2
123,132.30,135.72,2
125,132.16,135.62,2
123,131.97,135.49,2
123,131.79,135.37,2
124,131.64,135.25,2
123,131.46,135.13,2
123,131.30,135.01,2
123,131.13,134.89,2
123,130.97,134.77,2
122,130.79,134.64,2
122,130.61,134.52,2
122,130.44,134.39,2
122,130.27,134.27,2
121,130.09,134.13,2
121,129.90,134.00,2
121,129.73,133.87,2
121,129.55,133.74,2
121,129.38,133.62,2
121,129.21,133.49,2
121,129.05,133.37,2
121,128.89,133.24,2
121,128.73,133.12,2
121,128.57,133.00,2
121,128.42,132.88,2
120,128.25,132.75,2
120,128.09,132.62,2
119,127.91,132.49,2
119,127.73,132.35,2
119,127.56,132.22,2
120,127.40,132.09,2
117,127.20,131.94,2
119,127.03,131.81,2
119,126.87,131.69,2
119,126.71,131.56,2
119,126.56,131.43,2
120,126.43,131.32,2
119,126.28,131.20,2
118,126.11,131.06,2
117,125.93,130.92,2
117,125.75,130.78,2
117,125.58,130.65,2
118,125.43,130.52,2
117,125.26,130.38,2
117,125.09,130.25,2
117,124.93,130.12,2
117,124.77,129.99,2
118,124.64,129.87,2
117,124.48,129.74,2
118,124.35,129.62,2
117,124.21,129.50,2
117,124.06,129.37,2
117,123.92,129.25,2
115,123.74,129.10,2
116,123.59,128.97,2
116,123.44,128.84,2
116,123.29,128.71,2
116,123.14,128.59,2
115,122.98,128.45,2
116,122.84,128.33,2
115,122.68,128.19,2
115,122.53,128.06,2
116,122.40,127.94,2
115,122.25,127.81,2
115,122.11,127.68,2
114,121.94,127.55,2
115,121.81,127.42,2
113,121.63,127.28,2
115,121.50,127.15,2
113,121.33,127.01,2
115,121.20,126.89,2
113,121.04,126.75,2
113,120.88,126.62,2
113,120.72,126.48,2
115,120.60,126.37,2
113,120.45,126.23,2
113,120.30,126.10,2
113,120.16,125.97,2
113,120.01,125.84,2
113,119.87,125.71,2
113,119.74,125.58,2
113,119.60,125.46,2
112,119.45,125.32,2
113,119.32,125.20,2
112,119.17,125.07,2
112,119.03,124.94,2
112,118.89,124.81,2
112,118.75,124.68,2
111,118.60,124.54,2
111,118.44,124.41,2
111,118.30,124.27,2
112,118.17,124.15,2
111,118.03,124.02,2
111,117.89,123.89,2
111,117.75,123.76,2
110,117.59,123.62,2
111,117.46,123.50,2
111,117.33,123.37,2
110,117.19,123.24,2
109,117.02,123.10,2
109,116.86,122.95,2
109,116.70,122.81,2
109,116.55,122.68,2
109,116.40,122.54,2
110,116.27,122.41,2
109,116.13,122.28,2
109,115.98,122.15,2
109,115.84,122.02,2
108,115.69,121.88,2
109,115.55,121.75,2
108,115.40,121.61,2
109,115.27,121.48,2
108,115.13,121.35,2
108,114.99,121.22,2
107,114.83,121.07,2
107,114.67,120.93,2
107,114.52,120.79,2
108,114.39,120.66,2
107,114.24,120.53,2
108,114.11,120.40,2
107,113.97,120.27,2
108,113.85,120.15,2
106,113.69,120.00,2
107,113.56,119.87,2
106,113.41,119.74,2
107,113.28,119.61,2
105,113.12,119.46,2
105,112.95,119.32,2
105,112.79,119.17,2
105,112.64,119.03,2
105,112.49,118.89,2
105,112.34,118.75,2
105,112.19,118.62,2
105,112.05,118.48,2
105,111.90,118.35,2
105,111.77,118.21,2
105,111.63,118.08,2
105,111.50,117.95,2
105,111.37,117.82,2
104,111.22,117.68,2
104,111.08,117.54,2
104,110.94,117.41,2
104,110.80,117.27,2
104,110.66,117.14,2
104,110.53,117.01,2
105,110.42,116.89,2
103,110.27,116.75,2
103,110.12,116.61,2
103,109.98,116.48,2
103,109.84,116.34,2
103,109.70,116.21,2
103,109.57,116.08,2
101,109.40,115.93,2
103,109.27,115.80,2
102,109.13,115.66,2
103,109.00,115.53,2
102,108.86,115.40,2
102,108.73,115.26,2
101,108.57,115.12,2
102,108.44,114.99,2
101,108.29,114.85,2
102,108.16,114.72,2
101,108.02,114.58,2
102,107.90,114.46,2
101,107.76,114.32,2
101,107.63,114.19,2
101,107.50,114.06,2
101,107.37,113.93,2
101,107.24,113.80,2
101,107.11,113.67,2
101,106.99,113.54,2
101,106.87,113.42,2
101,106.75,113.29,2
100,106.62,113.16,2
101,106.51,113.04,2
100,106.38,112.91,2
99,106.23,112.77,2
100,106.10,112.64,2
99,105.96,112.51,2
99,105.82,112.37,2
99,105.69,112.24,2
99,105.55,112.11,2
98,105.40,111.96,2
98,105.25,111.82,2
96,105.07,111.67,2
99,104.95,111.54,2
98,104.81,111.40,2
98,104.67,111.27,2
98,104.54,111.14,2
98,104.41,111.01,2
97,104.26,110.87,2
98,104.13,110.74,2
98,104.01,110.61,2
98,103.89,110.48,2
98,103.77,110.36,2
98,103.66,110.24,2
98,103.55,110.11,2
99,103.45,110.00,2
98,103.35,109.88,2
98,103.24,109.76,2
98,103.13,109.65,2
97,103.01,109.52,2
97,102.89,109.39,2
98,102.79,109.28,2
96,102.66,109.15,2
95,102.50,109.01,2
98,102.41,108.90,2
97,102.31,108.78,2
96,102.18,108.65,2
95,102.04,108.51,2
96,101.92,108.39,2
97,101.82,108.27,2
96,101.70,108.15,2
97,101.61,108.04,2
96,101.49,107.92,2
97,101.40,107.81,2
97,101.32,107.70,2
98,101.25,107.60,2
95,101.13,107.48,2
96,101.02,107.36,2
95,100.90,107.24,2
95,100.78,107.12,2
95,100.67,107.00,2
96,100.57,106.89,2
94,100.44,106.76,2
95,100.33,106.64,2
94,100.21,106.51,2
96,100.12,106.41,2
94,100.00,106.28,2
94,99.88,106.16,2
93,99.74,106.03,2
94,99.63,105.91,2
94,99.52,105.79,2
95,99.43,105.68,2
95,99.34,105.58,2
94,99.23,105.46,2
94,99.13,105.35,2
94,99.02,105.23,2
94,98.92,105.12,2
93,98.80,105.00,2
94,98.71,104.89,2
93,98.59,104.77,2
93,98.48,104.65,2
93,98.37,104.54,2
93,98.27,104.42,2
97,98.24,104.35,2
93,98.14,104.23,2
93,98.03,104.12,2
93,97.93,104.01,2
93,97.83,103.90,2
92,97.72,103.78,2
92,97.60,103.66,2
92,97.49,103.55,2
93,97.40,103.44,2
92,97.29,103.33,2
92,97.19,103.21,2
92,97.08,103.10,2
92,96.98,102.99,2
92,96.88,102.88,2
92,96.78,102.77,2
91,96.67,102.65,2
92,96.57,102.55,2
92,96.48,102.44,2
91,96.37,102.33,2
92,96.29,102.22,2
91,96.18,102.11,2
91,96.08,102.00,2
91,95.98,101.89,2
91,95.88,101.78,2
90,95.76,101.66,2
90,95.64,101.55,2
90,95.53,101.43,2
89,95.40,101.31,2
90,95.29,101.19,2
90,95.19,101.08,2
89,95.06,100.96,2
92,95.00,100.87,2
90,94.90,100.76,2
90,94.80,100.66,2
90,94.71,100.55,2
89,94.59,100.43,2
90,94.50,100.33,2
89,94.39,100.22,2
90,94.30,100.11,2
89,94.20,100.00,2
90,94.11,99.90,2
89,94.01,99.79,2
89,93.91,99.69,2
90,93.83,99.59,2
88,93.72,99.47,2
88,93.60,99.36,2
88,93.49,99.24,2
88,93.38,99.13,2
88,93.27,99.02,2
88,93.17,98.91,2
88,93.06,98.80,2
88,92.96,98.69,2
88,92.86,98.59,2
88,92.77,98.48,2
88,92.67,98.38,2
88,92.58,98.27,2
88,92.49,98.17,2
87,92.38,98.06,2
86,92.25,97.94,2
88,92.16,97.84,2
88,92.08,97.74,2
88,92.00,97.64,2
86,91.88,97.53,2
88,91.80,97.43,2
88,91.72,97.34,2
86,91.61,97.22,2
90,91.58,97.15,2
86,91.47,97.04,2
86,91.36,96.93,2
86,91.25,96.82,2
90,91.22,96.75,2
86,91.12,96.64,2
86,91.02,96.54,2
85,90.90,96.42,2
85,90.78,96.31,2
86,90.68,96.20,2
85,90.57,96.09,2
86,90.48,95.99,2
90,90.47,95.93,2
85,90.36,95.82,2
85,90.25,95.71,2
86,90.17,95.62,2
85,90.06,95.51,2
85,89.96,95.41,2
84,89.84,95.29,2
85,89.75,95.19,2
83,89.61,95.07,2
84,89.50,94.96,2
84,89.39,94.85,2
84,89.28,94.74,2
84,89.18,94.63,2
84,89.07,94.52,2
85,88.99,94.43,2
86,88.93,94.34,2
84,88.83,94.24,2
84,88.74,94.14,2
84,88.64,94.04,2
86,88.59,93.96,2
84,88.50,93.86,2
83,88.39,93.75,2
83,88.28,93.64,2
85,88.21,93.55,2
82,88.09,93.44,2
82,87.97,93.32,2
82,87.85,93.21,2
82,87.73,93.10,2
84,87.66,93.01,2
82,87.54,92.90,2
82,87.43,92.79,2
83,87.34,92.69,2
82,87.24,92.58,2
82,87.13,92.48,2
82,87.03,92.37,2
82,86.93,92.27,2
82,86.83,92.17,2
82,86.73,92.07,2
81,86.62,91.96,2
82,86.53,91.86,2
81,86.42,91.75,2
80,86.29,91.63,2
80,86.16,91.51,2
84,86.12,91.44,2
80,86.00,91.32,2
80,85.88,91.21,2
81,85.78,91.11,2
81,85.68,91.01,2
80,85.57,90.90,2
80,85.46,90.79,2
81,85.37,90.69,2
82,85.30,90.60,2
83,85.26,90.53,2
80,85.15,90.42,2
81,85.07,90.33,2
80,84.97,90.22,2
80,84.87,90.12,2
80,84.77,90.02,2
79,84.65,89.91,2
80,84.56,89.81,2
80,84.47,89.71,2
80,84.38,89.62,2
80,84.29,89.52,2
80,84.21,89.43,2
80,84.12,89.33,2
80,84.04,89.24,2
80,83.96,89.15,2
80,83.88,89.05,2
78,83.76,88.94,2
79,83.67,88.84,2
78,83.55,88.74,2
80,83.48,88.65,2
78,83.37,88.54,2
79,83.29,88.45,2
79,83.20,88.35,2
80,83.14,88.27,2
78,83.03,88.17,2
78,82.93,88.06,2
79,82.85,87.97,2
78,82.76,87.87,2
78,82.66,87.77,2
78,82.57,87.68,2
79,82.50,87.59,2
79,82.43,87.50,2
78,82.34,87.41,2
78,82.25,87.32,2
79,82.19,87.23,2
78,82.10,87.14,2
79,82.04,87.06,2
78,81.96,86.97,2
79,81.90,86.89,2
79,81.84,86.81,2
79,81.79,86.73,2
79,81.73,86.65,2
79,81.68,86.58,2
79,81.62,86.50,2
80,81.59,86.44,2
78,81.52,86.35,2
80,81.49,86.29,2
79,81.44,86.22,2
80,81.41,86.15,2
79,81.36,86.08,2
79,81.31,86.01,2
79,81.27,85.94,2
79,81.22,85.87,2
79,81.18,85.80,2
79,81.13,85.74,2
81,81.13,85.69,2
78,81.07,85.61,2
78,81.01,85.53,2
78,80.95,85.46,2
80,80.93,85.40,2
79,80.89,85.34,2
78,80.83,85.27,2
79,80.80,85.20,2
84,80.86,85.19,2
80,80.84,85.14,2
78,80.79,85.07,2
80,80.77,85.02,2
79,80.73,84.96,2
78,80.68,84.89,2
78,80.63,84.82,2
79,80.59,84.76,2
77,80.52,84.68,2
78,80.47,84.62,2
78,80.42,84.55,2
78,80.37,84.49,2
79,80.35,84.43,2
78,80.30,84.37,2
78,80.25,84.30,2
77,80.19,84.23,2
78,80.14,84.17,2
78,80.10,84.11,2
78,80.06,84.04,2
79,80.04,83.99,2
77,79.98,83.92,2
78,79.94,83.87,2
77,79.88,83.80,2
77,79.82,83.73,2
78,79.79,83.67,2
78,79.75,83.61,2
78,79.71,83.56,2
78,79.68,83.50,2
78,79.65,83.45,2
78,79.61,83.39,2
76,79.54,83.32,2
79,79.53,83.28,2
78,79.50,83.22,2
76,79.43,83.15,2
78,79.40,83.10,2
80,79.41,83.07,2
77,79.37,83.01,2
78,79.34,82.96,2
77,79.29,82.90,2
78,79.27,82.85,2
77,79.22,82.79,2
78,79.20,82.74,2
76,79.13,82.68,2
77,79.09,82.62,2
77,79.05,82.56,2
78,79.03,82.52,2
77,78.99,82.46,2
78,78.97,82.42,2
76,78.91,82.35,2
76,78.85,82.29,2
76,78.79,82.23,2
77,78.76,82.17,2
77,78.72,82.12,2
76,78.67,82.06,2
78,78.65,82.02,2
77,78.62,81.97,2
78,78.61,81.93,2
78,78.60,81.89,2
78,78.58,81.85,2
77,78.55,81.80,2
78,78.54,81.77,2
78,78.53,81.73,2
76,78.48,81.67,2
77,78.45,81.62,2
76,78.40,81.57,2
77,78.37,81.52,2
77,78.35,81.48,2
77,78.32,81.43,2
78,78.31,81.40,2
77,78.29,81.35,2
78,78.28,81.32,2
76,78.23,81.27,2
78,78.23,81.23,2
77,78.21,81.19,2
77,78.18,81.15,2
77,78.16,81.11,2
78,78.15,81.08,2
76,78.11,81.03,2
77,78.09,80.99,2
76,78.05,80.94,2
77,78.03,80.90,2
76,77.99,80.85,2
76,77.95,80.80,2
78,77.95,80.77,2
77,77.93,80.73,2
78,77.93,80.71,2
78,77.93,80.68,2
78,77.93,80.65,2
77,77.91,80.62,2
78,77.92,80.59,2
77,77.90,80.55,2
78,77.90,80.53,2
77,77.88,80.49,2
78,77.88,80.47,2
79,77.91,80.45,2
79,77.93,80.44,2
78,77.93,80.42,2
78,77.93,80.39,2
78,77.93,80.37,2
81,77.99,80.37,2
78,77.99,80.35,2
77,77.97,80.32,2
76,77.93,80.27,2
78,77.94,80.25,2
79,77.96,80.24,2
77,77.94,80.21,2
76,77.90,80.16,2
81,77.96,80.17,2
77,77.94,80.14,2
76,77.90,80.10,2
76,77.86,80.06,2
77,77.85,80.03,2
77,77.83,80.00,2
77,77.81,79.97,2
76,77.78,79.93,2
78,77.78,79.91,2
78,77.79,79.89,2
76,77.75,79.85,2
78,77.76,79.83,2
79,77.78,79.82,2
78,77.79,79.80,2
78,77.79,79.79,2
78,77.79,79.77,2
77,77.78,79.74,2
79,77.80,79.73,2
78,77.81,79.72,2
78,77.81,79.70,2
78,77.81,79.68,2
77,77.80,79.66,2
78,77.80,79.64,2
76,77.77,79.60,2
76,77.73,79.57,2
77,77.72,79.54,2
78,77.72,79.53,2
78,77.73,79.51,2
77,77.71,79.49,2
77,77.70,79.46,2
76,77.66,79.43,2
76,77.63,79.39,2
77,77.62,79.37,2
77,77.61,79.34,2
76,77.57,79.31,2
77,77.56,79.29,2
77,77.55,79.26,2
76,77.52,79.23,2
76,77.49,79.20,2
78,77.50,79.19,2
77,77.49,79.17,2
76,77.46,79.13,2
78,77.47,79.12,2
76,77.44,79.09,2
77,77.43,79.07,2
76,77.40,79.04,2
76,77.38,79.01,2
76,77.35,78.98,2
77,77.34,78.96,2
78,77.35,78.95,2
77,77.35,78.93,2
78,77.36,78.92,2
76,77.33,78.89,2
77,77.33,78.87,2
77,77.32,78.85,2
77,77.31,78.84,2
78,77.33,78.83,2
78,77.34,78.82,2
77,77.33,78.80,2
76,77.31,78.77,2
78,77.32,78.77,2
78,77.33,78.76,2
78,77.35,78.75,2
78,77.36,78.74,2
78,77.37,78.73,2
79,77.41,78.74,2
78,77.42,78.73,2
78,77.43,78.72,2
79,77.46,78.73,2
79,77.49,78.73,2
79,77.52,78.73,2
78,77.53,78.72,2
78,77.54,78.72,2
81,77.61,78.74,2
79,77.64,78.74,2
78,77.65,78.73,2
78,77.65,78.73,2
79,77.68,78.73,2
79,77.71,78.73,2
79,77.73,78.74,2
79,77.76,78.74,2
79,77.78,78.74,2
79,77.81,78.74,2
79,77.83,78.75,2
77,77.81,78.73,2
79,77.84,78.73,2
78,77.84,78.72,2
78,77.84,78.72,2
78,77.85,78.71,2
78,77.85,78.70,2
78,77.85,78.70,2
78,77.86,78.69,2
78,77.86,78.68,2
78,77.86,78.67,2
78,77.86,78.67,2
78,77.87,78.66,2
78,77.87,78.65,2
77,77.85,78.64,2
78,77.86,78.63,2
78,77.86,78.63,2
77,77.84,78.61,2
77,77.82,78.59,2
77,77.81,78.58,2
78,77.81,78.57,2
77,77.80,78.56,2
78,77.80,78.55,2
78,77.80,78.54,2
77,77.79,78.53,2
78,77.79,78.52,2
78,77.80,78.52,2
79,77.82,78.52,2
76,77.78,78.50,2
78,77.79,78.49,2
77,77.77,78.48,2
78,77.78,78.47,2
77,77.76,78.46,2
78,77.77,78.45,2
78,77.77,78.45,2
78,77.78,78.45,2
78,77.78,78.44,2
79,77.80,78.45,2
78,77.81,78.44,2
78,77.81,78.44,2
82,77.90,78.47,2
77,77.88,78.46,2
78,77.88,78.45,2
78,77.88,78.45,2
78,77.88,78.44,2
77,77.87,78.43,2
78,77.87,78.43,2
80,77.91,78.44,2
78,77.91,78.44,2
77,77.90,78.42,2
78,77.90,78.42,2
78,77.90,78.41,2
78,77.90,78.41,2
77,77.88,78.40,2
78,77.89,78.39,2
79,77.91,78.40,2
76,77.87,78.37,2
79,77.89,78.38,2
81,77.96,78.41,2
78,77.96,78.40,2
79,77.98,78.41,2
79,78.00,78.41,2
79,78.02,78.42,2
80,78.06,78.44,2
79,78.08,78.44,2
80,78.11,78.46,2
79,78.13,78.46,2
80,78.17,78.48,2
79,78.19,78.48,2
81,78.24,78.51,2
80,78.28,78.52,2
80,78.31,78.54,2
80,78.35,78.55,2
80,78.38,78.57,2
82,78.45,78.60,2
80,78.48,78.62,2
80,78.51,78.63,2
80,78.54,78.64,2
81,78.59,78.67,2
80,78.62,78.68,2
80,78.65,78.69,2
80,78.67,78.71,2
81,78.72,78.73,2
80,78.75,78.74,2
80,78.77,78.75,2
81,78.82,78.78,2
81,78.86,78.80,2
80,78.88,78.81,2
80,78.90,78.82,2
81,78.95,78.84,2
81,78.99,78.87,2
82,79.05,78.90,2
80,79.07,78.91,2
80,79.09,78.92,2
84,79.18,78.97,2
82,79.24,79.00,2
82,79.30,79.03,2
82,79.35,79.06,2
82,79.40,79.09,2
82,79.45,79.12,2
82,79.51,79.15,2
82,79.56,79.18,2
81,79.58,79.19,2
82,79.63,79.22,2
82,79.68,79.25,2
82,79.73,79.28,2
82,79.77,79.31,2
82,79.82,79.33,2
82,79.86,79.36,2
82,79.90,79.39,2
83,79.96,79.42,2
82,80.01,79.45,2
82,80.05,79.47,2
83,80.10,79.51,2
82,80.14,79.53,2
82,80.18,79.56,2
82,80.22,79.58,2
82,80.25,79.61,2
82,80.29,79.63,2
82,80.32,79.65,2
82,80.35,79.68,2
83,80.41,79.71,2
84,80.48,79.75,2
82,80.51,79.78,2
84,80.58,79.82,2
84,80.65,79.86,2
84,80.71,79.90,2
84,80.78,79.94,2
86,80.89,80.00,2
84,80.95,80.04,2
83,80.99,80.07,2
84,81.05,80.11,2
84,81.11,80.15,2
85,81.19,80.20,2
85,81.26,80.25,2
84,81.32,80.28,2
84,81.37,80.32,2
83,81.40,80.35,2
82,81.41,80.37,2
84,81.47,80.40,2
84,81.52,80.44,2
84,81.57,80.47,2
84,81.62,80.51,2
84,81.66,80.54,2
84,81.71,80.58,2
84,81.76,80.61,2
84,81.80,80.65,2
84,81.84,80.68,2
84,81.89,80.71,2
83,81.91,80.74,2
85,81.97,80.78,2
84,82.01,80.81,2
84,82.05,80.84,2
83,82.07,80.86,2
84,82.11,80.90,2
88,82.23,80.97,2
84,82.26,81.00,2
83,82.28,81.02,2
84,82.31,81.05,2
84,82.35,81.08,2
84,82.38,81.11,2
83,82.39,81.12,2
85,82.44,81.16,2
84,82.47,81.19,2
84,82.51,81.22,2
83,82.52,81.24,2
83,82.52,81.25,2
84,82.55,81.28,2
84,82.58,81.31,2
83,82.59,81.33,2
84,82.62,81.35,2
84,82.65,81.38,2
84,82.67,81.41,2
83,82.68,81.42,2
83,82.69,81.44,2
84,82.71,81.46,2
83,82.72,81.48,2
84,82.74,81.50,2
84,82.77,81.53,2
84,82.79,81.55,2
83,82.80,81.57,2
84,82.82,81.59,2
84,82.85,81.62,2
84,82.87,81.64,2
83,82.87,81.65,2
83,82.87,81.67,2
84,82.90,81.69,2
84,82.92,81.71,2
83,82.92,81.73,2
84,82.94,81.75,2
84,82.96,81.77,2
84,82.98,81.79,2
84,83.00,81.82,2
85,83.04,81.85,2
84,83.06,81.87,2
84,83.08,81.89,2
84,83.10,81.91,2
84,83.12,81.93,2
85,83.16,81.96,2
84,83.17,81.98,2
84,83.19,82.00,2
84,83.21,82.02,2
84,83.22,82.04,2
84,83.24,82.06,2
84,83.25,82.08,2
86,83.31,82.12,2
85,83.34,82.15,2
84,83.35,82.17,2
84,83.37,82.19,2
87,83.44,82.24,2
87,83.51,82.28,2
86,83.56,82.32,2
86,83.61,82.36,2
88,83.70,82.41,2
88,83.78,82.47,2
88,83.87,82.52,2
88,83.95,82.58,2
89,84.05,82.64,2
89,84.15,82.71,2
88,84.23,82.76,2
89,84.32,82.82,2
90,84.44,82.89,2
90,84.55,82.97,2
90,84.66,83.04,2
90,84.76,83.11,2
89,84.85,83.16,2
88,84.91,83.21,2
88,84.97,83.26,2
90,85.07,83.33,2
89,85.15,83.38,2
89,85.23,83.44,2
88,85.28,83.49,2
90,85.38,83.55,2
89,85.45,83.61,2
90,85.54,83.67,2
92,85.67,83.75,2
92,85.80,83.84,2
90,85.88,83.90,2
90,85.96,83.96,2
89,86.03,84.01,2
90,86.10,84.07,2
91,86.20,84.14,2
90,86.28,84.20,2
89,86.33,84.24,2
91,86.43,84.31,2
90,86.50,84.37,2
93,86.63,84.46,2
92,86.74,84.53,2
93,86.86,84.62,2
96,87.04,84.73,2
95,87.20,84.83,2
94,87.34,84.92,2
96,87.51,85.03,2
98,87.72,85.16,2
98,87.93,85.29,2
97,88.11,85.41,2
97,88.29,85.53,2
100,88.52,85.67,2
97,88.69,85.78,2
98,88.88,85.91,2
99,89.08,86.04,2
98,89.26,86.16,2
101,89.49,86.30,2
101,89.72,86.45,2
101,89.95,86.60,2
101,90.17,86.74,2
101,90.39,86.88,2
104,90.66,87.05,2
101,90.86,87.19,2
101,91.07,87.33,2
101,91.27,87.47,2
101,91.46,87.60,2
102,91.67,87.75,2
102,91.88,87.89,2
101,92.06,88.02,2
101,92.24,88.15,2
102,92.43,88.29,2
103,92.65,88.44,2
106,92.91,88.61,2
107,93.19,88.80,2
109,93.51,89.00,2
109,93.82,89.20,2
111,94.16,89.42,2
112,94.52,89.64,2
111,94.85,89.86,2
112,95.19,90.08,2
111,95.51,90.29,2
111,95.82,90.49,2
111,96.12,90.70,2
113,96.46,90.92,2
115,96.83,91.16,2
114,97.17,91.39,2
114,97.51,91.62,2
115,97.86,91.85,2
117,98.24,92.10,2
117,98.62,92.35,2
117,98.99,92.60,2
119,99.39,92.86,2
119,99.78,93.12,2
120,100.18,93.39,2
117,100.52,93.63,2
121,100.93,93.90,2
120,101.31,94.16,2
120,101.68,94.42,2
120,102.05,94.68,2
120,102.41,94.93,2
120,102.76,95.18,2
121,103.13,95.44,2
122,103.50,95.70,2
122,103.87,95.97,2
122,104.24,96.23,2
124,104.63,96.51,2
122,104.98,96.76,2
123,105.34,97.02,2
123,105.69,97.28,2
124,106.06,97.55,2
124,106.42,97.81,2
125,106.79,98.09,2
126,107.17,98.37,2
124,107.51,98.62,2
126,107.88,98.90,2
127,108.26,99.18,2
126,108.62,99.45,2
124,108.92,99.69,2
124,109.23,99.93,2
127,109.58,100.20,2
125,109.89,100.45,2
125,110.19,100.70,2
125,110.49,100.94,2
127,110.82,101.20,2
127,111.14,101.46,2
127,111.46,101.71,2
128,111.79,101.98,2
128,112.11,102.24,2
129,112.45,102.51,2
128,112.76,102.76,2
129,113.09,103.02,2
129,113.41,103.28,2
129,113.72,103.54,2
129,114.02,103.79,2
130,114.34,104.06,2
129,114.64,104.31,2
131,114.96,104.57,2
131,115.28,104.84,2
131,115.60,105.10,2
132,115.93,105.37,2
131,116.23,105.62,2
131,116.52,105.88,2
131,116.81,106.13,2
132,117.12,106.39,2
131,117.39,106.63,2
132,117.69,106.89,2
131,117.95,107.13,2
133,118.25,107.39,2
131,118.51,107.62,2
132,118.78,107.87,2
131,119.02,108.10,2
131,119.26,108.33,2
131,119.50,108.55,2
131,119.73,108.78,2
132,119.97,109.01,2
131,120.19,109.23,2
132,120.43,109.46,2
131,120.64,109.67,2
131,120.85,109.89,2
131,121.05,110.10,2
131,121.25,110.31,2
131,121.45,110.51,2
131,121.64,110.72,2
131,121.82,110.92,2
130,121.99,111.11,2
130,122.15,111.30,2
131,122.32,111.50,2
130,122.48,111.68,2
131,122.65,111.88,2
129,122.78,112.05,2
129,122.90,112.22,2
129,123.02,112.39,2
129,123.14,112.55,2
127,123.22,112.70,2
128,123.31,112.85,2
129,123.43,113.01,2
128,123.52,113.16,2
129,123.63,113.32,2
128,123.72,113.47,2
129,123.82,113.62,2
128,123.91,113.76,2
127,123.97,113.90,2
127,124.03,114.03,2
127,124.09,114.16,2
127,124.15,114.29,2
127,124.20,114.41,2
125,124.22,114.52,2
127,124.27,114.64,2
125,124.29,114.75,2
127,124.34,114.87,2
126,124.38,114.98,2
126,124.41,115.09,2
125,124.42,115.19,2
125,124.43,115.29,2
127,124.48,115.41,2
125,124.49,115.50,2
125,124.50,115.60,2
125,124.51,115.69,2
125,124.52,115.78,2
125,124.53,115.88,2
125,124.54,115.97,2
125,124.55,116.06,2
125,124.56,116.15,2
125,124.57,116.24,2
124,124.56,116.31,2
125,124.57,116.40,2
125,124.58,116.49,2
124,124.56,116.56,2
123,124.53,116.63,2
124,124.52,116.70,2
124,124.51,116.77,2
124,124.50,116.84,2
123,124.47,116.91,2
123,124.44,116.97,2
123,124.41,117.03,2
123,124.38,117.09,2
122,124.34,117.14,2
122,124.29,117.19,2
121,124.22,117.22,2
121,124.16,117.26,2
121,124.10,117.30,2
121,124.04,117.34,2
121,123.97,117.37,2
121,123.91,117.41,2
121,123.86,117.44,2
121,123.80,117.48,2
121,123.74,117.52,2
120,123.67,117.54,2
117,123.54,117.53,2
119,123.44,117.55,2
120,123.38,117.57,2
120,123.31,117.60,2
121,123.26,117.63,2
120,123.20,117.66,2
121,123.15,117.69,2
119,123.07,117.70,2
119,122.99,117.72,2
120,122.93,117.74,2
119,122.85,117.75,2
119,122.77,117.76,2
118,122.68,117.77,2
117,122.56,117.76,2
118,122.47,117.76,2
118,122.38,117.76,2
118,122.30,117.77,2
117,122.19,117.76,2
117,122.09,117.75,2
117,121.98,117.74,2
117,121.88,117.73,2
117,121.79,117.73,2
117,121.69,117.72,2
117,121.60,117.71,2
117,121.51,117.71,2
117,121.42,117.70,2
115,121.29,117.67,2
117,121.20,117.67,2
116,121.10,117.65,2
116,121.00,117.63,2
116,120.90,117.62,2
115,120.78,117.59,2
116,120.68,117.57,2
115,120.57,117.55,2
115,120.46,117.52,2
115,120.35,117.50,2
115,120.24,117.47,2
115,120.14,117.45,2
116,120.05,117.43,2
117,119.99,117.43,2
113,119.85,117.38,2
114,119.74,117.35,2
115,119.64,117.33,2
113,119.51,117.28,2
115,119.42,117.26,2
113,119.29,117.22,2
111,119.12,117.16,2
113,119.00,117.11,2
113,118.88,117.07,2
111,118.72,117.01,2
113,118.61,116.97,2
112,118.48,116.92,2
112,118.35,116.87,2
112,118.22,116.82,2
112,118.10,116.78,2
111,117.95,116.72,2
111,117.81,116.66,2
111,117.68,116.61,2
111,117.55,116.55,2
111,117.41,116.49,2
111,117.29,116.44,2
112,117.18,116.39,2
111,117.06,116.34,2
111,116.94,116.29,2
111,116.82,116.23,2
111,116.70,116.18,2
110,116.57,116.12,2
110,116.44,116.06,2
109,116.29,115.99,2
109,116.14,115.92,2
109,116.00,115.85,2
109,115.86,115.78,2
110,115.74,115.72,2
109,115.61,115.66,2
109,115.47,115.59,2
109,115.34,115.52,2
109,115.22,115.46,2
109,115.09,115.39,2
108,114.95,115.32,2
108,114.81,115.25,2
108,114.68,115.17,2
107,114.52,115.09,2
108,114.39,115.02,2
107,114.24,114.94,2
107,114.10,114.86,2
107,113.96,114.78,2
106,113.80,114.69,2
108,113.68,114.63,2
107,113.55,114.55,2
106,113.40,114.47,2
107,113.27,114.39,2
107,113.14,114.32,2
107,113.02,114.24,2
107,112.90,114.17,2
106,112.76,114.09,2
105,112.61,114.00,2
105,112.46,113.91,2
107,112.35,113.84,2
105,112.20,113.75,2
106,112.08,113.67,2
105,111.93,113.59,2
105,111.80,113.50,2
105,111.66,113.42,2
105,111.53,113.33,2
105,111.40,113.25,2
104,111.25,113.16,2
104,111.10,113.07,2
104,110.96,112.97,2
105,110.84,112.89,2
103,110.68,112.80,2
104,110.55,112.71,2
103,110.40,112.61,2
103,110.25,112.51,2
104,110.13,112.43,2
104,110.00,112.35,2
103,109.86,112.25,2
103,109.73,112.16,2
103,109.59,112.07,2
103,109.46,111.98,2
103,109.33,111.89,2
102,109.18,111.79,2
102,109.04,111.69,2
102,108.90,111.59,2
101,108.74,111.49,2
101,108.59,111.38,2
102,108.46,111.29,2
101,108.31,111.19,2
101,108.16,111.08,2
101,108.02,110.98,2
101,107.88,110.88,2
101,107.74,110.78,2
101,107.60,110.69,2
101,107.47,110.59,2
100,107.32,110.48,2
100,107.18,110.38,2
100,107.03,110.28,2
101,106.91,110.18,2
99,106.75,110.07,2
99,106.60,109.96,2
100,106.47,109.86,2
99,106.32,109.75,2
99,106.17,109.64,2
99,106.03,109.54,2
98,105.87,109.42,2
98,105.71,109.31,2
98,105.56,109.20,2
98,105.40,109.08,2
98,105.26,108.97,2
100,105.15,108.88,2
98,105.01,108.77,2
97,104.85,108.66,2
97,104.69,108.54,2
98,104.56,108.43,2
97,104.41,108.32,2
96,104.24,108.20,2
96,104.07,108.07,2
96,103.91,107.95,2
96,103.75,107.83,2
96,103.60,107.72,2
96,103.45,107.60,2
97,103.32,107.49,2
97,103.19,107.39,2
96,103.05,107.27,2
95,102.89,107.15,2
97,102.77,107.05,2
97,102.65,106.95,2
96,102.52,106.84,2
96,102.39,106.73,2
96,102.26,106.62,2
96,102.14,106.52,2
96,102.01,106.41,2
96,101.89,106.31,2
94,101.74,106.19,2
96,101.62,106.08,2
96,101.51,105.98,2
96,101.40,105.88,2
100,101.37,105.82,2
95,101.24,105.72,2
95,101.12,105.61,2
95,101.00,105.50,2
94,100.86,105.39,2
94,100.72,105.27,2
95,100.60,105.17,2
96,100.51,105.08,2
96,100.42,104.99,2
94,100.29,104.88,2
94,100.17,104.77,2
94,100.04,104.66,2
95,99.94,104.57,2
93,99.80,104.45,2
94,99.69,104.35,2
93,99.56,104.23,2
93,99.42,104.12,2
93,99.30,104.01,2
93,99.17,103.90,2
93,99.05,103.79,2
93,98.93,103.68,2
93,98.81,103.57,2
93,98.69,103.47,2
92,98.56,103.35,2
92,98.43,103.24,2
92,98.30,103.13,2
91,98.15,103.01,2
93,98.05,102.91,2
93,97.95,102.81,2
92,97.83,102.70,2
92,97.71,102.59,2
92,97.60,102.49,2
91,97.47,102.37,2
92,97.36,102.27,2
91,97.23,102.16,2
91,97.10,102.04,2
91,96.98,101.93,2
91,96.86,101.82,2
90,96.73,101.71,2
91,96.61,101.60,2
91,96.50,101.49,2
91,96.39,101.39,2
91,96.28,101.28,2
92,96.20,101.19,2
90,96.07,101.08,2
90,95.95,100.97,2
91,95.85,100.87,2
90,95.73,100.76,2
89,95.60,100.64,2
89,95.47,100.53,2
93,95.42,100.45,2
89,95.29,100.34,2
91,95.20,100.24,2
89,95.08,100.13,2
89,94.96,100.02,2
90,94.86,99.92,2
89,94.74,99.81,2
89,94.63,99.70,2
89,94.51,99.59,2
89,94.40,99.49,2
88,94.28,99.37,2
88,94.15,99.26,2
88,94.03,99.15,2
89,93.93,99.05,2
89,93.83,98.95,2
88,93.71,98.84,2
88,93.60,98.73,2
88,93.49,98.62,2
89,93.40,98.52,2
88,93.29,98.42,2
88,93.18,98.32,2
88,93.08,98.21,2
88,92.98,98.11,2
88,92.88,98.01,2
88,92.78,97.91,2
88,92.68,97.81,2
87,92.57,97.70,2
88,92.48,97.60,2
88,92.39,97.51,2
88,92.30,97.41,2
87,92.20,97.31,2
86,92.07,97.20,2
87,91.97,97.09,2
87,91.87,96.99,2
86,91.75,96.88,2
86,91.64,96.77,2
86,91.53,96.67,2
86,91.42,96.56,2
86,91.31,96.45,2
86,91.20,96.35,2
86,91.10,96.25,2
85,90.98,96.13,2
86,90.88,96.03,2
86,90.78,95.93,2
86,90.68,95.83,2
85,90.57,95.72,2
86,90.48,95.63,2
88,90.43,95.55,2
85,90.32,95.45,2
85,90.21,95.34,2
86,90.13,95.25,2
84,90.01,95.14,2
86,89.93,95.04,2
85,89.83,94.94,2
84,89.71,94.83,2
86,89.64,94.75,2
84,89.52,94.64,2
85,89.43,94.54,2
84,89.32,94.44,2
84,89.22,94.33,2
84,89.11,94.23,2
84,89.01,94.13,2
84,88.91,94.03,2
84,88.81,93.92,2
86,88.76,93.85,2
85,88.68,93.76,2
86,88.63,93.68,2
84,88.54,93.58,2
84,88.44,93.49,2
84,88.36,93.39,2
85,88.29,93.31,2
84,88.20,93.22,2
84,88.12,93.12,2
84,88.04,93.03,2
86,88.00,92.96,2
84,87.92,92.87,2
83,87.82,92.77,2
83,87.72,92.68,2
84,87.65,92.59,2
84,87.57,92.50,2
81,87.44,92.39,2
83,87.35,92.29,2
83,87.27,92.20,2
83,87.18,92.11,2
82,87.08,92.01,2
82,86.98,91.91,2
81,86.86,91.80,2
82,86.76,91.70,2
86,86.74,91.64,2
82,86.65,91.55,2
82,86.56,91.45,2
82,86.47,91.36,2
82,86.38,91.26,2
81,86.27,91.16,2
82,86.18,91.07,2
82,86.10,90.98,2
85,86.08,90.92,2
81,85.98,90.82,2
82,85.90,90.73,2
82,85.82,90.64,2
82,85.74,90.56,2
81,85.65,90.46,2
81,85.55,90.37,2
80,85.44,90.26,2
79,85.31,90.15,2
80,85.21,90.05,2
80,85.10,89.95,2
80,85.00,89.85,2
80,84.90,89.75,2
81,84.82,89.66,2
80,84.73,89.57,2
83,84.69,89.50,2
80,84.60,89.41,2
81,84.53,89.32,2
80,84.44,89.23,2
81,84.37,89.15,2
80,84.28,89.06,2
79,84.17,88.95,2
80,84.09,88.87,2
80,84.01,88.78,2
80,83.93,88.69,2
80,83.85,88.60,2
81,83.79,88.53,2
80,83.72,88.44,2
79,83.62,88.35,2
80,83.55,88.26,2
81,83.50,88.19,2
80,83.43,88.11,2
79,83.34,88.02,2
79,83.25,87.93,2
80,83.19,87.85,2
79,83.11,87.76,2
79,83.02,87.67,2
81,82.98,87.61,2
80,82.92,87.53,2
80,82.86,87.45,2
79,82.79,87.37,2
81,82.75,87.31,2
80,82.70,87.23,2
80,82.64,87.16,2
78,82.55,87.07,2
79,82.48,86.99,2
79,82.41,86.91,2
80,82.36,86.84,2
79,82.29,86.76,2
80,82.25,86.69,2
80,82.20,86.63,2
82,82.20,86.58,2
79,82.14,86.50,2
79,82.07,86.43,2
79,82.01,86.35,2
79,81.95,86.28,2
79,81.89,86.21,2
79,81.83,86.14,2
80,81.80,86.07,2
78,81.72,85.99,2
79,81.67,85.92,2
78,81.59,85.84,2
80,81.56,85.79,2
79,81.51,85.72,2
78,81.44,85.64,2
78,81.37,85.56,2
78,81.30,85.49,2
78,81.24,85.41,2
78,81.17,85.34,2
78,81.11,85.27,2
79,81.07,85.20,2
78,81.01,85.13,2
78,80.95,85.06,2
78,80.89,84.99,2
77,80.81,84.91,2
78,80.75,84.84,2
78,80.70,84.77,2
79,80.66,84.72,2
78,80.61,84.65,2
77,80.54,84.57,2
76,80.45,84.49,2
76,80.36,84.40,2
77,80.29,84.33,2
77,80.23,84.25,2
76,80.14,84.17,2
77,80.08,84.10,2
78,80.04,84.04,2
76,79.96,83.96,2
76,79.88,83.88,2
76,79.80,83.80,2
76,79.72,83.72,2
76,79.65,83.64,2
75,79.56,83.56,2
76,79.49,83.48,2
76,79.42,83.41,2
75,79.33,83.32,2
74,79.22,83.23,2
75,79.14,83.15,2
76,79.07,83.08,2
76,79.01,83.01,2
76,78.95,82.94,2
76,78.89,82.87,2
76,78.83,82.80,2
75,78.76,82.72,2
76,78.70,82.65,2
76,78.65,82.59,2
76,78.60,82.52,2
76,78.54,82.45,2
74,78.45,82.37,2
75,78.38,82.30,2
75,78.32,82.22,2
74,78.23,82.14,2
74,78.15,82.06,2
76,78.10,82.00,2
75,78.04,81.93,2
78,78.04,81.89,2
76,78.00,81.83,2
76,77.96,81.77,2
75,77.90,81.71,2
74,77.82,81.63,2
76,77.79,81.57,2
75,77.73,81.51,2
74,77.65,81.43,2
74,77.58,81.36,2
74,77.51,81.28,2
75,77.46,81.22,2
74,77.39,81.15,2
74,77.32,81.08,2
74,77.26,81.01,2
74,77.19,80.94,2
74,77.13,80.87,2
74,77.07,80.80,2
74,77.00,80.73,2
73,76.92,80.65,2
74,76.87,80.59,2
74,76.81,80.52,2
74,76.75,80.45,2
73,76.68,80.38,2
72,76.58,80.30,2
72,76.49,80.21,2
74,76.44,80.15,2
73,76.37,80.08,2
74,76.33,80.02,2
74,76.28,79.96,2
73,76.21,79.89,2
73,76.15,79.82,2
74,76.11,79.76,2
73,76.04,79.69,2
72,75.96,79.62,2
73,75.90,79.55,2
74,75.87,79.50,2
72,75.79,79.42,2
72,75.71,79.35,2
72,75.64,79.27,2
72,75.57,79.20,2
74,75.53,79.15,2
72,75.46,79.08,2
73,75.41,79.02,2
72,75.35,78.95,2
72,75.28,78.88,2
72,75.21,78.81,2
72,75.15,78.74,2
72,75.09,78.67,2
72,75.02,78.61,2
71,74.94,78.53,2
71,74.87,78.45,2
73,74.83,78.40,2
72,74.77,78.34,2
71,74.70,78.26,2
71,74.62,78.19,2
71,74.55,78.12,2
71,74.48,78.05,2
70,74.39,77.97,2
70,74.30,77.89,2
70,74.22,77.81,2
70,74.13,77.73,2
70,74.05,77.65,2
70,73.97,77.58,2
71,73.91,77.51,2
70,73.83,77.44,2
70,73.75,77.36,2
69,73.66,77.28,2
70,73.59,77.20,2
70,73.51,77.13,2
70,73.44,77.06,2
69,73.35,76.98,2
71,73.31,76.92,2
70,73.24,76.85,2
70,73.18,76.78,2
70,73.11,76.72,2
70,73.05,76.65,2
70,72.99,76.58,2
70,72.93,76.52,2
70,72.87,76.45,2
69,72.79,76.38,2
70,72.74,76.31,2
70,72.68,76.25,2
70,72.63,76.19,2
71,72.60,76.13,2
70,72.54,76.07,2
70,72.49,76.01,2
69,72.42,75.94,2
69,72.36,75.87,2
68,72.27,75.79,2
68,72.18,75.72,2
70,72.14,75.66,2
69,72.08,75.59,2
70,72.04,75.54,2
70,71.99,75.48,2
70,71.95,75.43,2
70,71.92,75.37,2
68,71.84,75.30,2
69,71.78,75.24,2
69,71.72,75.17,2
67,71.63,75.09,2
68,71.56,75.02,2
70,71.53,74.97,2
69,71.48,74.91,2
68,71.41,74.84,2
68,71.34,74.77,2
68,71.27,74.71,2
69,71.23,74.65,2
68,71.16,74.58,2
68,71.10,74.52,2
68,71.04,74.45,2
69,71.00,74.40,2
68,70.94,74.33,2
70,70.92,74.29,2
68,70.86,74.23,2
68,70.80,74.16,2
68,70.75,74.10,2
68,70.69,74.04,2
68,70.64,73.98,2
68,70.58,73.92,2
68,70.53,73.86,2
69,70.50,73.81,2
68,70.45,73.76,2
69,70.42,73.71,2
69,70.39,73.66,2
69,70.37,73.61,2
68,70.32,73.56,2
68,70.27,73.50,2
72,70.31,73.49,2
68,70.26,73.43,2
68,70.22,73.38,2
68,70.17,73.32,2
67,70.11,73.26,2
68,70.07,73.21,2
68,70.02,73.16,2
68,69.98,73.10,2
69,69.96,73.06,2
68,69.93,73.01,2
68,69.89,72.96,2
70,69.89,72.93,2
68,69.85,72.88,2
68,69.81,72.84,2
67,69.76,72.78,2
69,69.74,72.74,2
68,69.71,72.69,2
68,69.67,72.64,2
68,69.64,72.60,2
68,69.61,72.55,2
68,69.58,72.51,2
68,69.54,72.46,2
67,69.49,72.41,2
66,69.42,72.34,2
69,69.41,72.31,2
68,69.39,72.27,2
68,69.36,72.22,2
69,69.35,72.19,2
68,69.32,72.15,2
67,69.28,72.10,2
68,69.25,72.06,2
67,69.21,72.01,2
69,69.20,71.98,2
67,69.16,71.93,2
66,69.10,71.87,2
66,69.03,71.81,2
67,68.99,71.76,2
67,68.95,71.71,2
66,68.89,71.66,2
68,68.88,71.62,2
69,68.88,71.59,2
67,68.84,71.55,2
66,68.78,71.49,2
68,68.77,71.46,2
68,68.75,71.42,2
67,68.72,71.38,2
68,68.70,71.34,2
68,68.69,71.31,2
67,68.66,71.27,2
66,68.60,71.22,2
68,68.59,71.18,2
68,68.58,71.15,2
68,68.57,71.12,2
66,68.52,71.07,2
68,68.51,71.04,2
67,68.48,71.00,2
67,68.45,70.96,2
66,68.40,70.91,2
67,68.37,70.87,2
68,68.36,70.84,2
67,68.33,70.80,2
68,68.33,70.77,2
68,68.32,70.75,2
67,68.30,70.71,2
67,68.27,70.67,2
66,68.22,70.62,2
66,68.18,70.58,2
67,68.16,70.54,2
66,68.11,70.50,2
66,68.07,70.45,2
68,68.07,70.43,2
67,68.05,70.39,2
67,68.03,70.36,2
68,68.03,70.34,2
68,68.03,70.31,2
67,68.01,70.28,2
68,68.00,70.26,2
67,67.98,70.22,2
68,67.99,70.20,2
69,68.01,70.19,2
68,68.01,70.17,2
69,68.03,70.16,2
68,68.02,70.13,2
69,68.04,70.12,2
70,68.08,70.12,2
69,68.10,70.11,2
69,68.12,70.10,2
70,68.16,70.10,2
73,68.25,70.13,2
70,68.29,70.13,2
70,68.32,70.13,2
70,68.36,70.12,2
71,68.41,70.13,2
72,68.48,70.15,2
71,68.53,70.16,2
71,68.58,70.17,2
72,68.65,70.19,2
72,68.72,70.20,2
71,68.76,70.21,2
71,68.81,70.22,2
71,68.85,70.23,2
70,68.87,70.23,2
70,68.90,70.22,2
71,68.94,70.23,2
71,68.98,70.24,2
72,69.04,70.26,2
71,69.08,70.26,2
71,69.12,70.27,2
72,69.18,70.29,2
71,69.21,70.30,2
70,69.23,70.29,2
74,69.32,70.33,2
71,69.36,70.34,2
70,69.37,70.33,2
70,69.38,70.33,2
69,69.37,70.32,2
70,69.39,70.31,2
70,69.40,70.31,2
70,69.41,70.31,2
71,69.44,70.31,2
72,69.49,70.33,2
70,69.50,70.33,2
70,69.51,70.32,2
71,69.54,70.33,2
72,69.59,70.35,2
70,69.60,70.34,2
70,69.61,70.34,2
70,69.62,70.34,2
72,69.66,70.35,2
70,69.67,70.35,2
70,69.68,70.35,2
71,69.70,70.35,2
70,69.71,70.35,2
70,69.72,70.35,2
70,69.72,70.34,2
69,69.71,70.33,2
70,69.71,70.33,2
70,69.72,70.32,2
70,69.72,70.32,2
70,69.73,70.32,2
70,69.74,70.31,2
70,69.74,70.31,2
70,69.75,70.31,2
70,69.75,70.30,2
70,69.76,70.30,2
70,69.76,70.30,2
70,69.77,70.30,2
70,69.77,70.29,2
70,69.77,70.29,2
70,69.78,70.29,2
70,69.78,70.28,2
70,69.79,70.28,2
70,69.79,70.28,2
70,69.80,70.28,2
69,69.78,70.26,2
70,69.79,70.26,2
70,69.79,70.26,2
70,69.79,70.25,2
70,69.80,70.25,2
69,69.78,70.24,2
70,69.79,70.24,2
70,69.79,70.23,2
70,69.79,70.23,2
69,69.78,70.22,2
70,69.78,70.22,2
70,69.79,70.22,2
70,69.79,70.21,2
70,69.80,70.21,2
70,69.80,70.21,2
72,69.84,70.23,2
69,69.83,70.22,2
69,69.81,70.20,2
70,69.81,70.20,2
70,69.82,70.20,2
68,69.78,70.18,2
69,69.77,70.17,2
69,69.75,70.15,2
68,69.72,70.13,2
68,69.68,70.11,2
69,69.67,70.10,2
68,69.63,70.08,2
68,69.60,70.06,2
68,69.57,70.04,2
68,69.54,70.02,2
69,69.53,70.01,2
68,69.50,69.99,2
68,69.47,69.97,2
69,69.46,69.96,2
68,69.43,69.94,2
68,69.40,69.92,2
68,69.37,69.90,2
68,69.34,69.88,2
68,69.32,69.86,2
68,69.29,69.84,2
68,69.27,69.82,2
68,69.24,69.81,2
69,69.24,69.80,2
68,69.21,69.78,2
68,69.19,69.76,2
68,69.16,69.74,2
67,69.12,69.72,2
68,69.10,69.70,2
68,69.08,69.68,2
67,69.03,69.66,2
68,69.01,69.64,2
67,68.97,69.61,2
67,68.93,69.59,2
68,68.91,69.57,2
68,68.90,69.56,2
68,68.88,69.54,2
66,68.82,69.50,2
66,68.76,69.47,2
67,68.73,69.44,2
67,68.69,69.42,2
66,68.64,69.39,2
66,68.59,69.35,2
68,68.58,69.34,2
67,68.54,69.32,2
68,68.53,69.30,2
66,68.48,69.27,2
68,68.47,69.26,2
67,68.44,69.23,2
66,68.39,69.20,2
68,68.39,69.19,2
66,68.34,69.16,2
66,68.29,69.13,2
63,68.19,69.06,2
68,68.18,69.05,2
67,68.16,69.03,2
66,68.12,69.00,2
66,68.07,68.97,2
68,68.07,68.96,2
67,68.05,68.94,2
66,68.01,68.91,2
63,67.91,68.86,2
67,67.89,68.84,2
67,67.87,68.82,2
66,67.84,68.79,2
68,67.84,68.78,2
68,67.84,68.77,2
68,67.85,68.77,2
66,67.81,68.74,2
68,67.81,68.73,2
68,67.82,68.72,2
67,67.80,68.71,2
66,67.76,68.68,2
68,67.77,68.67,2
68,67.77,68.67,2
67,67.76,68.65,2
66,67.72,68.62,2
68,67.73,68.62,2
68,67.73,68.61,2
66,67.70,68.58,2
68,67.71,68.58,2
68,67.71,68.57,2
67,67.70,68.56,2
66,67.66,68.53,2
68,67.67,68.53,2
68,67.68,68.52,2
67,67.66,68.51,2
66,67.63,68.48,2
67,67.62,68.47,2
66,67.58,68.44,2
67,67.57,68.43,2
66,67.54,68.40,2
68,67.55,68.40,2
67,67.54,68.38,2
67,67.53,68.37,2
66,67.50,68.35,2
68,67.51,68.34,2
68,67.52,68.34,2
67,67.51,68.33,2
69,67.54,68.33,2
68,67.55,68.33,2
68,67.56,68.33,2
68,67.56,68.32,2
68,67.57,68.32,2
68,67.58,68.32,2
68,67.59,68.31,2
68,67.60,68.31,2
67,67.59,68.30,2
68,67.59,68.29,2
68,67.60,68.29,2
69,67.63,68.30,2
69,67.66,68.31,2
67,67.65,68.29,2
66,67.61,68.27,2
69,67.64,68.28,2
67,67.63,68.26,2
68,67.63,68.26,2
68,67.64,68.26,2
67,67.63,68.25,2
68,67.64,68.24,2
66,67.60,68.22,2
66,67.57,68.20,2
68,67.58,68.20,2
66,67.55,68.18,2
66,67.52,68.15,2
66,67.49,68.13,2
66,67.46,68.11,2
66,67.43,68.09,2
66,67.40,68.07,2
66,67.37,68.05,2
66,67.34,68.03,2
68,67.36,68.03,2
66,67.33,68.01,2
66,67.30,67.99,2
68,67.32,67.99,2
67,67.31,67.98,2
66,67.29,67.96,2
66,67.26,67.94,2
68,67.27,67.94,2
68,67.29,67.94,2
67,67.28,67.93,2
66,67.26,67.91,2
68,67.27,67.91,2
68,67.29,67.91,2
68,67.30,67.91,2
68,67.32,67.91,2
68,67.33,67.92,2
69,67.36,67.93,2
66,67.33,67.91,2
66,67.31,67.89,2
68,67.32,67.89,2
67,67.32,67.88,2
67,67.31,67.87,2
66,67.28,67.85,2
66,67.26,67.83,2
67,67.25,67.83,2
68,67.27,67.83,2
68,67.28,67.83,2
68,67.30,67.83,2
67,67.29,67.82,2
66,67.26,67.80,2
68,67.28,67.81,2
68,67.29,67.81,2
69,67.33,67.82,2
68,67.34,67.82,2
68,67.35,67.82,2
69,67.39,67.84,2
67,67.38,67.83,2
68,67.39,67.83,2
68,67.40,67.83,2
69,67.44,67.84,2
70,67.49,67.86,2
72,67.58,67.91,2
68,67.59,67.91,2
69,67.61,67.92,2
70,67.66,67.94,2
70,67.71,67.96,2
69,67.73,67.97,2
69,67.76,67.98,2
70,67.80,68.00,2
71,67.87,68.03,2
70,67.91,68.05,2
71,67.97,68.08,2
71,68.03,68.11,2
69,68.05,68.12,2
71,68.11,68.15,2
71,68.17,68.17,2
71,68.23,68.20,2
70,68.26,68.22,2
71,68.32,68.25,2
70,68.35,68.27,2
72,68.42,68.30,2
71,68.47,68.33,2
70,68.51,68.35,2
71,68.56,68.37,2
71,68.60,68.40,2
72,68.67,68.44,2
71,68.72,68.46,2
71,68.76,68.49,2
71,68.81,68.51,2
71,68.85,68.54,2
70,68.88,68.55,2
71,68.92,68.58,2
71,68.96,68.60,2
70,68.98,68.61,2
70,69.00,68.63,2
70,69.02,68.64,2
70,69.04,68.66,2
70,69.06,68.67,2
70,69.08,68.68,2
70,69.10,68.69,2
70,69.11,68.71,2
71,69.15,68.73,2
71,69.19,68.75,2
71,69.23,68.78,2
73,69.30,68.82,2
72,69.36,68.85,2
72,69.41,68.88,2
73,69.48,68.92,2
72,69.53,68.95,2
72,69.58,68.98,2
72,69.63,69.01,2
74,69.72,69.06,2
73,69.78,69.10,2
72,69.83,69.13,2
72,69.87,69.16,2
73,69.93,69.20,2
74,70.01,69.25,2
73,70.07,69.29,2
74,70.15,69.33,2
73,70.21,69.37,2
73,70.26,69.41,2
74,70.34,69.45,2
74,70.41,69.50,2
75,70.50,69.55,2
74,70.57,69.60,2
74,70.64,69.64,2
74,70.71,69.68,2
76,70.82,69.75,2
74,70.88,69.79,2
74,70.94,69.83,2
74,71.00,69.87,2
76,71.10,69.93,2
78,71.24,70.02,2
78,71.38,70.10,2
78,71.51,70.17,2
77,71.62,70.24,2
78,71.75,70.32,2
78,71.87,70.40,2
78,71.99,70.47,2
78,72.11,70.55,2
78,72.23,70.62,2
78,72.35,70.70,2
79,72.48,70.78,2
79,72.61,70.86,2
79,72.74,70.94,2
78,72.84,71.01,2
79,72.97,71.09,2
79,73.09,71.17,2
79,73.21,71.25,2
80,73.34,71.34,2
80,73.47,71.42,2
80,73.60,71.51,2
80,73.73,71.60,2
80,73.86,71.68,2
82,74.02,71.78,2
83,74.20,71.89,2
84,74.40,72.02,2
84,74.59,72.14,2
86,74.82,72.27,2
87,75.06,72.42,2
87,75.30,72.57,2
87,75.53,72.71,2
86,75.74,72.84,2
86,75.95,72.98,2
90,76.23,73.15,2
86,76.42,73.28,2
86,76.62,73.40,2
86,76.80,73.53,2
87,77.01,73.66,2
87,77.21,73.80,2
86,77.38,73.92,2
88,77.60,74.06,2
89,77.82,74.21,2
88,78.03,74.35,2
88,78.23,74.48,2
91,78.48,74.65,2
90,78.71,74.80,2
89,78.92,74.94,2
89,79.12,75.08,2
90,79.34,75.23,2
92,79.59,75.40,2
90,79.80,75.55,2
90,80.00,75.69,2
93,80.26,75.86,2
93,80.52,76.04,2
92,80.75,76.20,2
92,80.97,76.35,2
91,81.17,76.50,2
93,81.41,76.67,2
94,81.66,76.84,2
95,81.93,77.02,2
96,82.21,77.21,2
96,82.49,77.40,2
95,82.74,77.57,2
96,83.00,77.76,2
97,83.28,77.95,2
98,83.58,78.15,2
95,83.80,78.32,2
96,84.05,78.50,2
96,84.29,78.67,2
95,84.50,78.83,2
95,84.71,79.00,2
96,84.94,79.17,2
97,85.18,79.34,2
95,85.37,79.50,2
96,85.59,79.67,2
96,85.80,79.83,2
97,86.02,80.00,2
95,86.20,80.15,2
96,86.39,80.31,2
97,86.61,80.48,2
98,86.83,80.65,2
97,87.04,80.82,2
98,87.26,80.99,2
100,87.51,81.18,2
103,87.82,81.40,2
102,88.11,81.60,2
105,88.44,81.84,2
107,88.81,82.09,2
110,89.24,82.37,2
110,89.65,82.64,2
109,90.04,82.91,2
111,90.46,83.19,2
111,90.87,83.47,2
111,91.27,83.74,2
112,91.69,84.02,2
116,92.17,84.34,2
114,92.61,84.64,2
114,93.04,84.93,2
114,93.46,85.22,2
113,93.85,85.50,2
113,94.23,85.78,2
113,94.61,86.05,2
113,94.97,86.32,2
114,95.36,86.60,2
115,95.75,86.88,2
115,96.13,87.16,2
117,96.55,87.46,2
116,96.94,87.74,2
117,97.34,88.04,2
119,97.77,88.35,2
118,98.18,88.64,2
118,98.57,88.94,2
119,98.98,89.24,2
119,99.38,89.53,2
119,99.78,89.83,2
119,100.16,90.12,2
120,100.56,90.42,2
120,100.95,90.72,2
120,101.33,91.01,2
124,101.78,91.34,2
120,102.14,91.63,2
120,102.50,91.91,2
122,102.89,92.21,2
124,103.31,92.53,2
123,103.71,92.83,2
122,104.07,93.12,2
127,104.53,93.46,2
124,104.92,93.77,2
125,105.32,94.08,2
124,105.70,94.38,2
125,106.08,94.69,2
123,106.42,94.97,2
125,106.79,95.27,2
124,107.14,95.56,2
125,107.49,95.85,2
124,107.82,96.13,2
125,108.17,96.42,2
124,108.48,96.70,2
124,108.79,96.97,2
126,109.14,97.26,2
126,109.48,97.55,2
126,109.81,97.83,2
125,110.11,98.10,2
125,110.41,98.37,2
125,110.70,98.64,2
126,111.01,98.91,2
125,111.29,99.17,2
126,111.58,99.44,2
126,111.87,99.71,2
126,112.15,99.97,2
126,112.43,100.23,2
126,112.70,100.49,2
126,112.97,100.74,2
125,113.21,100.99,2
125,113.44,101.23,2
125,113.67,101.46,2
125,113.90,101.70,2
126,114.14,101.94,2
125,114.36,102.17,2
125,114.57,102.40,2
125,114.78,102.63,2
124,114.96,102.84,2
125,115.17,103.06,2
125,115.36,103.28,2
125,115.56,103.50,2
125,115.74,103.71,2
125,115.93,103.93,2
125,116.11,104.14,2
125,116.29,104.35,2
125,116.46,104.55,2
125,116.63,104.76,2
125,116.80,104.96,2
124,116.94,105.15,2
124,117.09,105.34,2
125,117.24,105.54,2
124,117.38,105.72,2
124,117.51,105.90,2
124,117.64,106.08,2
124,117.77,106.26,2
124,117.89,106.44,2
123,118.00,106.61,2
123,118.10,106.77,2
123,118.19,106.93,2
123,118.29,107.09,2
123,118.38,107.25,2
123,118.48,107.41,2
123,118.57,107.57,2
122,118.64,107.71,2
123,118.72,107.86,2
122,118.79,108.00,2
121,118.83,108.13,2
122,118.90,108.27,2
121,118.94,108.40,2
121,118.98,108.53,2
121,119.02,108.65,2
121,119.06,108.77,2
121,119.10,108.90,2
120,119.12,109.01,2
121,119.15,109.13,2
120,119.17,109.24,2
120,119.19,109.34,2
120,119.20,109.45,2
121,119.24,109.57,2
122,119.29,109.69,2
119,119.29,109.78,2
119,119.28,109.88,2
119,119.28,109.97,2
119,119.27,110.06,2
120,119.29,110.16,2
119,119.28,110.24,2
119,119.27,110.33,2
119,119.27,110.42,2
119,119.26,110.50,2
118,119.24,110.58,2
118,119.21,110.65,2
117,119.17,110.72,2
117,119.13,110.78,2
117,119.08,110.84,2
117,119.04,110.90,2
116,118.98,110.96,2
117,118.94,111.02,2
117,118.90,111.08,2
115,118.82,111.11,2
117,118.79,111.17,2
116,118.73,111.22,2
116,118.68,111.27,2
116,118.62,111.32,2
115,118.55,111.35,2
117,118.52,111.41,2
116,118.47,111.46,2
115,118.40,111.49,2
115,118.33,111.53,2
116,118.29,111.57,2
116,118.24,111.62,2
115,118.18,111.65,2
114,118.09,111.67,2
115,118.03,111.71,2
114,117.95,111.73,2
115,117.89,111.76,2
114,117.81,111.78,2
113,117.72,111.80,2
113,117.62,111.81,2
113,117.53,111.82,2
113,117.44,111.83,2
114,117.37,111.85,2
113,117.28,111.87,2
113,117.20,111.88,2
113,117.11,111.89,2
113,117.03,111.90,2
113,116.95,111.91,2
113,116.87,111.92,2
111,116.75,111.91,2
112,116.66,111.91,2
112,116.57,111.91,2
112,116.47,111.91,2
113,116.41,111.93,2
112,116.32,111.93,2
113,116.25,111.94,2
111,116.15,111.93,2
111,116.04,111.92,2
111,115.94,111.91,2
112,115.86,111.91,2
111,115.77,111.90,2
111,115.67,111.89,2
111,115.58,111.88,2
110,115.47,111.86,2
111,115.38,111.86,2
110,115.27,111.84,2
110,115.16,111.82,2
109,115.04,111.79,2
109,114.92,111.76,2
109,114.80,111.73,2
110,114.70,111.72,2
109,114.59,111.69,2
109,114.48,111.66,2
109,114.37,111.64,2
110,114.28,111.62,2
109,114.18,111.59,2
109,114.07,111.57,2
109,113.97,111.54,2
108,113.85,111.51,2
108,113.73,111.47,2
107,113.60,111.43,2
108,113.49,111.39,2
108,113.38,111.36,2
108,113.27,111.33,2
108,113.17,111.29,2
108,113.06,111.26,2
107,112.94,111.22,2
109,112.86,111.19,2
107,112.74,111.15,2
107,112.63,111.11,2
107,112.52,111.07,2
108,112.43,111.04,2
107,112.32,111.00,2
107,112.21,110.96,2
107,112.11,110.92,2
106,111.99,110.87,2
106,111.87,110.82,2
106,111.75,110.77,2
106,111.63,110.73,2
105,111.50,110.67,2
105,111.37,110.61,2
105,111.24,110.56,2
105,111.12,110.50,2
105,111.00,110.44,2
105,110.88,110.39,2
105,110.76,110.34,2
105,110.64,110.28,2
104,110.51,110.22,2
105,110.40,110.17,2
105,110.29,110.12,2
104,110.17,110.06,2
101,109.98,109.96,2
103,109.84,109.90,2
104,109.73,109.84,2
103,109.59,109.77,2
103,109.46,109.70,2
103,109.33,109.63,2
103,109.20,109.57,2
103,109.08,109.50,2
103,108.96,109.44,2
102,108.82,109.36,2
103,108.70,109.30,2
102,108.57,109.23,2
101,108.42,109.14,2
101,108.27,109.06,2
99,108.08,108.96,2
100,107.92,108.87,2
101,107.78,108.79,2
101,107.65,108.71,2
101,107.52,108.64,2
102,107.41,108.57,2
101,107.28,108.50,2
101,107.15,108.42,2
101,107.03,108.35,2
103,106.95,108.29,2
101,106.83,108.22,2
100,106.69,108.14,2
100,106.56,108.06,2
99,106.41,107.97,2
99,106.26,107.88,2
99,106.11,107.79,2
99,105.97,107.70,2
98,105.81,107.60,2
100,105.70,107.53,2
99,105.56,107.44,2
99,105.43,107.36,2
99,105.30,107.27,2
98,105.16,107.18,2
98,105.01,107.09,2
98,104.87,107.00,2
100,104.78,106.93,2
98,104.64,106.84,2
97,104.49,106.74,2
99,104.38,106.66,2
98,104.25,106.58,2
98,104.12,106.49,2
97,103.98,106.40,2
98,103.86,106.31,2
98,103.75,106.23,2
100,103.67,106.17,2
97,103.54,106.07,2
97,103.41,105.98,2
97,103.28,105.89,2
97,103.15,105.80,2
96,103.01,105.71,2
97,102.89,105.62,2
98,102.79,105.54,2
96,102.66,105.45,2
95,102.50,105.34,2
96,102.37,105.25,2
96,102.25,105.16,2
96,102.12,105.07,2
95,101.98,104.97,2
96,101.86,104.88,2
95,101.72,104.78,2
94,101.57,104.67,2
95,101.44,104.57,2
96,101.33,104.49,2
96,101.22,104.40,2
95,101.10,104.31,2
94,100.95,104.20,2
94,100.81,104.10,2
94,100.68,104.00,2
94,100.54,103.90,2
95,100.43,103.81,2
96,100.35,103.73,2
96,100.26,103.66,2
94,100.13,103.56,2
94,100.01,103.47,2
94,99.89,103.37,2
93,99.75,103.27,2
94,99.64,103.17,2
95,99.54,103.09,2
95,99.45,103.01,2
94,99.34,102.92,2
93,99.22,102.82,2
93,99.09,102.72,2
93,98.97,102.63,2
94,98.87,102.54,2
93,98.75,102.45,2
93,98.64,102.35,2
93,98.53,102.26,2
93,98.42,102.16,2
92,98.29,102.06,2
93,98.18,101.97,2
92,98.06,101.87,2
93,97.96,101.78,2
93,97.86,101.70,2
93,97.76,101.61,2
93,97.67,101.52,2
93,97.57,101.44,2
93,97.48,101.35,2
92,97.37,101.26,2
93,97.28,101.18,2
92,97.18,101.09,2
92,97.07,100.99,2
92,96.97,100.90,2
92,96.87,100.82,2
91,96.76,100.72,2
92,96.66,100.63,2
93,96.59,100.55,2
91,96.48,100.46,2
91,96.37,100.36,2
92,96.28,100.28,2
91,96.17,100.19,2
91,96.07,100.10,2
92,95.99,100.01,2
91,95.89,99.92,2
92,95.81,99.85,2
92,95.74,99.77,2
91,95.64,99.68,2
91,95.55,99.59,2
91,95.46,99.51,2
90,95.35,99.41,2
90,95.24,99.32,2
87,95.08,99.19,2
90,94.97,99.10,2
90,94.87,99.01,2
90,94.78,98.92,2
90,94.68,98.83,2
89,94.57,98.73,2
90,94.48,98.65,2
88,94.35,98.54,2
89,94.24,98.44,2
89,94.14,98.35,2
88,94.01,98.25,2
88,93.89,98.14,2
88,93.77,98.04,2
89,93.68,97.95,2
88,93.57,97.85,2
88,93.45,97.75,2
89,93.37,97.67,2
89,93.28,97.58,2
88,93.17,97.48,2
88,93.07,97.39,2
88,92.97,97.30,2
89,92.89,97.21,2
88,92.79,97.12,2
88,92.69,97.03,2
88,92.60,96.94,2
89,92.53,96.86,2
88,92.44,96.77,2
88,92.35,96.68,2
89,92.28,96.61,2
89,92.22,96.53,2
88,92.13,96.44,2
88,92.05,96.36,2
87,91.95,96.27,2
88,91.87,96.18,2
87,91.77,96.09,2
88,91.70,96.01,2
87,91.60,95.92,2
87,91.51,95.83,2
86,91.40,95.73,2
86,91.29,95.64,2
87,91.21,95.55,2
87,91.12,95.46,2
86,91.02,95.37,2
87,90.94,95.29,2
87,90.86,95.20,2
86,90.76,95.11,2
86,90.67,95.02,2
86,90.58,94.93,2
86,90.48,94.84,2
86,90.39,94.75,2
86,90.31,94.66,2
86,90.22,94.58,2
86,90.14,94.49,2
87,90.07,94.42,2
86,89.99,94.33,2
85,89.89,94.24,2
86,89.81,94.16,2
85,89.72,94.07,2
86,89.64,93.99,2
84,89.53,93.89,2
86,89.46,93.81,2
84,89.35,93.71,2
84,89.24,93.61,2
84,89.14,93.52,2
85,89.06,93.43,2
84,88.95,93.34,2
84,88.86,93.24,2
84,88.76,93.15,2
83,88.64,93.05,2
84,88.55,92.96,2
84,88.46,92.87,2
86,88.41,92.80,2
85,88.34,92.72,2
84,88.26,92.63,2
84,88.17,92.55,2
84,88.09,92.46,2
83,87.99,92.37,2
84,87.91,92.28,2
84,87.83,92.20,2
84,87.75,92.12,2
84,87.68,92.04,2
84,87.60,91.96,2
84,87.53,91.88,2
84,87.46,91.80,2
83,87.37,91.71,2
84,87.30,91.63,2
84,87.24,91.56,2
84,87.17,91.48,2
83,87.09,91.40,2
85,87.05,91.33,2
82,86.95,91.24,2
82,86.85,91.15,2
83,86.77,91.07,2
83,86.69,90.99,2
82,86.60,90.90,2
84,86.55,90.83,2
83,86.48,90.75,2
85,86.45,90.69,2
82,86.36,90.60,2
81,86.25,90.51,2
84,86.21,90.44,2
81,86.10,90.35,2
81,86.00,90.26,2
82,85.92,90.17,2
82,85.84,90.09,2
82,85.77,90.01,2
81,85.67,89.92,2
82,85.60,89.84,2
81,85.51,89.75,2
81,85.41,89.66,2
80,85.31,89.57,2
80,85.20,89.47,2
81,85.12,89.39,2
81,85.03,89.30,2
81,84.95,89.22,2
80,84.85,89.13,2
80,84.76,89.04,2
81,84.68,88.96,2
80,84.59,88.87,2
80,84.50,88.78,2
80,84.41,88.69,2
81,84.34,88.61,2
80,84.25,88.53,2
80,84.17,88.44,2
79,84.06,88.35,2
80,83.98,88.26,2
80,83.90,88.18,2
80,83.82,88.10,2
80,83.75,88.02,2
80,83.67,87.94,2
81,83.62,87.87,2
78,83.51,87.77,2
79,83.42,87.68,2
79,83.33,87.60,2
78,83.22,87.50,2
78,83.12,87.41,2
80,83.06,87.33,2
81,83.01,87.27,2
79,82.93,87.19,2
78,82.84,87.09,2
80,82.78,87.02,2
80,82.72,86.95,2
79,82.65,86.87,2
79,82.58,86.79,2
79,82.50,86.72,2
79,82.43,86.64,2
78,82.35,86.55,2
80,82.30,86.49,2
79,82.23,86.41,2
79,82.17,86.34,2
79,82.10,86.26,2
79,82.04,86.19,2
79,81.98,86.12,2
78,81.90,86.04,2
78,81.82,85.96,2
79,81.77,85.89,2
77,81.67,85.80,2
78,81.60,85.72,2
78,81.53,85.64,2
78,81.46,85.57,2
77,81.37,85.48,2
78,81.30,85.41,2
78,81.23,85.33,2
78,81.17,85.26,2
78,81.11,85.19,2
78,81.04,85.12,2
78,80.98,85.04,2
78,80.92,84.97,2
77,80.84,84.89,2
77,80.77,84.82,2
79,80.73,84.76,2
78,80.68,84.69,2
76,80.58,84.60,2
76,80.49,84.52,2
76,80.40,84.43,2
76,80.31,84.35,2
77,80.25,84.27,2
78,80.20,84.21,2
76,80.12,84.13,2
77,80.06,84.06,2
77,80.00,83.99,2
78,79.96,83.93,2
76,79.88,83.85,2
76,79.80,83.77,2
76,79.72,83.69,2
76,79.65,83.62,2
76,79.58,83.54,2
76,79.50,83.46,2
75,79.41,83.38,2
76,79.35,83.31,2
76,79.28,83.23,2
76,79.21,83.16,2
75,79.13,83.08,2
76,79.07,83.01,2
76,79.01,82.94,2
76,78.95,82.87,2
75,78.87,82.79,2
76,78.81,82.72,2
76,78.75,82.65,2
74,78.66,82.57,2
76,78.60,82.50,2
76,78.55,82.44,2
76,78.50,82.37,2
74,78.41,82.29,2
74,78.32,82.21,2
74,78.24,82.12,2
74,78.15,82.04,2
74,78.07,81.96,2
75,78.01,81.89,2
74,77.93,81.81,2
74,77.85,81.74,2
74,77.77,81.66,2
74,77.70,81.58,2
75,77.64,81.52,2
74,77.57,81.44,2
76,77.54,81.39,2
74,77.47,81.31,2
74,77.40,81.24,2
74,77.33,81.17,2
74,77.26,81.10,2
73,77.18,81.01,2
73,77.09,80.93,2
73,77.01,80.85,2
74,76.95,80.79,2
73,76.87,80.71,2
76,76.86,80.66,2
74,76.80,80.59,2
72,76.70,80.51,2
73,76.63,80.43,2
73,76.56,80.36,2
71,76.45,80.27,2
74,76.40,80.20,2
74,76.35,80.14,2
73,76.28,80.07,2
74,76.24,80.01,2
74,76.19,79.95,2
74,76.15,79.89,2
75,76.12,79.84,2
74,76.08,79.78,2
74,76.04,79.72,2
74,76.00,79.67,2
75,75.98,79.62,2
74,75.94,79.56,2
74,75.90,79.51,2
73,75.84,79.44,2
74,75.81,79.39,2
74,75.77,79.34,2
74,75.73,79.28,2
73,75.68,79.22,2
74,75.65,79.17,2
74,75.61,79.12,2
72,75.54,79.04,2
74,75.51,78.99,2
72,75.44,78.92,2
72,75.37,78.85,2
72,75.30,78.79,2
72,75.24,78.72,2
72,75.17,78.65,2
73,75.13,78.59,2
72,75.07,78.53,2
72,75.01,78.46,2
72,74.95,78.40,2
72,74.89,78.33,2
72,74.83,78.27,2
72,74.77,78.21,2
73,74.74,78.16,2
73,74.70,78.10,2
72,74.65,78.04,2
72,74.60,77.98,2
71,74.52,77.91,2
72,74.47,77.85,2
72,74.42,77.80,2
72,74.37,77.74,2
71,74.31,77.67,2
72,74.26,77.61,2
71,74.20,77.55,2
71,74.13,77.48,2
73,74.11,77.44,2
72,74.07,77.38,2
71,74.01,77.32,2
72,73.97,77.27,2
72,73.93,77.21,2
72,73.89,77.16,2
72,73.85,77.11,2
71,73.79,77.05,2
71,73.74,76.99,2
72,73.70,76.94,2
71,73.65,76.88,2
73,73.64,76.84,2
70,73.56,76.77,2
70,73.49,76.70,2
70,73.42,76.64,2
71,73.37,76.58,2
71,73.33,76.52,2
70,73.26,76.46,2
70,73.19,76.39,2
71,73.15,76.34,2
70,73.09,76.28,2
70,73.03,76.21,2
70,72.97,76.15,2
70,72.91,76.09,2
71,72.87,76.04,2
70,72.81,75.98,2
70,72.75,75.92,2
70,72.70,75.86,2
69,72.63,75.79,2
70,72.57,75.73,2
70,72.52,75.68,2
69,72.45,75.61,2
70,72.40,75.55,2
70,72.35,75.50,2
70,72.31,75.44,2
69,72.24,75.38,2
69,72.18,75.32,2
70,72.13,75.26,2
70,72.09,75.21,2
69,72.03,75.15,2
70,71.99,75.10,2
68,71.91,75.02,2
68,71.83,74.95,2
69,71.77,74.90,2
70,71.74,74.85,2
68,71.66,74.78,2
68,71.59,74.71,2
70,71.56,74.66,2
69,71.51,74.61,2
70,71.48,74.56,2
69,71.43,74.50,2
70,71.40,74.46,2
70,71.37,74.41,2
70,71.34,74.37,2
68,71.28,74.31,2
68,71.21,74.24,2
68,71.15,74.18,2
68,71.08,74.12,2
70,71.06,74.08,2
69,71.02,74.03,2
68,70.96,73.97,2
70,70.94,73.93,2
70,70.92,73.89,2
69,70.88,73.84,2
68,70.83,73.78,2
68,70.77,73.72,2
68,70.71,73.67,2
70,70.70,73.63,2
67,70.63,73.56,2
68,70.57,73.51,2
68,70.52,73.45,2
69,70.49,73.41,2
68,70.44,73.35,2
68,70.39,73.30,2
68,70.34,73.25,2
69,70.32,73.20,2
68,70.27,73.15,2
71,70.29,73.13,2
69,70.26,73.09,2
69,70.24,73.05,2
68,70.19,73.00,2
69,70.17,72.96,2
68,70.12,72.91,2
69,70.10,72.87,2
72,70.14,72.86,2
69,70.12,72.82,2
68,70.07,72.77,2
69,70.05,72.74,2
69,70.03,72.70,2
70,70.03,72.67,2
69,70.01,72.64,2
70,70.01,72.61,2
71,70.03,72.59,2
70,70.03,72.57,2
70,70.03,72.54,2
70,70.03,72.52,2
72,70.07,72.51,2
70,70.07,72.49,2
70,70.06,72.46,2
71,70.08,72.45,2
69,70.06,72.41,2
69,70.04,72.38,2
70,70.04,72.35,2
70,70.04,72.33,2
69,70.02,72.30,2
69,70.00,72.26,2
69,69.98,72.23,2
69,69.96,72.20,2
69,69.94,72.17,2
69,69.92,72.14,2
68,69.88,72.09,2
69,69.86,72.06,2
69,69.85,72.03,2
69,69.83,72.00,2
70,69.83,71.98,2
68,69.80,71.94,2
69,69.78,71.91,2
69,69.77,71.88,2
68,69.73,71.85,2
70,69.74,71.83,2
69,69.72,71.80,2
70,69.73,71.78,2
70,69.73,71.76,2
69,69.72,71.73,2
70,69.72,71.72,2
70,69.73,71.70,2
70,69.73,71.68,2
70,69.74,71.67,2
70,69.74,71.65,2
70,69.75,71.63,2
70,69.75,71.62,2
71,69.78,71.61,2
70,69.78,71.59,2
70,69.79,71.58,2
70,69.79,71.56,2
71,69.82,71.56,2
71,69.84,71.55,2
70,69.84,71.54,2
70,69.85,71.52,2
70,69.85,71.51,2
70,69.85,71.49,2
70,69.86,71.48,2
70,69.86,71.46,2
71,69.88,71.46,2
70,69.88,71.44,2
70,69.89,71.43,2
71,69.91,71.42,2
71,69.93,71.42,2
72,69.97,71.42,2
70,69.97,71.41,2
70,69.97,71.40,2
70,69.97,71.38,2
70,69.97,71.37,2
70,69.97,71.35,2
70,69.97,71.34,2
71,70.00,71.34,2
70,70.00,71.32,2
70,70.00,71.31,2
72,70.04,71.32,2
72,70.07,71.32,2
72,70.11,71.33,2
73,70.17,71.35,2
72,70.21,71.35,2
72,70.24,71.36,2
72,70.28,71.37,2
72,70.31,71.37,2
72,70.35,71.38,2
74,70.42,71.41,2
74,70.49,71.43,2
72,70.52,71.44,2
72,70.55,71.44,2
72,70.58,71.45,2
74,70.65,71.47,2
70,70.64,71.46,2
72,70.66,71.47,2
74,70.73,71.49,2
71,70.74,71.49,2
71,70.74,71.48,2
72,70.77,71.49,2
71,70.77,71.48,2
72,70.79,71.49,2
70,70.78,71.47,2
71,70.78,71.47,2
71,70.79,71.46,2
73,70.83,71.48,2
70,70.82,71.46,2
72,70.84,71.47,2
73,70.88,71.48,2
71,70.88,71.48,2
72,70.91,71.48,2
71,70.91,71.48,2
71,70.91,71.47,2
72,70.93,71.48,2
71,70.93,71.47,2
70,70.92,71.46,2
71,70.92,71.46,2
72,70.94,71.46,2
71,70.94,71.46,2
70,70.92,71.44,2
70,70.90,71.43,2
70,70.88,71.41,2
71,70.89,71.41,2
70,70.87,71.39,2
72,70.89,71.40,2
72,70.91,71.41,2
71,70.92,71.40,2
70,70.90,71.39,2
70,70.88,71.37,2
71,70.88,71.37,2
70,70.86,71.36,2
70,70.85,71.34,2
71,70.85,71.34,2
71,70.85,71.34,2
70,70.84,71.32,2
70,70.82,71.31,2
70,70.80,71.30,2
71,70.81,71.29,2
71,70.81,71.29,2
72,70.83,71.30,2
72,70.86,71.31,2
72,70.88,71.31,2
72,70.90,71.32,2
72,70.92,71.33,2
74,70.99,71.35,2
73,71.03,71.37,2
72,71.05,71.38,2
72,71.07,71.38,2
72,71.08,71.39,2
72,71.10,71.39,2
72,71.12,71.40,2
72,71.14,71.41,2
72,71.15,71.41,2
72,71.17,71.42,2
72,71.19,71.42,2
72,71.20,71.43,2
73,71.24,71.45,2
72,71.26,71.45,2
72,71.27,71.46,2
73,71.31,71.47,2
73,71.34,71.49,2
72,71.35,71.49,2
72,71.37,71.50,2
72,71.38,71.50,2
72,71.39,71.51,2
71,71.38,71.50,2
72,71.39,71.51,2
72,71.41,71.51,2
72,71.42,71.52,2
72,71.43,71.52,2
74,71.48,71.55,2
70,71.45,71.53,2
71,71.44,71.53,2
70,71.41,71.51,2
70,71.39,71.50,2
71,71.38,71.49,2
71,71.37,71.49,2
71,71.36,71.48,2
72,71.38,71.49,2
70,71.35,71.47,2
71,71.34,71.47,2
70,71.31,71.45,2
71,71.31,71.45,2
71,71.30,71.44,2
70,71.28,71.43,2
72,71.29,71.43,2
71,71.28,71.43,2
70,71.26,71.42,2
71,71.25,71.41,2
74,71.31,71.44,2
70,71.28,71.42,2
70,71.26,71.41,2
70,71.23,71.39,2
71,71.23,71.39,2
70,71.20,71.38,2
70,71.18,71.36,2
70,71.16,71.35,2
69,71.11,71.33,2
70,71.09,71.31,2
71,71.09,71.31,2
70,71.07,71.30,2
72,71.09,71.30,2
72,71.10,71.31,2
72,71.12,71.32,2
72,71.14,71.32,2
73,71.18,71.34,2
73,71.21,71.36,2
72,71.23,71.36,2
71,71.22,71.36,2
72,71.24,71.37,2
72,71.25,71.37,2
70,71.23,71.36,2
72,71.24,71.37,2
72,71.26,71.37,2
72,71.27,71.38,2
72,71.29,71.38,2
72,71.30,71.39,2
72,71.32,71.40,2
72,71.33,71.40,2
71,71.32,71.40,2
72,71.34,71.40,2
73,71.37,71.42,2
72,71.38,71.43,2
72,71.40,71.43,2
72,71.41,71.44,2
72,71.42,71.44,2
72,71.43,71.45,2
72,71.44,71.45,2
73,71.47,71.47,2
72,71.48,71.48,2
72,71.49,71.48,2
72,71.51,71.49,2
71,71.49,71.48,2
72,71.51,71.49,2
72,71.51,71.49,2
70,71.48,71.48,2
71,71.47,71.47,2
71,71.47,71.47,2
72,71.48,71.47,2
72,71.49,71.48,2
72,71.50,71.48,2
72,71.51,71.49,2
72,71.52,71.49,2
71,71.51,71.49,2
72,71.52,71.49,2
72,71.53,71.50,2
72,71.54,71.50,2
72,71.54,71.51,2
72,71.55,71.51,2
72,71.56,71.52,2
72,71.57,71.52,2
72,71.58,71.53,2
72,71.59,71.53,2
72,71.60,71.54,2
72,71.60,71.54,2
74,71.65,71.57,2
74,71.70,71.59,2
73,71.73,71.60,2
74,71.77,71.63,2
74,71.82,71.65,2
73,71.84,71.67,2
73,71.86,71.68,2
72,71.87,71.68,2
74,71.91,71.71,2
73,71.93,71.72,2
72,71.93,71.72,2
72,71.93,71.72,2
74,71.97,71.75,2
73,71.99,71.76,2
74,72.03,71.78,2
74,72.07,71.80,2
74,72.11,71.83,2
73,72.13,71.84,2
73,72.15,71.85,2
74,72.18,71.87,2
74,72.22,71.89,2
75,72.28,71.92,2
76,72.35,71.96,2
76,72.42,72.00,2
76,72.50,72.04,2
78,72.61,72.10,2
77,72.69,72.15,2
77,72.78,72.20,2
77,72.86,72.25,2
78,72.97,72.31,2
81,73.13,72.39,2
78,73.22,72.45,2
78,73.32,72.51,2
78,73.41,72.56,2
79,73.53,72.62,2
78,73.62,72.68,2
77,73.68,72.72,2
80,73.81,72.79,2
77,73.87,72.84,2
79,73.98,72.90,2
78,74.06,72.95,2
80,74.18,73.02,2
79,74.27,73.08,2
80,74.39,73.15,2
80,74.50,73.22,2
80,74.61,73.28,2
80,74.72,73.35,2
80,74.82,73.42,2
80,74.93,73.48,2
80,75.03,73.55,2
81,75.15,73.62,2
80,75.24,73.69,2
82,75.38,73.77,2
80,75.47,73.83,2
81,75.58,73.90,2
82,75.71,73.99,2
82,75.84,74.07,2
82,75.96,74.15,2
83,76.10,74.23,2
82,76.22,74.31,2
82,76.33,74.39,2
82,76.45,74.46,2
82,76.56,74.54,2
82,76.67,74.61,2
82,76.77,74.69,2
82,76.88,74.76,2
83,77.00,74.84,2
82,77.10,74.92,2
82,77.20,74.99,2
82,77.29,75.06,2
83,77.41,75.14,2
86,77.58,75.24,2
82,77.67,75.31,2
84,77.80,75.40,2
83,77.90,75.47,2
84,78.02,75.56,2
84,78.14,75.64,2
85,78.28,75.74,2
84,78.39,75.82,2
83,78.48,75.89,2
84,78.60,75.97,2
85,78.72,76.06,2
87,78.89,76.17,2
86,79.03,76.27,2
87,79.19,76.38,2
86,79.33,76.48,2
86,79.46,76.57,2
83,79.53,76.63,2
86,79.66,76.73,2
85,79.77,76.81,2
85,79.87,76.89,2
86,79.99,76.98,2
86,80.11,77.07,2
86,80.23,77.16,2
86,80.35,77.25,2
86,80.46,77.34,2
86,80.57,77.43,2
87,80.70,77.52,2
88,80.85,77.63,2
88,80.99,77.73,2
88,81.13,77.83,2
89,81.29,77.94,2
88,81.42,78.04,2
89,81.57,78.15,2
88,81.70,78.25,2
90,81.87,78.37,2
88,81.99,78.47,2
89,82.13,78.57,2
89,82.27,78.68,2
89,82.40,78.78,2
93,82.61,78.92,2
90,82.76,79.03,2
91,82.93,79.15,2
91,83.09,79.27,2
92,83.27,79.40,2
90,83.40,79.50,2
91,83.55,79.62,2
91,83.70,79.73,2
91,83.85,79.85,2
90,83.97,79.95,2
91,84.11,80.06,2
91,84.25,80.17,2
91,84.38,80.28,2
92,84.54,80.39,2
92,84.69,80.51,2
92,84.83,80.62,2
93,85.00,80.75,2
92,85.14,80.86,2
91,85.25,80.96,2
95,85.45,81.10,2
94,85.62,81.23,2
92,85.75,81.34,2
92,85.87,81.44,2
94,86.03,81.57,2
93,86.17,81.68,2
93,86.31,81.80,2
93,86.44,81.91,2
92,86.55,82.01,2
93,86.68,82.12,2
94,86.83,82.24,2
94,86.97,82.36,2
95,87.13,82.48,2
94,87.27,82.60,2
94,87.41,82.71,2
94,87.54,82.83,2
96,87.71,82.96,2
96,87.87,83.09,2
96,88.04,83.22,2
96,88.19,83.34,2
96,88.35,83.47,2
95,88.48,83.59,2
96,88.63,83.71,2
96,88.78,83.83,2
95,88.91,83.95,2
98,89.09,84.09,2
97,89.25,84.22,2
98,89.42,84.35,2
98,89.59,84.49,2
99,89.78,84.63,2
98,89.95,84.77,2
98,90.11,84.90,2
99,90.28,85.04,2
101,90.50,85.20,2
100,90.69,85.35,2
99,90.85,85.49,2
100,91.04,85.63,2
102,91.26,85.79,2
102,91.47,85.96,2
101,91.66,86.11,2
104,91.91,86.29,2
106,92.19,86.48,2
108,92.51,86.70,2
106,92.78,86.89,2
107,93.06,87.09,2
109,93.38,87.31,2
109,93.69,87.53,2
109,94.00,87.74,2
109,94.30,87.96,2
109,94.59,88.17,2
109,94.88,88.37,2
109,95.16,88.58,2
109,95.44,88.78,2
110,95.73,89.00,2
110,96.02,89.21,2
112,96.34,89.43,2
113,96.67,89.67,2
113,97.00,89.90,2
115,97.36,90.15,2
116,97.73,90.41,2
117,98.11,90.68,2
119,98.53,90.96,2
120,98.96,91.25,2
121,99.40,91.55,2
124,99.89,91.87,2
121,100.32,92.17,2
122,100.75,92.46,2
123,101.20,92.77,2
123,101.63,93.07,2
124,102.08,93.38,2
126,102.56,93.71,2
128,103.07,94.05,2
130,103.60,94.41,2
130,104.13,94.77,2
133,104.71,95.15,2
132,105.26,95.52,2
132,105.79,95.88,2
132,106.31,96.24,2
132,106.83,96.60,2
134,107.37,96.97,2
138,107.98,97.38,2
138,108.58,97.79,2
137,109.15,98.18,2
139,109.75,98.59,2
141,110.37,99.01,2
142,111.01,99.44,2
142,111.63,99.87,2
142,112.23,100.29,2
145,112.89,100.74,2
143,113.49,101.16,2
145,114.12,101.60,2
144,114.72,102.02,2
146,115.35,102.46,2
145,115.94,102.89,2
145,116.52,103.31,2
145,117.09,103.73,2
145,117.65,104.14,2
147,118.23,104.57,2
148,118.83,105.00,2
148,119.41,105.43,2
149,120.01,105.87,2
148,120.57,106.29,2
151,121.17,106.74,2
153,121.81,107.20,2
153,122.43,107.66,2
153,123.05,108.11,2
155,123.68,108.58,2
155,124.31,109.04,2
154,124.90,109.49,2
153,125.47,109.93,2
155,126.06,110.38,2
154,126.62,110.82,2
155,127.18,111.26,2
153,127.70,111.67,2
158,128.31,112.14,2
159,128.92,112.61,2
159,129.52,113.07,2
160,130.13,113.54,2
159,130.71,113.99,2
160,131.29,114.45,2
160,131.87,114.91,2
160,132.43,115.36,2
160,132.98,115.81,2
159,133.50,116.24,2
159,134.01,116.67,2
160,134.53,117.10,2
161,135.06,117.54,2
164,135.64,118.00,2
167,136.27,118.49,2
165,136.84,118.96,2
167,137.45,119.44,2
168,138.06,119.92,2
169,138.68,120.42,2
168,139.26,120.89,2
169,139.86,121.37,2
171,140.48,121.87,2
171,141.09,122.36,2
173,141.73,122.87,2
177,142.43,123.41,2
175,143.09,123.92,2
175,143.72,124.43,2
175,144.35,124.94,2
175,144.96,125.44,2
175,145.56,125.94,2
174,146.13,126.42,2
175,146.71,126.90,2
175,147.27,127.38,2
175,147.83,127.86,2
175,148.37,128.33,2
175,148.91,128.80,2
174,149.41,129.25,2
175,149.92,129.71,2
173,150.38,130.14,2
173,150.83,130.57,2
175,151.32,131.01,2
175,151.79,131.45,2
173,152.21,131.87,2
173,152.63,132.28,2
173,153.04,132.69,2
173,153.44,133.09,2
173,153.83,133.49,2
173,154.21,133.88,2
173,154.59,134.28,2
173,154.96,134.66,2
173,155.32,135.05,2
173,155.67,135.43,2
173,156.02,135.80,2
173,156.36,136.17,2
173,156.69,136.54,2
173,157.02,136.91,2
174,157.36,137.28,2
175,157.71,137.65,2
177,158.09,138.05,2
177,158.47,138.44,2
177,158.84,138.82,2
177,159.21,139.20,2
176,159.54,139.57,2
175,159.85,139.93,2
176,160.17,140.29,2
175,160.47,140.63,2
175,160.76,140.98,2
176,161.07,141.33,2
175,161.34,141.67,2
177,161.66,142.02,2
175,161.92,142.35,2
175,162.19,142.68,2
175,162.44,143.00,2
175,162.69,143.32,2
175,162.94,143.64,2
175,163.18,143.95,2
175,163.42,144.26,2
175,163.65,144.57,2
175,163.88,144.87,2
175,164.10,145.17,2
175,164.32,145.47,2
174,164.51,145.76,2
173,164.68,146.03,2
173,164.85,146.30,2
173,165.01,146.57,2
173,165.17,146.83,2
172,165.31,147.08,2
172,165.44,147.33,2
172,165.57,147.58,2
171,165.68,147.81,2
173,165.83,148.06,2
171,165.93,148.29,2
171,166.03,148.52,2
171,166.13,148.74,2
171,166.23,148.97,2
169,166.28,149.17,2
171,166.38,149.39,2
170,166.45,149.59,2
170,166.52,149.80,2
169,166.57,149.99,2
170,166.64,150.19,2
169,166.69,150.38,2
169,166.73,150.56,2
169,166.78,150.75,2
169,166.82,150.93,2
169,166.87,151.11,2
169,166.91,151.29,2
170,166.97,151.48,2
168,166.99,151.64,2
168,167.01,151.80,2
168,167.03,151.97,2
168,167.05,152.13,2
167,167.05,152.28,2
167,167.05,152.42,2
167,167.05,152.57,2
166,167.03,152.70,2
165,166.99,152.83,2
166,166.97,152.96,2
166,166.95,153.09,2
165,166.91,153.21,2
165,166.87,153.33,2
165,166.83,153.44,2
165,166.80,153.56,2
164,166.74,153.66,2
165,166.70,153.78,2
163,166.63,153.87,2
164,166.58,153.97,2
165,166.55,154.08,2
164,166.50,154.18,2
164,166.45,154.28,2
164,166.40,154.37,2
164,166.35,154.47,2
164,166.30,154.57,2
164,166.26,154.66,2
163,166.19,154.74,2
164,166.15,154.84,2
163,166.08,154.92,2
163,166.02,155.00,2
162,165.94,155.07,2
162,165.86,155.14,2
161,165.77,155.20,2
161,165.67,155.25,2
161,165.58,155.31,2
161,165.49,155.37,2
161,165.40,155.43,2
162,165.33,155.49,2
159,165.20,155.53,2
160,165.10,155.57,2
160,165.00,155.61,2
160,164.90,155.66,2
159,164.78,155.69,2
159,164.66,155.73,2
159,164.55,155.76,2
159,164.44,155.79,2
159,164.33,155.82,2
159,164.22,155.85,2
157,164.08,155.87,2
158,163.96,155.89,2
157,163.82,155.90,2
157,163.68,155.91,2
158,163.57,155.93,2
157,163.44,155.94,2
157,163.31,155.95,2
157,163.18,155.96,2
156,163.04,155.96,2
156,162.90,155.96,2
155,162.74,155.95,2
156,162.60,155.95,2
156,162.47,155.95,2
155,162.32,155.94,2
155,162.18,155.94,2
155,162.03,155.93,2
154,161.87,155.91,2
153,161.69,155.88,2
154,161.54,155.86,2
153,161.37,155.83,2
153,161.20,155.80,2
154,161.06,155.78,2
153,160.90,155.76,2
153,160.74,155.73,2
153,160.58,155.70,2
152,160.41,155.66,2
153,160.26,155.64,2
153,160.12,155.61,2
152,159.96,155.57,2
152,159.80,155.54,2
152,159.64,155.50,2
152,159.49,155.47,2
153,159.36,155.44,2
152,159.21,155.41,2
152,159.07,155.38,2
151,158.91,155.33,2
151,158.75,155.29,2
150,158.57,155.24,2
150,158.40,155.18,2
149,158.21,155.12,2
149,158.03,155.06,2
149,157.85,155.00,2
149,157.67,154.94,2
149,157.50,154.88,2
149,157.33,154.82,2
149,157.16,154.76,2
148,156.98,154.70,2
148,156.80,154.63,2
147,156.60,154.55,2
147,156.41,154.48,2
147,156.22,154.40,2
148,156.06,154.34,2
147,155.88,154.26,2
147,155.70,154.19,2
148,155.55,154.13,2
148,155.39,154.07,2
145,155.19,153.98,2
146,155.00,153.90,2
145,154.80,153.81,2
145,154.61,153.72,2
145,154.41,153.63,2
145,154.23,153.55,2
145,154.04,153.46,2
145,153.86,153.38,2
145,153.68,153.29,2
144,153.49,153.20,2
143,153.28,153.10,2
144,153.09,153.01,3
143,152.89,152.91,3
143,152.70,152.81,4
143,152.50,152.71,4
143,152.31,152.61,4
143,152.13,152.52,4
143,151.94,152.42,4
141,151.72,152.31,4
141,151.51,152.19,4
143,151.34,152.10,4
141,151.13,151.99,4
141,150.93,151.88,4
141,150.73,151.77,4
141,150.54,151.67,4
141,150.35,151.56,4
141,150.16,151.45,4
140,149.96,151.34,4
140,149.76,151.23,4
140,149.56,151.11,4
140,149.37,151.00,4
141,149.20,150.90,4
143,149.08,150.82,4
139,148.88,150.70,4
139,148.68,150.59,4
138,148.47,150.46,4
139,148.28,150.35,4
140,148.11,150.24,4
138,147.91,150.12,4
138,147.71,150.00,4
137,147.50,149.87,4
137,147.29,149.74,4
138,147.10,149.62,4
137,146.90,149.50,4
138,146.72,149.38,4
137,146.53,149.26,4
137,146.34,149.14,4
137,146.15,149.01,4
136,145.95,148.88,4
136,145.75,148.76,4
136,145.55,148.63,4
136,145.36,148.50,4
136,145.17,148.38,4
135,144.97,148.24,4
136,144.79,148.12,4
135,144.60,147.99,4
135,144.40,147.86,4
133,144.18,147.71,4
134,143.97,147.57,4
135,143.79,147.45,4
133,143.58,147.30,4
134,143.39,147.17,4
133,143.18,147.03,4
133,142.97,146.89,4
133,142.77,146.75,4
133,142.58,146.61,4
133,142.39,146.48,4
132,142.18,146.33,4
131,141.96,146.18,4
133,141.78,146.05,4
132,141.58,145.91,4
132,141.39,145.77,4
132,141.20,145.63,4
132,141.02,145.49,4
132,140.84,145.36,4
131,140.64,145.21,4
131,140.45,145.07,4
131,140.26,144.93,4
131,140.07,144.79,4
131,139.89,144.65,4
129,139.67,144.50,4
130,139.48,144.35,4
129,139.27,144.20,4
130,139.09,144.06,4
129,138.88,143.91,4
129,138.69,143.76,4
131,138.53,143.63,4
127,138.30,143.46,4
129,138.12,143.32,4
129,137.93,143.18,4
129,137.76,143.03,4
129,137.58,142.89,4
129,137.41,142.75,4
128,137.22,142.61,4
128,137.04,142.46,4
128,136.86,142.32,4
127,136.66,142.16,4
128,136.48,142.02,4
127,136.30,141.87,4
127,136.11,141.72,4
127,135.93,141.58,4
127,135.75,141.43,4
127,135.57,141.29,4
127,135.40,141.14,4
126,135.21,140.99,4
127,135.05,140.85,4
125,134.85,140.69,4
126,134.67,140.55,4
126,134.50,140.40,4
126,134.33,140.26,4
125,134.14,140.10,4
125,133.96,139.95,4
125,133.78,139.80,4
125,133.60,139.66,4
125,133.43,139.51,4
125,133.26,139.36,4
124,133.08,139.21,4
125,132.92,139.07,4
125,132.76,138.93,4
123,132.56,138.77,4
125,132.41,138.63,4
124,132.24,138.48,4
124,132.08,138.34,4
124,131.92,138.20,4
123,131.74,138.04,4
123,131.56,137.89,4
123,131.39,137.74,4
124,131.25,137.61,4
123,131.08,137.46,4
124,130.94,137.33,4
123,130.78,137.18,4
124,130.64,137.05,4
123,130.49,136.91,4
123,130.34,136.77,4
122,130.17,136.62,4
123,130.03,136.49,4
121,129.85,136.33,4
121,129.67,136.18,4
121,129.50,136.03,4
121,129.33,135.88,4
121,129.16,135.73,4
121,129.00,135.58,4
119,128.80,135.42,4
121,128.64,135.27,4
121,128.49,135.13,4
120,128.32,134.98,4
122,128.20,134.85,4
121,128.05,134.71,4
120,127.89,134.56,4
121,127.75,134.43,4
121,127.62,134.29,4
121,127.48,134.16,4
121,127.36,134.03,4
120,127.21,133.89,4
120,127.06,133.75,4
120,126.92,133.61,4
121,126.80,133.49,4
121,126.69,133.36,4
121,126.57,133.24,4
120,126.44,133.10,4
120,126.31,132.97,4
119,126.17,132.83,4
119,126.02,132.70,4
120,125.90,132.57,4
119,125.77,132.43,4
119,125.63,132.30,4
119,125.50,132.17,4
119,125.37,132.03,4
119,125.24,131.90,4
117,125.08,131.75,4
119,124.95,131.63,4
119,124.84,131.50,4
120,124.74,131.39,4
120,124.64,131.27,4
119,124.53,131.15,4
119,124.42,131.03,4
119,124.31,130.91,4
119,124.21,130.79,4
119,124.10,130.67,4
119,124.00,130.55,4
119,123.90,130.44,4
123,123.88,130.36,4
119,123.78,130.25,4
119,123.69,130.14,4
119,123.59,130.03,4
118,123.48,129.91,4
118,123.37,129.79,4
118,123.27,129.67,4
118,123.16,129.55,4
118,123.06,129.44,4
119,122.98,129.33,4
117,122.86,129.21,4
117,122.74,129.09,4
117,122.62,128.97,4
117,122.51,128.85,4
117,122.40,128.73,4
118,122.31,128.62,4
116,122.19,128.49,4
118,122.10,128.39,4
117,122.00,128.28,4
117,121.90,128.16,4
117,121.80,128.05,4
117,121.71,127.94,4
117,121.61,127.83,4
118,121.54,127.73,4
117,121.45,127.63,4
117,121.36,127.52,4
118,121.29,127.42,4
117,121.21,127.32,4
117,121.12,127.22,4
117,121.04,127.11,4
117,120.96,127.01,4
117,120.88,126.91,4
116,120.78,126.80,4
116,120.69,126.70,4
116,120.59,126.59,4
115,120.48,126.47,4
115,120.37,126.36,4
115,120.27,126.24,4
114,120.14,126.12,4
116,120.06,126.02,4
115,119.96,125.91,4
115,119.86,125.80,4
115,119.76,125.69,4
115,119.66,125.59,4
113,119.53,125.46,4
113,119.40,125.34,4
116,119.33,125.24,4
113,119.21,125.12,4
113,119.08,125.00,4
113,118.96,124.88,4
113,118.84,124.76,4
113,118.72,124.64,4
113,118.61,124.53,4
113,118.50,124.41,4
113,118.39,124.30,4
112,118.26,124.17,4
113,118.15,124.06,4
112,118.03,123.94,4
113,117.93,123.83,4
112,117.81,123.71,4
112,117.70,123.60,4
112,117.58,123.48,4
111,117.45,123.36,4
111,117.32,123.23,4
113,117.24,123.13,4
111,117.11,123.01,4
111,116.99,122.89,4
111,116.87,122.77,4
111,116.75,122.65,4
111,116.64,122.54,4
111,116.52,122.42,4
111,116.41,122.31,4
111,116.30,122.19,4
111,116.20,122.08,4
110,116.07,121.96,4
111,115.97,121.85,4
109,115.83,121.72,4
111,115.74,121.62,4
110,115.62,121.50,4
110,115.51,121.38,4
109,115.38,121.26,4
110,115.27,121.15,4
109,115.15,121.03,4
109,115.02,120.91,4
109,114.90,120.79,4
109,114.79,120.67,4
109,114.67,120.55,4
109,114.56,120.44,4
109,114.44,120.32,4
108,114.32,120.20,4
109,114.21,120.09,4
109,114.11,119.98,4
109,114.00,119.87,4
109,113.90,119.76,4
109,113.81,119.65,4
108,113.69,119.53,4
108,113.58,119.42,4
107,113.44,119.29,4
109,113.36,119.19,4
108,113.25,119.08,4
108,113.14,118.97,4
108,113.04,118.86,4
107,112.92,118.74,4
108,112.82,118.63,4
107,112.70,118.52,4
108,112.61,118.41,4
108,112.52,118.31,4
108,112.43,118.20,4
107,112.32,118.09,4
108,112.23,117.99,4
105,112.09,117.86,4
107,111.99,117.75,4
107,111.89,117.65,4
107,111.79,117.54,4
107,111.69,117.43,4
107,111.60,117.33,4
105,111.47,117.21,4
107,111.38,117.10,4
107,111.29,117.00,4
107,111.20,116.90,4
106,111.10,116.79,4
106,111.00,116.69,4
105,110.88,116.57,4
105,110.76,116.45,4
105,110.65,116.34,4
105,110.53,116.23,4
106,110.44,116.12,4
106,110.35,116.02,4
106,110.27,115.92,4
105,110.16,115.81,4
107,110.10,115.72,4
106,110.02,115.63,4
105,109.92,115.52,4
105,109.82,115.42,4
105,109.72,115.31,4
105,109.63,115.21,4
105,109.53,115.11,4
104,109.42,115.00,4
104,109.31,114.89,4
105,109.23,114.79,4
104,109.12,114.68,4
105,109.04,114.58,4
104,108.94,114.48,4
104,108.84,114.37,4
103,108.72,114.26,4
104,108.63,114.15,4
103,108.52,114.04,4
102,108.39,113.92,4
103,108.28,113.81,4
105,108.21,113.73,4
101,108.07,113.60,4
103,107.97,113.49,4
103,107.87,113.39,4
103,107.77,113.28,4
103,107.68,113.18,4
103,107.58,113.08,4
102,107.47,112.97,4
102,107.36,112.86,4
103,107.27,112.76,4
103,107.19,112.66,4
102,107.09,112.56,4
102,106.98,112.45,4
103,106.90,112.36,4
101,106.79,112.24,4
101,106.67,112.13,4
100,106.54,112.01,4
102,106.45,111.91,4
103,106.38,111.82,4
103,106.31,111.73,4
102,106.22,111.63,4
102,106.14,111.54,4
101,106.04,111.43,4
102,105.96,111.34,4
103,105.90,111.25,4
102,105.82,111.16,4
101,105.72,111.06,4
101,105.63,110.96,4
101,105.53,110.86,4
101,105.44,110.76,4
101,105.36,110.66,4
101,105.27,110.57,4
101,105.18,110.47,4
101,105.10,110.38,4
100,105.00,110.27,4
101,104.92,110.18,4
100,104.82,110.08,4
99,104.70,109.97,4
101,104.63,109.88,4
100,104.54,109.78,4
99,104.43,109.67,4
99,104.32,109.56,4
100,104.23,109.47,4
100,104.15,109.37,4
99,104.04,109.27,4
99,103.94,109.17,4
99,103.84,109.07,4
99,103.75,108.97,4
98,103.63,108.86,4
98,103.52,108.75,4
98,103.41,108.64,4
98,103.30,108.53,4
98,103.19,108.43,4
100,103.13,108.34,4
99,103.05,108.25,4
98,102.95,108.15,4
99,102.87,108.06,4
98,102.77,107.96,4
98,102.68,107.86,4
98,102.58,107.76,4
97,102.47,107.65,4
98,102.38,107.55,4
97,102.27,107.45,4
98,102.19,107.35,4
95,102.04,107.23,4
98,101.96,107.14,4
97,101.86,107.04,4
98,101.79,106.95,4
97,101.69,106.85,4
96,101.58,106.74,4
98,101.51,106.65,4
96,101.40,106.54,4
97,101.31,106.45,4
97,101.22,106.35,4
97,101.14,106.26,4
97,101.05,106.17,4
97,100.97,106.08,4
97,100.89,105.99,4
96,100.80,105.89,4
98,100.74,105.81,4
97,100.66,105.72,4
97,100.59,105.63,4
97,100.52,105.55,4
95,100.41,105.44,4
95,100.30,105.34,4
95,100.20,105.23,4
95,100.09,105.13,4
95,99.99,105.03,4
97,99.93,104.95,4
96,99.85,104.86,4
95,99.75,104.76,4
96,99.68,104.67,4
95,99.59,104.58,4
95,99.49,104.48,4
95,99.40,104.39,4
95,99.32,104.29,4
95,99.23,104.20,4
95,99.14,104.11,4
95,99.06,104.02,4
95,98.98,103.93,4
93,98.86,103.82,4
95,98.78,103.73,4
95,98.71,103.64,4
95,98.63,103.55,4
93,98.52,103.45,4
94,98.43,103.35,4
94,98.34,103.26,4
94,98.26,103.17,4
93,98.15,103.07,4
93,98.05,102.97,4
93,97.95,102.87,4
93,97.85,102.77,4
93,97.75,102.67,4
93,97.66,102.57,4
93,97.56,102.48,4
93,97.47,102.38,4
93,97.38,102.29,4
93,97.29,102.20,4
93,97.21,102.10,4
93,97.12,102.01,4
93,97.04,101.92,4
93,96.96,101.83,4
93,96.88,101.75,4
92,96.78,101.65,4
93,96.71,101.56,4
93,96.63,101.48,4
93,96.56,101.39,4
93,96.49,101.31,4
93,96.42,101.22,4
92,96.33,101.13,4
91,96.23,101.03,4
92,96.14,100.94,4
92,96.06,100.85,4
92,95.98,100.76,4
92,95.90,100.67,4
91,95.80,100.58,4
92,95.72,100.49,4
92,95.65,100.41,4
92,95.58,100.32,4
91,95.48,100.23,4
91,95.39,100.14,4
91,95.31,100.05,4
89,95.18,99.94,4
92,95.12,99.86,4
92,95.05,99.78,4
91,94.97,99.69,4
90,94.87,99.59,4
90,94.78,99.50,4
90,94.68,99.40,4
90,94.59,99.31,4
90,94.50,99.22,4
90,94.41,99.12,4
90,94.32,99.03,4
92,94.27,98.96,4
90,94.19,98.87,4
90,94.10,98.78,4
89,94.00,98.69,4
90,93.92,98.60,4
90,93.84,98.51,4
90,93.77,98.43,4
89,93.67,98.33,4
90,93.60,98.25,4
90,93.52,98.17,4
90,93.45,98.09,4
89,93.36,97.99,4
89,93.28,97.90,4
88,93.17,97.81,4
88,93.07,97.71,4
89,92.99,97.62,4
89,92.91,97.53,4
89,92.83,97.45,4
88,92.73,97.35,4
90,92.68,97.28,4
89,92.60,97.20,4
88,92.51,97.11,4
89,92.44,97.03,4
89,92.37,96.94,4
88,92.29,96.86,4
88,92.20,96.77,4
88,92.12,96.68,4
88,92.03,96.59,4
88,91.95,96.51,4
88,91.87,96.42,4
87,91.78,96.33,4
88,91.70,96.24,4
88,91.63,96.16,4
88,91.55,96.08,4
88,91.48,96.00,4
87,91.39,95.91,4
87,91.31,95.82,4
86,91.20,95.72,4
86,91.10,95.62,4
88,91.03,95.55,4
86,90.93,95.45,4
86,90.83,95.36,4
88,90.78,95.28,4
87,90.70,95.20,4
86,90.61,95.11,4
86,90.52,95.02,4
86,90.43,94.93,4
86,90.34,94.84,4
86,90.25,94.75,4
86,90.17,94.66,4
86,90.08,94.58,4
86,90.00,94.49,4
86,89.92,94.41,4
86,89.84,94.32,4
85,89.75,94.23,4
86,89.67,94.15,4
86,89.60,94.07,4
87,89.55,93.99,4
87,89.49,93.92,4
86,89.42,93.85,4
86,89.36,93.77,4
87,89.31,93.70,4
86,89.24,93.62,4
86,89.18,93.55,4
86,89.11,93.47,4
86,89.05,93.40,4
87,89.01,93.33,4
87,88.97,93.27,4
88,88.95,93.22,4
86,88.89,93.14,4
86,88.83,93.07,4
86,88.78,93.00,4
86,88.72,92.93,4
86,88.67,92.86,4
85,88.59,92.78,4
87,88.56,92.73,4
85,88.49,92.65,4
85,88.42,92.57,4
86,88.37,92.51,4
86,88.33,92.44,4
88,88.32,92.40,4
85,88.25,92.32,4
85,88.19,92.25,4
86,88.14,92.19,4
85,88.08,92.12,4
84,88.00,92.03,4
88,88.00,91.99,4
84,87.92,91.91,4
85,87.86,91.84,4
84,87.78,91.77,4
84,87.71,91.69,4
84,87.63,91.61,4
84,87.56,91.54,4
84,87.49,91.46,4
83,87.40,91.38,4
85,87.35,91.31,4
84,87.29,91.24,4
83,87.20,91.16,4
83,87.12,91.07,4
83,87.03,90.99,4
83,86.95,90.91,4
83,86.87,90.83,4
80,86.74,90.73,4
84,86.68,90.66,4
83,86.61,90.58,4
84,86.56,90.52,4
82,86.46,90.43,4
84,86.42,90.37,4
83,86.35,90.29,4
82,86.26,90.21,4
82,86.17,90.13,4
83,86.11,90.06,4
82,86.03,89.98,4
82,85.95,89.90,4
82,85.87,89.82,4
83,85.81,89.75,4
82,85.74,89.67,4
82,85.66,89.60,4
82,85.59,89.52,4
83,85.54,89.45,4
82,85.47,89.38,4
83,85.42,89.32,4
82,85.35,89.24,4
82,85.28,89.17,4
82,85.22,89.10,4
82,85.15,89.03,4
84,85.13,88.98,4
83,85.09,88.92,4
82,85.02,88.85,4
82,84.96,88.78,4
82,84.90,88.71,4
83,84.87,88.66,4
82,84.81,88.59,4
82,84.75,88.52,4
82,84.70,88.46,4
82,84.64,88.39,4
82,84.59,88.33,4
82,84.54,88.27,4
82,84.49,88.20,4
82,84.44,88.14,4
82,84.39,88.08,4
82,84.34,88.02,4
82,84.29,87.96,4
82,84.25,87.90,4
82,84.20,87.84,4
82,84.16,87.78,4
82,84.12,87.72,4
82,84.07,87.67,4
81,84.01,87.60,4
82,83.97,87.54,4
81,83.91,87.48,4
81,83.85,87.41,4
82,83.82,87.36,4
80,83.74,87.29,4
82,83.71,87.23,4
80,83.63,87.16,4
80,83.56,87.09,4
80,83.49,87.02,4
81,83.44,86.96,4
80,83.37,86.89,4
80,83.30,86.82,4
80,83.24,86.75,4
80,83.17,86.68,4
80,83.11,86.62,4
81,83.07,86.56,4
80,83.00,86.50,4
79,82.92,86.42,4
80,82.87,86.36,4
79,82.79,86.28,4
79,82.71,86.21,4
79,82.64,86.14,4
79,82.57,86.07,4
81,82.53,86.02,4
79,82.46,85.95,4
79,82.39,85.88,4
79,82.33,85.81,4
79,82.26,85.74,4
78,82.18,85.66,4
79,82.11,85.60,4
80,82.07,85.54,4
79,82.01,85.47,4
78,81.93,85.40,4
79,81.87,85.34,4
79,81.81,85.27,4
79,81.76,85.21,4
77,81.66,85.13,4
78,81.59,85.06,4
79,81.54,85.00,4
78,81.47,84.93,4
78,81.40,84.86,4
78,81.33,84.79,4
77,81.24,84.71,4
78,81.18,84.64,4
78,81.11,84.58,4
78,81.05,84.51,4
77,80.97,84.44,4
78,80.91,84.37,4
78,80.85,84.31,4
78,80.79,84.24,4
77,80.72,84.17,4
78,80.66,84.11,4
78,80.61,84.05,4
78,80.56,83.99,4
78,80.51,83.93,4
78,80.46,83.87,4
78,80.41,83.81,4
