Teste de Amostragem 10hz - posicionamento 1(EMG ao centro do bíceps (Vermelho A, Verde B) + Ref no pulso) - 19/10/2024 - teste2 - 5 contrações
long frequencia = 100;                 //frequência de aquisição do sinal, neste caso, 1000 sinais por segundo
float fator1 = 0.02, fator2 = 0.01;
float incerteza = 0.13;
float pico_basal = 130; // Mínimo para ser considerado um pico de contração
int filtro_horizontal=200000; //intervalo de 200ms valores não pode ter mais de 1 contração

Biceps_D,mediaMovel_1,mediaMovel_2,Contracao
134,2.68,1.34,0
134,5.31,2.67,0
135,7.90,3.99,0
133,10.40,5.28,0
132,12.83,6.55,0
133,15.24,7.81,0
133,17.59,9.06,0
134,19.92,10.31,0
131,22.14,11.52,0
133,24.36,12.73,0
131,26.49,13.92,0
132,28.60,15.10,0
131,30.65,16.26,0
131,32.66,17.40,0
131,34.62,18.54,0
130,36.53,19.66,0
130,38.40,20.76,0
130,40.23,21.85,0
129,42.01,22.92,0
129,43.75,23.98,0
129,45.45,25.03,0
128,47.10,26.06,0
128,48.72,27.08,0
128,50.31,28.09,0
128,51.86,29.09,0
127,53.36,30.07,0
128,54.86,31.05,0
126,56.28,32.00,0
127,57.69,32.95,0
126,59.06,33.88,0
126,60.40,34.80,0
125,61.69,35.70,0
125,62.96,36.60,0
127,64.24,37.50,0
123,65.41,38.35,0
124,66.59,39.21,0
124,67.73,40.06,0
123,68.84,40.89,0
123,69.92,41.71,0
122,70.96,42.51,0
123,72.00,43.32,0
122,73.00,44.10,0
124,74.02,44.90,0
123,75.00,45.68,0
122,75.94,46.45,0
124,76.90,47.22,0
123,77.83,47.98,0
123,78.73,48.73,0
123,79.62,49.47,0
124,80.50,50.22,0
123,81.35,50.95,0
123,82.19,51.67,0
125,83.04,52.40,0
123,83.84,53.11,0
125,84.66,53.83,0
123,85.43,54.52,0
124,86.20,55.21,0
124,86.96,55.90,0
124,87.70,56.58,0
123,88.41,57.24,0
124,89.12,57.91,0
123,89.80,58.56,0
123,90.46,59.21,0
125,91.15,59.87,0
123,91.79,60.50,0
124,92.43,61.13,0
124,93.06,61.76,0
126,93.72,62.40,0
125,94.35,63.03,0
126,94.98,63.66,0
126,95.60,64.28,0
127,96.23,64.91,0
127,96.84,65.53,0
127,97.45,66.14,0
128,98.06,66.76,0
129,98.68,67.39,0
130,99.30,68.01,0
132,99.96,68.65,0
132,100.60,69.29,0
136,101.31,69.95,0
135,101.98,70.60,0
134,102.62,71.24,0
137,103.31,71.89,0
140,104.04,72.58,0
141,104.78,73.26,0
146,105.61,73.99,0
148,106.45,74.73,0
149,107.30,75.47,0
151,108.18,76.23,0
150,109.01,76.96,0
150,109.83,77.69,0
153,110.70,78.45,0
154,111.56,79.20,0
156,112.45,79.97,0
157,113.34,80.74,0
158,114.24,81.51,0
164,115.23,82.34,0
167,116.27,83.18,0
168,117.30,84.03,0
170,118.36,84.89,0
171,119.41,85.75,0
174,120.50,86.64,0
179,121.67,87.56,0
183,122.90,88.51,0
183,124.10,89.46,0
187,125.36,90.43,0
186,126.57,91.39,0
190,127.84,92.38,0
190,129.08,93.35,0
190,130.30,94.32,0
193,131.55,95.31,0
194,132.80,96.29,0
195,134.05,97.28,0
195,135.27,98.26,0
193,136.42,99.20,0
192,137.53,100.13,0
192,138.62,101.05,0
190,139.65,101.94,0
190,140.66,102.82,0
187,141.58,103.66,0
186,142.47,104.49,0
185,143.32,105.29,0
182,144.10,106.06,0
183,144.87,106.83,0
181,145.60,107.57,0
180,146.28,108.29,0
179,146.94,109.00,0
177,147.54,109.68,0
178,148.15,110.36,0
176,148.71,111.02,0
175,149.23,111.66,0
173,149.71,112.27,0
172,150.15,112.87,0
171,150.57,113.45,0
170,150.96,114.02,0
169,151.32,114.57,0
168,151.65,115.10,0
168,151.98,115.63,0
166,152.26,116.13,0
167,152.56,116.64,0
164,152.78,117.12,0
165,153.03,117.60,0
163,153.23,118.05,0
162,153.40,118.49,0
162,153.58,118.92,0
160,153.70,119.33,0
159,153.81,119.73,0
158,153.89,120.11,0
157,153.96,120.48,0
156,154.00,120.84,0
157,154.06,121.20,0
156,154.10,121.55,0
156,154.13,121.89,0
154,154.13,122.21,0
154,154.13,122.53,0
153,154.11,122.84,0
151,154.04,123.12,0
152,154.00,123.41,0
151,153.94,123.68,0
149,153.84,123.94,0
148,153.73,124.18,0
149,153.63,124.42,0
148,153.52,124.66,0
147,153.39,124.88,0
146,153.24,125.09,0
147,153.12,125.31,0
145,152.95,125.51,0
144,152.78,125.70,0
145,152.62,125.89,0
146,152.49,126.09,0
143,152.30,126.26,0
142,152.09,126.42,0
141,151.87,126.56,0
141,151.65,126.71,0
142,151.46,126.86,0
139,151.21,126.98,0
138,150.95,127.09,0
140,150.73,127.22,0
137,150.45,127.32,0
137,150.18,127.41,0
138,149.94,127.52,0
138,149.70,127.63,0
137,149.45,127.72,0
136,149.18,127.80,0
136,148.91,127.88,0
135,148.64,127.96,0
136,148.38,128.04,0
134,148.10,128.10,0
135,147.83,128.16,0
133,147.54,128.21,0
135,147.29,128.28,0
131,146.96,128.31,0
131,146.64,128.33,0
133,146.37,128.38,0
131,146.06,128.41,0
132,145.78,128.44,0
129,145.44,128.45,0
129,145.12,128.45,0
129,144.79,128.46,0
129,144.48,128.47,0
128,144.15,128.46,0
128,143.83,128.46,0
127,143.49,128.44,0
126,143.14,128.42,0
127,142.82,128.40,0
126,142.48,128.38,0
127,142.17,128.37,0
126,141.85,128.34,0
126,141.53,128.32,0
127,141.24,128.30,0
127,140.95,128.29,0
127,140.68,128.28,0
127,140.40,128.27,0
127,140.13,128.25,0
126,139.85,128.23,0
127,139.59,128.22,0
126,139.32,128.20,0
124,139.02,128.15,0
124,138.72,128.11,0
123,138.40,128.06,0
125,138.13,128.03,0
123,137.83,127.98,0
124,137.55,127.94,0
124,137.28,127.90,0
123,137.00,127.85,0
123,136.72,127.80,0
122,136.42,127.75,0
124,136.17,127.71,0
123,135.91,127.66,0
124,135.67,127.62,0
122,135.40,127.57,0
124,135.17,127.53,0
123,134.93,127.49,0
123,134.69,127.44,0
124,134.48,127.41,0
123,134.25,127.36,0
124,134.04,127.33,0
123,133.82,127.29,0
122,133.58,127.23,0
123,133.37,127.19,0
122,133.14,127.14,0
122,132.92,127.09,0
122,132.70,127.04,0
123,132.51,127.00,0
123,132.32,126.96,0
125,132.17,126.94,0
122,131.97,126.89,0
122,131.77,126.84,0
121,131.55,126.78,0
122,131.36,126.73,0
121,131.16,126.68,0
122,130.97,126.63,0
121,130.77,126.57,0
122,130.60,126.53,0
122,130.43,126.48,0
121,130.24,126.43,0
121,130.05,126.37,0
120,129.85,126.31,0
120,129.65,126.25,0
121,129.48,126.19,0
124,129.37,126.17,0
123,129.24,126.14,0
122,129.10,126.10,0
124,129.00,126.08,0
124,128.90,126.06,0
125,128.82,126.05,0
125,128.74,126.04,0
127,128.71,126.05,0
127,128.67,126.06,0
132,128.74,126.11,0
138,128.93,126.23,0
141,129.17,126.38,0
139,129.36,126.51,0
140,129.58,126.64,0
141,129.81,126.79,0
144,130.09,126.96,0
148,130.45,127.17,0
146,130.76,127.36,0
149,131.12,127.57,0
150,131.50,127.80,0
153,131.93,128.05,0
152,132.33,128.29,0
151,132.71,128.52,0
152,133.09,128.75,0
153,133.49,128.99,0
155,133.92,129.25,0
157,134.38,129.53,0
159,134.87,129.83,0
158,135.34,130.11,0
159,135.81,130.40,0
159,136.27,130.68,0
158,136.71,130.96,0
157,137.11,131.22,0
157,137.51,131.47,0
157,137.90,131.73,0
156,138.26,131.97,0
155,138.60,132.20,0
156,138.95,132.44,0
153,139.23,132.65,0
151,139.46,132.83,0
151,139.69,133.01,0
150,139.90,133.18,0
151,140.12,133.36,0
148,140.28,133.51,0
149,140.45,133.66,0
147,140.58,133.79,0
148,140.73,133.94,0
146,140.84,134.06,0
146,140.94,134.18,0
144,141.00,134.27,0
144,141.06,134.37,0
143,141.10,134.46,0
143,141.14,134.54,0
141,141.14,134.61,0
140,141.11,134.66,0
140,141.09,134.71,0
139,141.05,134.76,0
140,141.03,134.81,0
137,140.95,134.83,0
135,140.83,134.83,0
136,140.73,134.85,0
137,140.66,134.87,0
135,140.54,134.87,0
134,140.41,134.86,0
134,140.29,134.85,0
131,140.10,134.81,0
133,139.96,134.79,0
131,139.78,134.76,0
130,139.58,134.71,0
129,139.37,134.65,0
129,139.16,134.60,0
130,138.98,134.55,0
128,138.76,134.48,0
126,138.51,134.40,0
127,138.28,134.32,0
126,138.03,134.24,0
126,137.79,134.16,0
125,137.53,134.07,0
125,137.28,133.98,0
124,137.02,133.88,0
124,136.76,133.78,0
123,136.48,133.67,0
124,136.23,133.57,0
122,135.95,133.46,0
121,135.65,133.33,0
122,135.38,133.22,0
121,135.09,133.10,0
120,134.79,132.97,0
121,134.51,132.85,0
119,134.20,132.71,0
120,133.92,132.58,0
119,133.62,132.45,0
119,133.33,132.31,0
118,133.02,132.17,0
119,132.74,132.04,0
116,132.40,131.88,0
118,132.12,131.74,0
116,131.79,131.58,0
118,131.52,131.44,1
116,131.21,131.29,2
114,130.86,131.12,2
115,130.55,130.96,2
116,130.26,130.81,2
114,129.93,130.64,2
114,129.61,130.47,2
114,129.30,130.31,2
114,128.99,130.14,2
113,128.67,129.97,2
114,128.38,129.81,2
115,128.11,129.66,2
113,127.81,129.50,2
113,127.51,129.33,2
112,127.20,129.16,2
114,126.94,129.01,2
112,126.64,128.84,2
112,126.35,128.67,2
113,126.08,128.51,2
115,125.86,128.38,2
116,125.66,128.25,2
115,125.45,128.12,2
116,125.26,128.00,2
117,125.09,127.89,2
119,124.97,127.80,2
119,124.85,127.71,2
119,124.74,127.63,2
121,124.66,127.56,2
119,124.55,127.47,2
120,124.46,127.40,2
121,124.39,127.34,2
122,124.34,127.28,2
122,124.29,127.23,2
122,124.25,127.18,2
122,124.20,127.13,2
122,124.16,127.07,2
123,124.14,127.03,2
122,124.09,126.98,2
122,124.05,126.93,2
123,124.03,126.89,2
124,124.03,126.87,2
123,124.01,126.83,2
122,123.97,126.78,2
123,123.95,126.74,2
122,123.91,126.69,2
124,123.91,126.67,2
122,123.87,126.62,2
122,123.84,126.57,2
122,123.80,126.53,2
124,123.80,126.50,2
123,123.79,126.47,2
125,123.81,126.45,2
123,123.80,126.42,2
122,123.76,126.37,2
123,123.74,126.34,2
124,123.75,126.32,2
123,123.73,126.28,2
122,123.70,126.24,2
121,123.65,126.19,2
122,123.61,126.15,2
121,123.56,126.10,2
122,123.53,126.05,2
124,123.54,126.03,2
123,123.53,126.00,2
126,123.58,126.00,2
125,123.61,125.99,2
125,123.63,125.98,2
128,123.72,126.00,2
129,123.83,126.03,2
130,123.95,126.07,2
132,124.11,126.13,2
133,124.29,126.20,2
135,124.50,126.29,2
134,124.69,126.37,2
134,124.88,126.44,2
134,125.06,126.52,2
134,125.24,126.59,2
135,125.44,126.68,2
135,125.63,126.76,2
137,125.85,126.86,2
139,126.12,126.98,2
140,126.40,127.11,2
141,126.69,127.25,2
140,126.95,127.38,2
142,127.25,127.53,2
145,127.61,127.70,2
151,128.08,127.93,2
155,128.62,128.20,2
162,129.28,128.54,2
167,130.04,128.93,2
166,130.76,129.30,2
165,131.44,129.66,2
166,132.13,130.02,2
170,132.89,130.42,2
171,133.65,130.82,2
173,134.44,131.25,2
176,135.27,131.69,2
176,136.09,132.14,2
176,136.88,132.58,2
174,137.63,132.99,2
173,138.33,133.39,2
173,139.03,133.79,2
173,139.71,134.18,2
170,140.31,134.54,2
169,140.89,134.88,2
168,141.43,135.21,2
169,141.98,135.55,2
166,142.46,135.85,2
164,142.89,136.14,2
165,143.33,136.42,2
165,143.77,136.71,2
164,144.17,136.98,2
163,144.55,137.24,2
162,144.90,137.49,2
161,145.22,137.73,2
159,145.49,137.94,2
160,145.78,138.16,2
157,146.01,138.35,2
156,146.21,138.52,2
157,146.42,138.71,2
156,146.62,138.88,2
156,146.80,139.05,2
154,146.95,139.20,2
152,147.05,139.33,2
153,147.17,139.47,2
152,147.26,139.59,2
152,147.36,139.72,2
150,147.41,139.82,2
148,147.42,139.90,2
150,147.48,140.00,2
147,147.47,140.07,2
146,147.44,140.13,2
145,147.39,140.18,2
144,147.32,140.22,2
144,147.25,140.26,2
143,147.17,140.28,2
144,147.11,140.32,2
142,147.00,140.34,2
140,146.86,140.33,2
141,146.75,140.34,2
139,146.59,140.33,2
141,146.48,140.33,2
139,146.33,140.32,2
138,146.16,140.30,2
137,145.98,140.26,2
138,145.82,140.24,2
137,145.64,140.21,2
136,145.45,140.17,2
136,145.26,140.13,2
134,145.04,140.06,2
135,144.84,140.01,2
134,144.62,139.95,2
134,144.41,139.89,2
133,144.18,139.83,2
133,143.95,139.76,2
131,143.70,139.67,2
134,143.50,139.61,2
132,143.27,139.54,2
131,143.03,139.45,2
132,142.81,139.38,2
131,142.57,139.29,2
132,142.36,139.22,2
129,142.09,139.12,2
129,141.83,139.02,2
128,141.55,138.91,2
128,141.28,138.80,2
127,141.00,138.68,2
127,140.72,138.56,2
126,140.42,138.44,2
126,140.13,138.31,2
124,139.81,138.17,2
125,139.51,138.04,2
125,139.22,137.91,2
126,138.96,137.79,2
125,138.68,137.66,2
123,138.37,137.51,2
124,138.08,137.38,2
123,137.78,137.24,2
125,137.52,137.11,2
123,137.23,136.97,2
123,136.95,136.83,3
123,136.67,136.69,4
121,136.36,136.54,4
124,136.11,136.41,4
122,135.83,136.27,4
121,135.53,136.11,4
122,135.26,135.97,4
121,134.97,135.82,4
120,134.67,135.67,4
121,134.40,135.52,4
119,134.09,135.35,4
119,133.79,135.19,4
118,133.47,135.02,4
119,133.19,134.86,4
122,132.96,134.73,4
121,132.72,134.59,4
120,132.47,134.45,4
120,132.22,134.30,4
121,131.99,134.17,4
121,131.77,134.04,4
122,131.58,133.92,4
121,131.37,133.79,4
120,131.14,133.65,4
120,130.92,133.51,4
121,130.72,133.39,4
119,130.48,133.24,4
121,130.29,133.12,4
120,130.09,132.99,4
121,129.91,132.87,4
119,129.69,132.73,4
119,129.48,132.59,4
119,129.27,132.46,4
121,129.10,132.34,4
119,128.90,132.21,4
119,128.70,132.08,4
118,128.49,131.94,4
118,128.28,131.80,4
119,128.09,131.67,4
119,127.91,131.54,4
121,127.77,131.44,4
120,127.62,131.32,4
120,127.46,131.21,4
121,127.33,131.11,4
119,127.17,130.99,4
120,127.02,130.88,4
119,126.86,130.76,4
121,126.75,130.66,4
120,126.61,130.55,4
124,126.56,130.49,4
122,126.47,130.40,4
122,126.38,130.32,4
121,126.27,130.23,4
123,126.21,130.15,4
125,126.18,130.10,4
124,126.14,130.04,4
124,126.10,129.98,4
123,126.03,129.91,4
125,126.01,129.86,4
125,125.99,129.81,4
124,125.95,129.76,4
125,125.93,129.71,4
126,125.93,129.67,4
128,125.98,129.65,4
128,126.02,129.64,4
128,126.06,129.62,4
128,126.10,129.61,4
129,126.15,129.60,4
129,126.21,129.59,4
132,126.33,129.62,4
133,126.46,129.65,4
134,126.61,129.69,4
137,126.82,129.77,4
141,127.10,129.88,4
143,127.42,130.01,4
142,127.71,130.13,4
141,127.98,130.24,4
142,128.26,130.36,4
142,128.53,130.47,4
145,128.86,130.62,4
151,129.30,130.82,4
151,129.74,131.02,4
151,130.16,131.22,4
152,130.60,131.43,4
155,131.09,131.67,4
155,131.57,131.90,4
157,132.08,132.15,5
157,132.57,132.40,5
156,133.04,132.64,5
157,133.52,132.88,5
155,133.95,133.10,5
156,134.39,133.33,5
155,134.80,133.55,5
156,135.23,133.77,5
155,135.62,133.98,5
154,135.99,134.18,5
153,136.33,134.37,5
152,136.64,134.55,5
151,136.93,134.71,5
150,137.19,134.87,5
152,137.49,135.04,5
148,137.70,135.17,5
149,137.93,135.31,5
147,138.11,135.42,5
147,138.28,135.54,5
145,138.42,135.63,5
144,138.53,135.72,5
144,138.64,135.80,5
142,138.71,135.86,5
143,138.79,135.93,5
142,138.86,135.99,5
141,138.90,136.04,5
140,138.92,136.08,5
140,138.94,136.12,5
139,138.94,136.15,5
140,138.97,136.19,5
137,138.93,136.20,5
135,138.85,136.19,5
136,138.79,136.18,5
136,138.74,136.18,5
135,138.66,136.17,5
134,138.57,136.15,5
133,138.46,136.12,5
133,138.35,136.09,5
133,138.24,136.05,5
131,138.10,136.00,5
132,137.97,135.96,5
130,137.81,135.90,5
129,137.64,135.84,5
130,137.48,135.78,5
130,137.34,135.72,5
127,137.13,135.63,5
126,136.91,135.54,5
127,136.71,135.45,5
126,136.49,135.36,5
125,136.26,135.25,5
127,136.08,135.17,5
127,135.90,135.09,5
126,135.70,135.00,5
126,135.51,134.91,5
125,135.29,134.81,5
124,135.07,134.70,5
125,134.87,134.60,5
123,134.63,134.49,5
124,134.42,134.38,6
124,134.21,134.28,7
124,134.01,134.18,7
122,133.77,134.05,7
122,133.53,133.93,7
121,133.28,133.80,7
121,133.03,133.68,7
122,132.81,133.56,7
120,132.56,133.42,7
119,132.29,133.28,7
120,132.04,133.15,7
119,131.78,133.01,7
120,131.54,132.88,7
118,131.27,132.73,7
118,131.01,132.58,7
118,130.75,132.43,7
117,130.47,132.28,7
115,130.16,132.11,7
117,129.90,131.96,7
115,129.60,131.79,7
116,129.33,131.63,7
116,129.06,131.47,7
117,128.82,131.33,7
117,128.59,131.18,7
116,128.33,131.03,7
116,128.09,130.88,7
116,127.84,130.73,7
115,127.59,130.58,7
114,127.32,130.41,7
115,127.07,130.26,7
114,126.81,130.09,7
113,126.53,129.92,7
114,126.28,129.76,7
116,126.08,129.63,7
115,125.85,129.48,7
118,125.70,129.36,7
119,125.56,129.26,7
121,125.47,129.18,7
120,125.36,129.09,7
118,125.22,128.98,7
120,125.11,128.89,7
120,125.01,128.80,7
121,124.93,128.72,7
122,124.87,128.65,7
121,124.79,128.57,7
121,124.72,128.50,7
123,124.68,128.44,7
123,124.65,128.39,7
123,124.62,128.34,7
122,124.56,128.27,7
122,124.51,128.21,7
122,124.46,128.15,7
124,124.45,128.11,7
122,124.40,128.05,7
122,124.36,127.98,7
121,124.29,127.91,7
123,124.26,127.87,7
123,124.24,127.82,7
123,124.21,127.77,7
122,124.17,127.71,7
122,124.13,127.65,7
122,124.08,127.60,7
121,124.02,127.53,7
122,123.98,127.48,7
122,123.94,127.42,7
121,123.88,127.36,7
120,123.80,127.28,7
119,123.71,127.20,7
118,123.59,127.11,7
119,123.50,127.03,7
118,123.39,126.94,7
119,123.30,126.86,7
118,123.20,126.77,7
119,123.11,126.69,7
117,122.99,126.59,7
116,122.85,126.49,7
117,122.74,126.39,7
116,122.60,126.29,7
118,122.51,126.21,7
116,122.38,126.11,7
117,122.27,126.01,7
118,122.19,125.93,7
120,122.14,125.87,7
119,122.08,125.81,7
121,122.06,125.76,7
123,122.08,125.73,7
122,122.07,125.69,7
123,122.09,125.67,7
127,122.19,125.68,7
124,122.23,125.66,7
125,122.28,125.66,7
127,122.38,125.67,7
128,122.49,125.69,7
129,122.62,125.73,7
130,122.77,125.77,7
133,122.97,125.84,7
132,123.15,125.90,7
133,123.35,125.97,7
134,123.56,126.05,7
137,123.83,126.16,7
135,124.05,126.25,7
136,124.29,126.35,7
137,124.55,126.46,7
136,124.78,126.55,7
138,125.04,126.67,7
135,125.24,126.75,7
141,125.56,126.89,7
143,125.90,127.05,7
144,126.27,127.22,7
143,126.60,127.38,7
142,126.91,127.53,7
141,127.19,127.66,7
139,127.43,127.77,7
140,127.68,127.90,7
139,127.91,128.01,7
138,128.11,128.11,7
137,128.28,128.20,7
136,128.44,128.27,7
137,128.61,128.36,7
135,128.74,128.43,7
136,128.88,128.50,7
134,128.99,128.56,7
134,129.09,128.61,7
133,129.16,128.66,7
133,129.24,128.70,7
131,129.28,128.72,7
132,129.33,128.76,7
132,129.38,128.79,7
131,129.42,128.81,7
132,129.47,128.84,7
130,129.48,128.85,7
129,129.47,128.86,7
129,129.46,128.86,7
130,129.47,128.87,7
129,129.46,128.87,7
128,129.43,128.86,7
128,129.40,128.85,7
128,129.38,128.84,7
128,129.35,128.84,7
130,129.36,128.85,7
128,129.33,128.84,7
128,129.31,128.83,7
128,129.28,128.82,7
128,129.26,128.81,7
128,129.23,128.81,7
128,129.21,128.80,7
127,129.16,128.78,7
127,129.12,128.76,7
128,129.10,128.75,7
130,129.11,128.77,7
128,129.09,128.76,7
128,129.07,128.75,7
129,129.07,128.75,7
129,129.07,128.76,7
130,129.09,128.77,7
129,129.08,128.77,7
131,129.12,128.79,7
131,129.16,128.82,7
132,129.22,128.85,7
135,129.33,128.91,7
137,129.49,128.99,7
136,129.62,129.06,7
137,129.76,129.14,7
139,129.95,129.24,7
139,130.13,129.34,7
141,130.35,129.45,7
141,130.56,129.57,7
142,130.79,129.69,7
143,131.03,129.83,7
146,131.33,129.99,7
146,131.63,130.15,7
146,131.91,130.31,7
148,132.23,130.48,7
147,132.53,130.65,7
151,132.90,130.85,7
150,133.24,131.04,7
150,133.58,131.23,7
150,133.91,131.42,7
152,134.27,131.63,7
153,134.64,131.84,7
154,135.03,132.06,7
155,135.43,132.29,7
156,135.84,132.53,7
156,136.24,132.76,7
158,136.68,133.01,7
159,137.12,133.27,7
160,137.58,133.54,7
161,138.05,133.82,7
161,138.51,134.09,7
163,139.00,134.38,7
163,139.48,134.66,7
165,139.99,134.97,7
163,140.45,135.25,7
166,140.96,135.55,7
167,141.48,135.87,7
170,142.05,136.21,7
169,142.59,136.54,7
170,143.14,136.87,7
171,143.70,137.21,7
172,144.26,137.56,7
172,144.82,137.91,7
172,145.36,138.25,7
173,145.91,138.59,7
172,146.44,138.93,7
173,146.97,139.27,7
173,147.49,139.61,7
174,148.02,139.95,7
173,148.52,140.28,7
172,148.99,140.60,7
173,149.47,140.92,7
174,149.96,141.25,7
175,150.46,141.59,7
173,150.91,141.90,7
174,151.37,142.23,7
173,151.80,142.53,7
175,152.27,142.86,7
173,152.68,143.16,7
172,153.07,143.45,7
173,153.47,143.74,7
174,153.88,144.05,7
175,154.30,144.36,7
173,154.67,144.64,7
172,155.02,144.92,7
173,155.38,145.20,7
174,155.75,145.48,7
173,156.10,145.76,7
173,156.44,146.03,7
174,156.79,146.31,7
173,157.11,146.58,7
174,157.45,146.85,7
174,157.78,147.12,7
173,158.08,147.38,7
173,158.38,147.64,7
171,158.64,147.87,7
172,158.90,148.11,7
173,159.18,148.36,7
172,159.44,148.60,7
173,159.71,148.84,7
171,159.94,149.07,7
172,160.18,149.29,7
171,160.40,149.51,7
171,160.61,149.73,7
172,160.84,149.95,7
170,161.02,150.15,7
171,161.22,150.36,7
170,161.39,150.55,7
169,161.55,150.74,7
169,161.70,150.92,7
169,161.84,151.10,7
170,162.00,151.29,7
169,162.14,151.47,7
169,162.28,151.64,7
169,162.42,151.82,7
170,162.57,152.00,7
170,162.72,152.18,7
170,162.86,152.36,7
171,163.02,152.54,7
169,163.14,152.71,7
169,163.26,152.87,7
169,163.38,153.03,7
168,163.47,153.18,7
168,163.56,153.33,7
169,163.67,153.49,7
168,163.75,153.63,7
167,163.82,153.77,7
168,163.90,153.91,7
168,163.99,154.05,7
169,164.09,154.20,7
167,164.14,154.33,7
167,164.20,154.45,7
167,164.26,154.58,7
168,164.33,154.71,7
167,164.39,154.84,7
166,164.42,154.95,7
167,164.47,155.07,7
166,164.50,155.18,7
166,164.53,155.29,7
167,164.58,155.40,7
167,164.63,155.52,7
166,164.66,155.62,7
165,164.66,155.72,7
166,164.69,155.82,7
168,164.75,155.94,7
166,164.78,156.04,7
166,164.80,156.14,7
165,164.81,156.23,7
165,164.81,156.32,7
167,164.86,156.43,7
165,164.86,156.51,7
165,164.86,156.60,7
165,164.86,156.68,7
165,164.87,156.76,7
164,164.85,156.84,7
163,164.81,156.90,7
164,164.80,156.97,7
163,164.76,157.03,7
164,164.75,157.10,7
164,164.73,157.17,7
164,164.72,157.24,7
163,164.68,157.29,7
164,164.67,157.36,7
163,164.63,157.42,7
163,164.60,157.47,7
165,164.61,157.55,7
163,164.58,157.60,7
164,164.57,157.67,7
163,164.53,157.72,7
163,164.50,157.77,7
165,164.51,157.84,7
162,164.46,157.89,7
164,164.45,157.95,7
162,164.41,157.99,7
163,164.38,158.04,7
163,164.35,158.09,7
164,164.34,158.15,7
163,164.32,158.20,7
163,164.29,158.24,7
162,164.24,158.28,7
164,164.24,158.34,7
163,164.21,158.38,7
162,164.17,158.42,7
162,164.13,158.46,7
162,164.08,158.49,7
163,164.06,158.54,7
162,164.02,158.57,7
163,164.00,158.62,7
162,163.96,158.65,7
162,163.92,158.68,7
161,163.86,158.71,7
162,163.83,158.74,7
161,163.77,158.76,7
162,163.73,158.79,7
163,163.72,158.84,7
162,163.68,158.87,7
162,163.65,158.90,7
162,163.62,158.93,7
162,163.59,158.96,7
161,163.53,158.98,7
162,163.50,159.01,7
163,163.49,159.05,7
161,163.44,159.07,7
161,163.39,159.09,7
161,163.35,159.11,7
160,163.28,159.12,7
161,163.23,159.14,7
161,163.19,159.16,7
161,163.15,159.17,7
161,163.10,159.19,7
163,163.10,159.23,7
161,163.06,159.25,7
160,163.00,159.26,7
161,162.96,159.27,7
162,162.94,159.30,7
164,162.96,159.35,7
163,162.96,159.38,7
165,163.00,159.44,7
165,163.04,159.50,7
166,163.10,159.56,7
167,163.18,159.64,7
168,163.27,159.72,7
168,163.37,159.80,7
168,163.46,159.88,7
169,163.57,159.97,7
172,163.74,160.10,7
171,163.89,160.20,7
172,164.05,160.32,7
173,164.23,160.45,7
173,164.40,160.57,7
174,164.60,160.71,7
174,164.78,160.84,7
175,164.99,160.98,7
175,165.19,161.12,7
176,165.40,161.27,7
177,165.64,161.43,7
178,165.88,161.60,7
178,166.13,161.76,7
178,166.36,161.92,7
178,166.60,162.08,7
179,166.84,162.25,7
180,167.11,162.43,7
181,167.38,162.61,7
179,167.62,162.78,7
181,167.88,162.96,7
181,168.15,163.14,7
182,168.42,163.33,7