Teste de Amostragem 1000hz - posicionamento 1(EMG ao centro do bíceps (Vermelho A, Verde B) + Ref no pulso) - 19/10/2024 - teste1 - 5 contrações (sem filtro RC)
long frequencia = 1000;                 //frequência de aquisição do sinal, neste caso, 1000 sinais por segundo
float fator1 = 0.02, fator2 = 0.01;
float incerteza = 0.13;
float pico_basal = 130; // Mínimo para ser considerado um pico de contração
int filtro_horizontal=200000; //intervalo de 200ms valores não pode ter mais de 1 contração

Biceps_D,mediaMovel_1,mediaMovel_2,Contracao
45,0.90,0.45,0
71,2.30,1.16,0
100,4.26,2.14,0
85,5.87,2.97,0
42,6.59,3.36,0
82,8.10,4.15,0
22,8.38,4.33,0
48,9.17,4.76,0
44,9.87,5.16,0
76,11.19,5.87,0
201,14.99,7.82,0
25,15.19,7.99,0
56,16.00,8.47,0
82,17.32,9.20,0
73,18.44,9.84,0
17,18.41,9.91,0
79,19.62,10.60,0
24,19.71,10.74,0
58,20.47,11.21,0
34,20.74,11.44,0
180,23.93,13.12,0
43,24.31,13.42,0
23,24.28,13.52,0
42,24.64,13.80,0
36,24.87,14.03,0
80,25.97,14.69,0
85,27.15,15.39,0
44,27.49,15.67,0
20,27.34,15.72,0
82,28.43,16.38,0
31,28.48,16.53,0
74,29.39,17.10,0
64,30.08,17.57,0
112,31.72,18.51,0
56,32.21,18.89,0
95,33.46,19.65,0
92,34.63,20.37,0
82,35.58,20.99,0
24,35.35,21.02,0
23,35.10,21.04,0
39,35.18,21.22,0
97,36.42,21.98,0
211,39.91,23.87,0
35,39.81,23.98,0
93,40.87,24.67,0
60,41.26,25.02,0
68,41.79,25.45,0
36,41.68,25.56,0
66,42.16,25.96,0
37,42.06,26.07,0
25,41.72,26.06,0
159,44.06,27.39,0
33,43.84,27.45,0
25,43.47,27.42,0
24,43.08,27.39,0
109,44.39,28.21,0
25,44.01,28.17,0
84,44.81,28.73,0
100,45.91,29.44,0
58,46.15,29.73,0
103,47.29,30.46,0
19,46.72,30.35,0
33,46.45,30.37,0
47,46.46,30.54,0
57,46.67,30.81,0
90,47.54,31.40,0
30,47.19,31.38,0
72,47.68,31.79,0
108,48.89,32.55,0
43,48.77,32.66,0
69,49.18,33.02,0
44,49.07,33.13,0
20,48.49,33.00,0
32,48.16,32.99,0
152,50.24,34.18,0
64,50.51,34.48,0
45,50.40,34.58,0
38,50.16,34.62,0
28,49.71,34.55,0
126,51.24,35.46,0
91,52.03,36.02,0
35,51.69,36.01,0
25,51.16,35.90,0
62,51.38,36.16,0
16,50.67,35.96,0
101,51.67,36.61,0
70,52.04,36.94,0
70,52.40,37.27,0
89,53.13,37.79,0
82,53.71,38.23,0
108,54.80,38.93,0
74,55.18,39.28,0
149,57.06,40.38,0
31,56.53,40.28,0
31,56.02,40.19,0
46,55.82,40.25,0
181,58.33,41.66,0
31,57.78,41.55,0
37,57.36,41.51,0
80,57.82,41.89,0
106,58.78,42.53,0
76,59.13,42.87,0
69,59.32,43.13,0
39,58.92,43.09,0
36,58.46,43.02,0
152,60.33,44.10,0
36,59.84,44.02,0
66,59.97,44.24,0
28,59.33,44.08,0
26,58.66,43.90,0
36,58.21,43.82,0
44,57.92,43.82,0
69,58.14,44.07,0
44,57.86,44.07,0
90,58.50,44.53,0
36,58.05,44.45,0
59,58.07,44.59,0
38,57.67,44.53,0
37,57.26,44.45,0
84,57.79,44.85,0
41,57.46,44.81,0
68,57.67,45.04,0
60,57.71,45.19,0
56,57.68,45.30,0
67,57.87,45.52,0
25,57.21,45.31,0
31,56.69,45.17,0
28,56.11,45.00,0
171,58.41,46.26,0
36,57.96,46.15,0
12,57.04,45.81,0
118,58.26,46.53,0
41,57.92,46.48,0
104,58.84,47.05,0
70,59.06,47.28,0
40,58.68,47.21,0
20,57.91,46.94,0
95,58.65,47.42,0
39,58.25,47.33,0
52,58.13,47.38,0
54,58.05,47.45,0
95,58.79,47.92,0
72,59.05,48.16,0
90,59.67,48.58,0
74,59.96,48.84,0
75,60.26,49.10,0
36,59.77,48.97,0
20,58.98,48.68,0
22,58.24,48.41,0
61,58.29,48.54,0
192,60.97,49.97,0
17,60.09,49.64,0
51,59.91,49.65,0
64,59.99,49.80,0
56,59.91,49.86,0
64,59.99,50.00,0
100,60.79,50.50,0
26,60.09,50.26,0
36,59.61,50.11,0
75,59.92,50.36,0
21,59.14,50.07,0
36,58.68,49.93,0
25,58.00,49.68,0
22,57.28,49.40,0
26,56.66,49.17,0
66,56.85,49.34,0
107,57.85,49.91,0
57,57.83,49.98,0
64,57.96,50.12,0
111,59.02,50.73,0
29,58.42,50.52,0
73,58.71,50.74,0
84,59.21,51.07,0
100,60.03,51.56,0
114,61.11,52.19,0
63,61.15,52.30,0
75,61.42,52.52,0
41,61.01,52.41,0
68,61.15,52.56,0
19,60.31,52.23,0
34,59.79,52.05,0
16,58.91,51.68,0
164,61.01,52.81,0
25,60.29,52.53,0
22,59.53,52.22,0
54,59.41,52.24,0
28,58.79,52.00,0
105,59.71,52.53,0
91,60.34,52.91,0
50,60.13,52.89,0
38,59.69,52.74,0
70,59.89,52.91,0
43,59.56,52.81,0
85,60.06,53.13,0
71,60.28,53.31,0
102,61.12,53.80,0
126,62.42,54.52,0
103,63.23,55.00,0
129,64.54,55.74,0
41,64.07,55.60,0
62,64.03,55.66,0
15,63.05,55.25,0
54,62.87,55.24,0
44,62.49,55.13,0
161,64.46,56.19,0
33,63.83,55.96,0
96,64.48,56.36,0
86,64.91,56.65,0
45,64.51,56.54,0
88,64.98,56.85,0
40,64.48,56.68,0
28,63.75,56.40,0
36,63.19,56.19,0
141,64.75,57.04,0
58,64.61,57.05,0
28,63.88,56.76,0
22,63.04,56.41,0
69,63.16,56.54,0
113,64.16,57.10,0
68,64.24,57.21,0
139,65.73,58.03,0
124,66.90,58.69,0
64,66.84,58.74,0
36,66.22,58.51,0
42,65.74,58.35,0
110,66.62,58.87,0
171,68.71,59.99,0
52,68.38,59.91,0
49,67.99,59.80,0
78,68.19,59.98,0
97,68.77,60.35,0
42,68.23,60.17,0
36,67.59,59.93,0
13,66.49,59.46,0
24,65.64,59.10,0
162,67.57,60.13,0
56,67.34,60.09,0
46,66.91,59.95,0
35,66.28,59.70,0
114,67.23,60.24,0
43,66.75,60.07,0
92,67.25,60.39,0
42,66.75,60.20,0
78,66.97,60.38,0
75,67.13,60.53,0
36,66.51,60.28,0
80,66.78,60.48,0
54,66.52,60.42,0
60,66.39,60.41,0
42,65.90,60.23,0
164,67.87,61.27,0
144,69.39,62.09,0
125,70.50,62.72,0
36,69.81,62.45,0
30,69.01,62.13,0
165,70.93,63.16,0
69,70.90,63.22,0
37,70.22,62.95,0
133,71.47,63.66,0
13,70.30,63.15,0
78,70.46,63.30,0
191,72.87,64.57,0
45,72.31,64.38,0
86,72.59,64.59,0
117,73.47,65.12,0
99,73.98,65.46,0
28,73.06,65.08,0
125,74.10,65.68,0
164,75.90,66.67,0
74,75.86,66.74,0
62,75.59,66.69,0
79,75.65,66.81,0
248,79.10,68.63,0
172,80.96,69.66,0
109,81.52,70.05,0
48,80.85,69.83,0
113,81.49,70.26,0
83,81.52,70.39,0
158,83.05,71.27,0
156,84.51,72.12,0
252,87.86,73.91,0
127,88.64,74.45,0
87,88.61,74.57,0
79,88.42,74.61,0
32,87.29,74.19,0
147,88.48,74.92,0
40,87.51,74.57,0
38,86.52,74.20,0
47,85.73,73.93,0
17,84.36,73.36,0
52,83.71,73.15,0
87,83.78,73.29,0
48,83.06,73.03,0
36,82.12,72.66,0
183,84.14,73.77,0
199,86.44,75.02,0
167,88.05,75.94,0
64,87.57,75.82,0
50,86.81,75.56,0
99,87.06,75.79,0
216,89.64,77.20,0
311,94.06,79.53,0
95,94.08,79.69,0
72,93.64,79.61,0
50,92.77,79.32,0
124,93.39,79.76,0
145,94.43,80.42,0
106,94.66,80.67,0
163,96.02,81.49,0
49,95.08,81.17,0
176,96.70,82.12,0
106,96.89,82.36,0
163,98.21,83.16,0
213,100.51,84.46,0
96,100.42,84.58,0
97,100.35,84.70,0
12,98.58,83.97,0
79,98.19,83.92,0
94,98.11,84.03,0
60,97.34,83.79,0
54,96.48,83.49,0
31,95.17,82.96,0
20,93.66,82.33,0
31,92.41,81.82,0
136,93.28,82.36,0
178,94.98,83.32,0
289,98.86,85.37,0
97,98.82,85.49,0
180,100.44,86.44,0
117,100.77,86.74,0
103,100.82,86.90,0
158,101.96,87.62,0
198,103.88,88.72,0
50,102.81,88.33,0
82,102.39,88.27,0
228,104.90,89.67,0
254,107.88,91.31,0
102,107.77,91.42,0
48,106.57,90.98,0
184,108.12,91.91,0
269,111.34,93.68,0
111,111.33,93.86,0
36,109.82,93.28,0
219,112.01,94.53,0
38,110.53,93.97,0
21,108.74,93.24,0
167,109.90,93.98,0
55,108.80,93.59,0
66,107.95,93.31,0
300,111.79,95.38,0
66,110.87,95.08,0
38,109.42,94.51,0
174,110.71,95.31,0
49,109.47,94.85,0
207,111.42,95.97,0
163,112.45,96.64,0
289,115.99,98.56,0
156,116.79,99.14,0
96,116.37,99.10,0
180,117.64,99.91,0
59,116.47,99.50,0
98,116.10,99.49,0
49,114.76,98.98,0
97,114.40,98.96,0
228,116.68,100.25,0
243,119.20,101.68,0
275,122.32,103.42,0
81,121.49,103.19,0
225,123.56,104.41,0
115,123.39,104.52,0
139,123.70,104.86,0
24,121.71,104.05,0
42,120.11,103.43,0
35,118.41,102.75,0
40,116.84,102.12,0
101,116.53,102.11,0
201,118.22,103.10,0
198,119.81,104.05,0
29,118.00,103.30,0
289,121.42,105.15,0
86,120.71,104.96,0
61,119.51,104.52,0
131,119.74,104.79,0
131,119.97,105.05,0
96,119.49,104.96,0
189,120.88,105.80,0
164,121.74,106.38,0
136,122.03,106.68,0
116,121.91,106.77,0
21,119.89,105.91,0
261,122.71,107.46,0
247,125.20,108.86,0
331,129.31,111.08,0
250,131.73,112.47,0
297,135.03,114.31,0
31,132.95,113.48,0
287,136.03,115.22,0
59,134.49,114.65,0
181,135.42,115.32,0
30,133.31,114.46,0
32,131.29,113.64,0
18,129.02,112.68,0
118,128.80,112.74,0
35,126.92,111.96,0
41,125.21,111.25,0
336,129.42,113.50,0
15,127.13,112.51,0
23,125.05,111.62,0
183,126.21,112.33,0
179,127.27,113.00,0
107,126.86,112.94,0
176,127.84,113.57,0
287,131.03,115.30,0
21,128.83,114.36,0
33,126.91,113.55,0
101,126.39,113.42,0
86,125.58,113.15,0
430,131.67,116.31,0
156,132.16,116.71,0
411,137.74,119.65,0
127,137.52,119.73,0
199,138.75,120.52,0
289,141.75,122.21,0
156,142.04,122.54,0
15,139.50,121.47,0
117,139.05,121.42,0
58,137.43,120.79,0
229,139.26,121.87,0
81,138.09,121.46,0
291,141.15,123.16,0
307,144.47,125.00,0
160,144.78,125.35,0
195,145.78,126.04,0
30,143.47,125.08,0
450,149.60,128.33,0
99,148.59,128.04,0
18,145.98,126.94,0
414,151.34,129.81,0
41,149.13,128.92,0
181,149.77,129.44,0
90,148.57,129.05,0
66,146.92,128.42,0
70,145.38,127.83,0
152,145.51,128.07,0
168,145.96,128.47,0
61,144.26,127.80,0
178,144.94,128.30,0
259,147.22,129.61,0
202,148.32,130.33,0
99,147.33,130.02,0
222,148.82,130.94,0
206,149.97,131.69,0
168,150.33,132.05,0
226,151.84,132.99,0
333,155.46,134.99,0
61,153.57,134.25,0
46,151.42,133.37,0
98,150.35,133.01,0
432,155.99,136.00,0
110,155.07,135.74,0
398,159.93,138.37,0
303,162.79,140.01,0
167,162.87,140.28,0
43,160.47,139.31,0
24,157.75,138.16,0
18,154.95,136.96,0
160,155.05,137.19,0
25,152.45,136.06,0
131,152.02,136.01,0
47,149.92,135.12,0
404,155.00,137.81,0
395,159.80,140.38,0
32,157.25,139.30,0
610,166.30,144.01,0
292,168.82,145.49,0
585,177.14,149.88,0
258,178.76,150.96,0
295,181.08,152.40,0
506,187.58,155.94,0
576,195.35,160.14,0
308,197.60,161.62,0
362,200.89,163.62,0
259,202.05,164.58,0
289,203.79,165.82,0
297,205.65,167.13,0
156,204.66,167.02,0
55,201.67,165.90,0
170,201.03,165.94,0
177,200.55,166.05,0
16,196.86,164.55,0
262,198.17,165.53,0
115,196.50,165.02,0
23,193.03,163.60,0
57,190.31,162.54,0
57,187.65,161.48,0
234,188.57,162.21,0
37,185.54,160.95,0
70,183.23,160.04,0
35,180.27,158.79,0
102,178.70,158.23,0
34,175.81,156.98,0
371,179.71,159.12,0
341,182.94,160.94,0
219,183.66,161.52,0
291,185.80,162.82,0
61,183.31,161.80,0
330,186.24,163.48,0
57,183.66,162.42,0
22,180.42,161.01,0
202,180.86,161.42,0
433,185.90,164.14,0
108,184.34,163.58,0
19,181.03,162.13,0
98,179.37,161.49,0
31,176.41,160.18,0
322,179.32,161.80,0
33,176.39,160.51,0
99,174.84,159.90,0
275,176.85,161.05,0
308,179.47,162.52,0
171,179.30,162.60,0
29,176.29,161.27,0
271,178.19,162.37,0
831,191.24,169.05,0
856,204.54,175.92,0
652,213.49,180.68,0
27,209.76,179.15,0
645,218.46,183.80,0
993,233.95,191.90,0
664,242.56,196.62,0
275,243.20,197.40,0
330,244.94,198.73,0
177,243.58,198.51,0
54,239.79,197.06,0
462,244.23,199.71,0
165,242.65,199.37,0
282,243.44,200.19,0
173,242.03,199.92,0
225,241.69,200.17,0
129,239.43,199.46,0
353,241.70,201.00,0
23,237.33,199.22,0
193,236.44,199.15,0
157,234.86,198.73,0
444,239.04,201.18,0
553,245.32,204.70,0
19,240.79,202.85,0
23,236.44,201.05,0
247,236.65,201.51,0
608,244.07,205.57,0
65,240.49,204.17,0
347,242.62,205.59,0
953,256.83,213.07,0
1004,271.77,220.98,0
319,272.72,221.96,0
116,269.58,220.90,0
1023,284.65,228.92,0
977,298.50,236.40,0
411,300.75,238.15,0
192,298.57,237.69,0
644,305.48,241.75,0
697,313.31,246.30,0
443,315.91,248.27,0
24,310.07,246.03,0
681,317.49,250.37,0
1023,331.60,258.10,0
1023,345.43,265.75,0
36,339.24,263.45,0
386,340.17,264.68,0
862,350.61,270.65,0
921,362.02,277.15,0
47,355.72,274.85,0
602,360.64,278.12,0
1023,373.89,285.57,0
691,380.23,289.63,0
282,378.27,289.55,0
890,388.50,295.56,0
748,395.69,300.08,0
305,393.88,300.13,0
274,391.48,299.87,0
736,398.37,304.23,0
257,395.54,303.76,0
538,398.39,306.10,0
175,393.92,304.79,0
453,395.11,306.27,0
483,396.86,308.04,0
372,396.37,308.68,0
540,399.24,310.99,0
49,392.23,308.37,0
363,391.65,308.92,0
490,393.62,310.73,0
505,395.84,312.67,0
524,398.41,314.78,0
490,400.24,316.54,0
229,396.81,315.66,0
249,393.86,314.99,0
613,398.24,317.97,0
578,401.84,320.57,0
129,396.38,318.66,0
1023,408.91,325.70,0
515,411.03,327.60,0
679,416.39,331.11,0
444,416.95,332.24,0
173,412.07,330.65,0
89,405.60,328.23,0
415,405.79,329.10,0
944,416.56,335.25,0
409,416.41,335.98,0
574,419.56,338.36,0
241,415.99,337.39,0
161,410.89,335.63,0
273,408.13,335.00,0
33,400.63,331.98,0
649,405.59,335.15,0
827,414.02,340.07,0
1023,426.20,346.90,0
880,435.28,352.23,0
235,431.27,351.06,0
423,431.11,351.78,0
1023,442.94,358.49,0
1023,454.55,365.13,0
381,453.07,365.29,0
221,448.43,363.85,0
433,448.12,364.54,0
224,443.64,363.14,0
152,437.81,361.02,0
83,430.71,358.24,0
13,422.36,354.79,0
231,418.53,353.55,0
669,423.54,356.71,0
340,421.87,356.54,0
160,416.63,354.58,0
177,411.84,352.80,0
151,406.62,350.78,0
188,402.25,349.15,0
141,397.03,347.07,0
655,402.19,350.15,0
338,400.90,350.03,0
111,395.10,347.64,0
111,389.42,345.27,0
70,383.03,342.52,0
685,389.07,345.95,0
445,390.19,346.94,0
267,387.73,346.14,0
80,381.57,343.48,0
634,386.62,346.38,0
0,378.89,342.92,0
337,378.05,342.86,0
322,376.93,342.65,0
101,371.41,340.23,0
420,372.38,341.03,0
1014,385.22,347.76,0
714,391.79,351.42,0
12,384.20,348.03,0
574,387.99,350.29,0
847,397.17,355.25,0
470,398.63,356.40,0
319,397.04,356.03,0
77,390.64,353.24,0
50,383.82,350.21,0
446,385.07,351.16,0
9,377.54,347.74,0
484,379.67,349.10,0
833,388.74,353.94,0
616,393.29,356.56,0
89,387.20,353.89,0
488,389.22,355.23,0
853,398.49,360.21,0
182,394.16,358.43,0
435,394.98,359.19,0
348,394.04,359.08,0
19,386.54,355.68,0
371,386.23,355.83,0
657,391.64,358.84,0
597,395.75,361.22,0
171,391.26,359.32,0
877,400.97,364.50,0
1023,413.41,371.08,0
673,418.60,374.10,0
183,413.89,372.19,0
194,409.49,370.41,0
177,404.84,368.48,0
3,396.81,364.82,0
1,388.89,361.18,0
35,381.81,357.92,0
183,377.84,356.17,0
354,377.36,356.15,0
272,375.25,355.31,0
478,377.31,356.54,0
145,372.66,354.42,0
489,374.99,355.77,0
184,371.17,354.05,0
141,366.56,351.92,0
97,361.17,349.37,0
50,354.95,346.38,0
78,349.41,343.69,0
44,343.30,340.69,0
146,339.36,338.75,0
59,333.75,335.95,0
74,328.55,333.33,0
118,324.34,331.18,0
127,320.40,329.14,0
79,315.57,326.63,0
223,313.72,325.60,0
420,315.84,326.54,0
452,318.57,327.80,0
264,317.47,327.16,0
211,315.35,326.00,0
348,316.00,326.22,0
49,310.66,323.45,0
207,308.59,322.28,0
75,303.91,319.81,0
265,303.14,319.26,0
204,301.15,318.11,0
74,296.61,315.67,0
295,296.58,315.46,0
285,296.35,315.15,0
237,295.16,314.37,0
222,293.70,313.45,0
273,293.28,313.05,0
74,288.90,310.65,0
79,284.70,308.34,0
94,280.88,306.19,0
14,275.55,303.27,0
69,271.42,300.93,0
102,268.03,298.94,0
1,262.69,295.96,0
76,258.95,293.76,0
8,253.93,290.90,0
40,249.66,288.40,0
17,245.00,285.68,0
17,240.44,282.99,0
86,237.35,281.02,0
17,232.95,278.38,0
53,229.35,276.13,0
222,229.20,275.59,0
35,225.32,273.18,0
2,220.85,270.47,0
90,218.23,268.67,0
1,213.89,265.99,0
23,210.07,263.56,0
48,206.83,261.40,0
3,202.75,258.82,0
33,199.36,256.56,0
101,197.39,255.01,0
82,195.08,253.28,0
0,191.18,250.74,0
77,188.90,249.01,0
161,188.34,248.13,0
144,187.45,247.09,0
15,184.00,244.76,0
216,184.64,244.48,0
140,183.75,243.43,0
106,182.20,242.06,0
77,180.09,240.41,0
39,177.27,238.39,0
62,174.96,236.63,0
60,172.67,234.86,0
148,172.17,233.99,0
180,172.33,233.45,0
22,169.32,231.34,0
264,171.22,231.67,0
254,172.87,231.89,0
88,171.17,230.45,0
60,168.95,228.75,0
66,166.89,227.12,0
61,164.77,225.46,0
4,161.56,223.24,0
64,159.61,221.65,0
231,161.03,221.74,0
74,159.29,220.27,0
42,156.95,218.48,0
40,154.61,216.70,0
22,151.96,214.75,0
124,151.40,213.84,0
3,148.43,211.74,0
11,145.68,209.73,0
84,144.45,208.47,0
8,141.72,206.47,0
28,139.44,204.68,0
61,137.88,203.25,0
15,135.42,201.36,0
12,132.95,199.47,0
64,131.57,198.11,0
99,130.92,197.12,0
4,128.38,195.19,0
15,126.11,193.39,0
30,124.19,191.76,0
75,123.21,190.59,0
82,122.38,189.50,0
10,120.14,187.71,0
8,117.89,185.91,0
22,115.97,184.27,0
18,114.02,182.61,0
13,111.99,180.91,0
4,109.84,179.14,0
3,107.70,177.38,0
129,108.12,176.90,0
59,107.14,175.72,0
33,105.66,174.29,0
10,103.75,172.65,0
20,102.07,171.12,0
20,100.43,169.61,0
109,100.60,169.01,0
58,99.75,167.90,0
79,99.33,167.01,0
30,97.95,165.64,0
24,96.47,164.22,0
9,94.72,162.67,0
5,92.92,161.09,0
100,93.07,160.48,0
12,91.44,159.00,0
72,91.06,158.13,0
53,90.29,157.07,0
16,88.81,155.66,0
2,87.07,154.13,0
15,85.63,152.74,0
66,85.24,151.87,0
187,87.27,152.22,0
15,85.83,150.85,0
22,84.55,149.56,0
200,86.86,150.06,0
221,89.54,150.77,0
31,88.37,149.57,0
35,87.31,148.43,0
22,86.00,147.16,0
8,84.44,145.77,0
25,83.25,144.57,0
9,81.77,143.21,0
54,81.21,142.32,0
36,80.31,141.25,0
8,78.86,139.92,0
115,79.58,139.67,0
53,79.05,138.81,0
36,78.19,137.78,0
25,77.13,136.65,0
5,75.68,135.33,0
23,74.63,134.21,0
35,73.84,133.22,0
51,73.38,132.40,0
123,74.37,132.30,0
11,73.11,131.09,0
9,71.82,129.87,0
27,70.93,128.84,0
63,70.77,128.18,0
65,70.65,127.55,0
47,70.18,126.74,0
39,69.56,125.87,0
68,69.53,125.29,0
50,69.13,124.53,0
11,67.97,123.40,0
29,67.19,122.46,0
5,65.95,121.28,0
30,65.23,120.37,0
3,63.99,119.19,0
25,63.21,118.25,0
50,62.94,117.57,0
77,63.22,117.16,0
26,62.48,116.25,0
37,61.97,115.46,0
49,61.71,114.80,0
73,61.94,114.38,0
33,61.36,113.56,0
107,62.27,113.50,0
177,64.56,114.13,0
41,64.09,113.40,0
8,62.97,112.35,0
1,61.73,111.23,0
52,61.54,110.64,0
83,61.97,110.37,0
173,64.19,110.99,0
79,64.48,110.67,0
25,63.69,109.82,0
39,63.20,109.11,0
17,62.28,108.19,0
165,64.33,108.75,0
79,64.62,108.46,0
60,64.53,107.97,0
25,63.74,107.14,0
40,63.27,106.47,0
44,62.88,105.85,0
34,62.30,105.13,0
24,61.54,104.32,0
0,60.31,103.27,0
19,59.48,102.43,0
40,59.09,101.81,0
104,59.99,101.83,0
3,58.85,100.84,0
33,58.33,100.16,0
17,57.50,99.33,0
73,57.81,99.07,0
72,58.10,98.80,0
90,58.74,98.71,0
36,58.28,98.08,0
10,57.32,97.20,0
177,59.71,98.00,0
55,59.62,97.57,0
18,58.78,96.77,0
7,57.75,95.87,0
6,56.71,94.98,0
9,55.76,94.12,0
71,56.06,93.89,0
17,55.28,93.12,0
50,55.18,92.69,0
10,54.27,91.86,0
10,53.39,91.04,0
36,53.04,90.49,0
22,52.42,89.80,0
16,51.69,89.07,0
74,52.14,88.92,0
12,51.33,88.15,0
13,50.57,87.40,0
78,51.12,87.30,0
14,50.37,86.57,0
63,50.63,86.33,0
23,50.07,85.70,0
36,49.79,85.20,0
89,50.58,85.24,0
7,49.70,84.46,0
22,49.15,83.83,0
67,49.51,83.66,0
58,49.68,83.41,0
8,48.84,82.65,0
77,49.41,82.60,0
62,49.66,82.39,0
7,48.81,81.64,0
6,47.95,80.88,0
26,47.51,80.33,0
12,46.80,79.65,0
101,47.88,79.86,0
123,49.39,80.29,0
152,51.44,81.01,0
8,50.57,80.28,0
13,49.82,79.61,0
18,49.18,78.99,0
50,49.20,78.70,0
9,48.39,78.01,0
17,47.77,77.40,0
53,47.87,77.15,0
22,47.35,76.60,0
75,47.91,76.58,0
70,48.35,76.52,0
33,48.04,76.08,0
6,47.20,75.38,0
43,47.12,75.06,0
72,47.61,75.03,0
123,49.12,75.51,0
2,48.18,74.77,0
79,48.80,74.81,0
130,50.42,75.37,0
157,52.55,76.18,0
58,52.66,76.00,0
54,52.69,75.78,0
15,51.93,75.17,0
40,51.70,74.82,0
106,52.78,75.13,0
0,51.73,74.38,0
2,50.73,73.66,0
17,50.06,73.09,0
7,49.20,72.43,0
30,48.81,72.01,0
9,48.02,71.38,0
18,47.42,70.84,0
38,47.23,70.51,0
35,46.98,70.16,0
79,47.62,70.25,0
6,46.79,69.60,0
6,45.97,68.97,0
35,45.75,68.63,0
34,45.52,68.28,0
114,46.89,68.74,0
119,48.33,69.24,0
31,47.98,68.86,0
26,47.55,68.43,0
95,48.49,68.70,0
120,49.92,69.21,0
51,49.95,69.03,0
27,49.49,68.61,0
79,50.08,68.71,0
24,49.56,68.26,0
34,49.24,67.92,0
18,48.62,67.42,0
65,48.95,67.40,0
28,48.53,67.00,0
65,48.86,66.98,0
84,49.56,67.15,0
53,49.63,67.01,0
95,50.54,67.29,0
30,50.13,66.92,0
23,49.58,66.48,0
21,49.01,66.03,0
41,48.85,65.78,0
16,48.19,65.28,0
39,48.01,65.02,0
48,48.01,64.84,0
12,47.29,64.32,0
52,47.38,64.19,0
110,48.64,64.65,0
23,48.12,64.23,0
41,47.98,64.00,0
9,47.20,63.45,0
59,47.44,63.41,0
193,50.35,64.70,0
144,52.22,65.50,0
148,54.14,66.32,0
0,53.06,65.66,0
17,52.33,65.17,0
22,51.73,64.74,0
59,51.87,64.68,0
77,52.38,64.81,0
167,54.67,65.83,0
145,56.47,66.62,0
56,56.46,66.51,0
32,55.98,66.17,0
28,55.42,65.79,0
154,57.39,66.67,0
117,58.58,67.17,0
105,59.51,67.55,0
31,58.94,67.19,0
85,59.46,67.36,0
70,59.67,67.39,0
126,61.00,67.98,0
135,62.48,68.65,0
51,62.25,68.47,0
94,62.88,68.72,0
62,62.86,68.66,0
27,62.15,68.24,0
59,62.08,68.15,0
28,61.40,67.75,0
12,60.41,67.19,0
103,61.27,67.55,0
73,61.50,67.60,0
181,63.89,68.74,0
19,62.99,68.24,0
24,62.21,67.80,0
32,61.61,67.44,0
146,63.30,68.22,0
95,63.93,68.49,0
86,64.37,68.67,0
70,64.49,68.68,0
31,63.82,68.30,0
188,66.30,69.50,0
122,67.41,70.03,0
172,69.50,71.05,0
197,72.05,72.30,0
135,73.31,72.93,0
63,73.11,72.83,0
37,72.39,72.47,0
83,72.60,72.58,0
78,72.71,72.63,0
26,71.77,72.17,0
20,70.74,71.65,0
43,70.18,71.36,0
114,71.06,71.79,0
205,73.74,73.12,0
66,73.58,73.05,0
62,73.35,72.94,0
47,72.82,72.68,0
13,71.63,72.08,0
30,70.79,71.66,0
14,69.66,71.08,0
17,68.61,70.54,0
12,67.47,69.96,0
188,69.88,71.14,0
112,70.73,71.55,0
155,72.41,72.38,0
76,72.48,72.42,0
65,72.33,72.34,0
35,71.59,71.97,0
90,71.96,72.15,0
111,72.74,72.54,0
35,71.98,72.16,0
111,72.76,72.55,0
24,71.79,72.06,0
115,72.65,72.49,0
34,71.88,72.11,0
51,71.46,71.90,0
64,71.31,71.82,0
54,70.96,71.64,0
69,70.93,71.61,0
78,71.07,71.68,0
25,70.15,71.21,0
37,69.48,70.87,0
80,69.69,70.96,0
154,71.38,71.79,0
119,72.33,72.26,0
59,72.06,72.13,0
29,71.20,71.70,0
75,71.28,71.73,0
136,72.57,72.37,0
43,71.98,72.08,0
176,74.06,73.12,0
117,74.92,73.56,0
39,74.20,73.21,0
111,74.94,73.59,0
78,75.00,73.64,0
179,77.08,74.69,0
103,77.60,74.97,0
19,76.43,74.41,0
42,75.74,74.09,0
96,76.14,74.31,0
107,76.76,74.63,0
56,76.35,74.45,0
35,75.52,74.05,0
39,74.79,73.70,0
21,73.71,73.18,0
100,74.24,73.44,0
97,74.69,73.68,0
236,77.92,75.30,0
32,77.00,74.87,0
142,78.30,75.54,0
95,78.64,75.74,0
46,77.98,75.44,0
215,80.72,76.83,0
59,80.29,76.66,0
52,79.72,76.41,0
55,79.23,76.20,0
180,81.24,77.23,0
116,81.94,77.62,0
73,81.76,77.57,0
16,80.44,76.96,0
27,79.38,76.46,0
134,80.47,77.03,0
153,81.92,77.79,0
87,82.02,77.89,0
51,81.40,77.62,0
57,80.91,77.41,0
56,80.41,77.20,0
127,81.35,77.70,0
137,82.46,78.29,0
281,86.43,80.32,0
41,85.52,79.92,0
133,86.47,80.45,0
108,86.90,80.73,0
49,86.14,80.41,0
146,87.34,81.07,0
37,86.33,80.63,0
70,86.01,80.52,0
120,86.69,80.92,0
162,88.19,81.73,0
30,87.03,81.21,0
52,86.33,80.92,0
93,86.46,81.04,0
96,86.65,81.19,0
162,88.16,82.00,0
79,87.98,81.97,0
37,86.96,81.52,0
52,86.26,81.22,0
128,87.09,81.69,0
39,86.13,81.26,0
82,86.05,81.27,0
62,85.57,81.08,0
51,84.88,80.78,0
88,84.94,80.85,0
100,85.24,81.04,0
100,85.53,81.23,0
34,84.50,80.76,0
74,84.29,80.69,0
38,83.37,80.26,0
32,82.34,79.78,0
66,82.01,79.64,0
155,83.47,80.40,0
42,82.64,80.01,0
35,81.69,79.56,0
65,81.36,79.42,0
139,82.51,80.01,0
151,83.88,80.72,0
50,83.20,80.41,0
21,81.96,79.82,0
96,82.24,79.98,0
192,84.43,81.10,0
67,84.09,80.96,0
47,83.34,80.62,0
77,83.22,80.58,0
108,83.71,80.86,0
88,83.80,80.93,0
227,86.66,82.39,0
95,86.83,82.52,0
75,86.59,82.44,0
59,86.04,82.21,0
47,85.26,81.86,0
68,84.91,81.72,0
40,84.02,81.30,0
100,84.34,81.49,0
38,83.41,81.05,0
144,84.62,81.68,0
145,85.83,82.31,0
177,87.65,83.26,0
17,86.24,82.60,0
35,85.21,82.12,0
113,85.77,82.43,0
152,87.09,83.13,0
185,89.05,84.15,0
23,87.73,83.53,0
29,86.56,82.99,0
49,85.81,82.65,0
66,85.41,82.48,0
26,84.22,81.92,0
96,84.46,82.06,0
70,84.17,81.94,0
26,83.00,81.38,0
57,82.48,81.14,0
19,81.22,80.51,0
161,82.81,81.32,0
109,83.33,81.60,0
28,82.23,81.06,0
38,81.34,80.63,0
153,82.78,81.35,0
148,84.08,82.02,0
59,83.58,81.79,0
78,83.47,81.75,0
33,82.46,81.26,0
118,83.17,81.63,0
117,83.85,81.98,0
239,86.95,83.55,0
21,85.63,82.93,0
132,86.56,83.42,0
83,86.49,83.42,0
132,87.40,83.90,0
39,86.43,83.45,0
132,87.34,83.94,0
89,87.37,83.99,0
40,86.43,83.55,0
195,88.60,84.66,0
91,88.65,84.73,0
74,88.35,84.62,0
44,87.47,84.21,0
36,86.44,83.73,0
19,85.09,83.08,0
42,84.23,82.67,0
41,83.36,82.26,0
22,82.13,81.65,0
74,81.97,81.58,0
46,81.25,81.22,0
41,80.45,80.82,0
57,79.98,80.58,0
52,79.42,80.30,0
46,78.75,79.95,0
64,78.45,79.79,0
34,77.57,79.33,0
16,76.33,78.70,0
36,75.53,78.27,0
27,74.56,77.76,0
24,73.55,77.22,0
24,72.56,76.69,0
32,71.74,76.24,0
185,74.01,77.33,0
7,72.67,76.63,0
60,72.42,76.46,0
56,72.09,76.26,0
105,72.75,76.55,0
207,75.43,77.85,0
53,74.98,77.60,0
43,74.34,77.26,0
41,73.68,76.89,0
130,74.80,77.42,0
43,74.17,77.08,0
38,73.44,76.69,0
23,72.43,76.15,0
98,72.95,76.37,0
64,72.77,76.25,0
46,72.23,75.94,0
122,73.23,76.41,0
37,72.50,76.01,0
50,72.05,75.75,0
50,71.61,75.49,0
45,71.08,75.19,0
68,71.02,75.12,0
161,72.82,75.98,0
43,72.22,75.65,0
98,72.74,75.87,0
22,71.72,75.33,0
28,70.85,74.86,0
108,71.59,75.19,0
87,71.90,75.31,0
89,72.24,75.44,0
59,71.98,75.28,0
68,71.90,75.21,0
192,74.30,76.37,0
181,76.43,77.42,0
46,75.82,77.11,0
51,75.33,76.85,0
18,74.18,76.26,0
72,74.14,76.21,0
22,73.09,75.67,0
50,72.63,75.42,0
252,76.22,77.18,0
172,78.13,78.13,0
41,77.39,77.76,0
113,78.10,78.11,0
38,77.30,77.71,0
41,76.58,77.34,0
75,76.54,77.32,0
138,77.77,77.93,0
192,80.06,79.07,0
157,81.60,79.85,0
112,82.21,80.17,0
24,81.04,79.61,0
74,80.90,79.55,0
141,82.10,80.16,0
36,81.18,79.72,0
49,80.54,79.42,0
192,82.77,80.54,0
136,83.83,81.10,0
186,85.87,82.14,0
89,85.94,82.21,0
85,85.92,82.24,0
185,87.90,83.27,0
459,95.32,87.03,0
56,94.54,86.72,0
35,93.34,86.20,0
27,92.02,85.61,0
36,90.90,85.11,0
20,89.48,84.46,0
241,92.51,86.02,0
165,93.96,86.81,0
81,93.70,86.76,0
76,93.35,86.65,0
157,94.62,87.35,0
39,93.51,86.87,0
71,93.06,86.71,0
167,94.54,87.51,0
103,94.70,87.67,0
291,98.63,89.70,0
364,103.94,92.44,0
87,103.60,92.39,0
53,102.59,92.00,0
86,102.26,91.94,0
139,102.99,92.41,0
26,101.45,91.74,0
79,101.00,91.62,0
399,106.96,94.69,0
72,106.26,94.46,0
16,104.46,93.68,0
134,105.05,94.08,0
473,112.41,97.87,0
37,110.90,97.26,0
156,111.80,97.85,0
53,110.63,97.40,0
130,111.01,97.73,0
185,112.49,98.60,0
210,114.44,99.71,0
0,112.15,98.72,0
223,114.37,99.96,0
95,113.98,99.91,0
188,115.46,100.79,0
36,113.87,100.14,0
11,111.82,99.25,0
447,118.52,102.73,0
33,116.81,102.03,0
68,115.83,101.69,0
312,119.76,103.79,0
251,122.38,105.27,0
19,120.31,104.40,0
188,121.67,105.24,0
70,120.63,104.89,0
295,124.12,106.79,0
142,124.48,107.14,0
10,122.19,106.17,0
44,120.63,105.55,0
142,121.05,105.91,0
34,119.31,105.19,0
22,117.37,104.36,0
143,117.88,104.75,0
136,118.24,105.06,0
231,120.50,106.32,0
44,118.97,105.70,0
29,117.17,104.93,0
234,119.50,106.22,0
200,121.11,107.16,0
260,123.89,108.69,0
112,123.65,108.72,0
29,121.76,107.92,0
84,121.01,107.68,0
49,119.57,107.10,0
184,120.85,107.86,0
61,119.66,107.40,0
151,120.28,107.83,0
64,119.16,107.39,0
101,118.80,107.33,0
158,119.58,107.84,0
123,119.65,107.99,0
159,120.43,108.50,0
234,122.71,109.75,0
10,120.45,108.76,0
54,119.12,108.21,0
26,117.26,107.39,0
255,120.02,108.86,0
19,117.99,107.96,0
79,117.21,107.67,0
19,115.25,106.79,0
104,115.03,106.76,0
496,122.65,110.65,0
250,125.19,112.05,0
80,124.29,111.72,0
280,127.40,113.41,0
83,126.51,113.10,0
52,125.02,112.49,0
198,126.48,113.35,0
136,126.67,113.57,0
254,129.22,114.98,0
81,128.26,114.64,0
59,126.87,114.08,0
95,126.23,113.89,0
59,124.89,113.34,0
38,123.15,112.59,0
180,124.29,113.26,0
108,123.96,113.21,0
208,125.64,114.16,0
24,123.61,113.26,0
138,123.90,113.50,0
86,123.14,113.23,0
20,121.08,112.30,0
191,122.48,113.08,0
201,124.05,113.96,0
272,127.01,115.54,0
21,124.89,114.60,0
267,127.73,116.12,0
88,126.93,115.84,0
8,124.55,114.76,0
110,124.26,114.71,0
464,131.06,118.21,0
275,133.94,119.78,0
336,137.98,121.94,0
20,135.62,120.92,0
62,134.15,120.33,0
59,132.64,119.72,0
16,130.31,118.68,0
261,132.92,120.10,0
113,132.53,120.03,0
58,131.04,119.41,0
9,128.59,118.31,0
26,126.54,117.38,0
58,125.17,116.79,0
102,124.71,116.64,0
24,122.69,115.72,0
509,130.42,119.65,0
72,129.25,119.17,0
113,128.93,119.11,0
27,126.89,118.19,0
279,129.93,119.80,0
196,131.25,120.56,0
110,130.83,120.45,0
157,131.35,120.82,0
41,129.54,120.02,0
324,133.43,122.06,0
707,144.90,127.91,0
81,143.63,127.44,0
475,150.25,130.92,0
195,151.15,131.56,0
14,148.41,130.38,0
70,146.84,129.78,0
29,144.48,128.77,0
30,142.19,127.78,0
153,142.41,128.03,0
21,139.98,126.96,0
275,142.68,128.44,0
31,140.45,127.47,0
174,141.12,127.94,0
3,138.35,126.69,0
136,138.31,126.78,0
177,139.08,127.28,0
17,136.64,126.18,0
90,135.71,125.82,0
73,134.45,125.29,0
214,136.04,126.18,0
127,135.86,126.18,0
179,136.73,126.71,0
99,135.97,126.43,0
261,138.47,127.78,0
134,138.38,127.84,0
306,141.73,129.62,0
175,142.40,130.08,0
39,140.33,129.17,0
200,141.53,129.88,0
98,140.65,129.56,0
164,141.12,129.90,0
115,140.60,129.75,0
340,144.59,131.85,0
369,149.08,134.23,0
125,148.59,134.13,0
284,151.30,135.63,0
361,155.50,137.89,0
175,155.89,138.26,0
179,156.35,138.66,0
370,160.62,140.98,0
386,165.13,143.43,0
17,162.17,142.16,0
345,165.82,144.19,0
509,172.69,147.84,0
138,171.99,147.74,0
119,170.93,147.45,0
137,170.25,147.35,0
119,169.23,147.07,0
23,166.30,145.83,0
74,164.46,145.11,0
82,162.81,144.48,0
229,164.13,145.32,0
352,167.89,147.39,0
235,169.23,148.26,0
43,166.71,147.21,0
216,167.69,147.90,0
165,167.64,148.07,0
89,166.07,147.48,0
310,168.95,149.11,0
268,170.93,150.29,0
414,175.79,152.93,0
146,175.19,152.86,0
93,173.55,152.26,0
144,172.96,152.18,0
281,175.12,153.47,0
206,175.74,153.99,0
65,173.52,153.10,0
307,176.19,154.64,0
172,176.11,154.82,0
30,173.19,153.57,0
14,170.00,152.17,0
255,171.70,153.20,0
372,175.71,155.39,0
165,175.49,155.49,0
39,172.76,154.32,0
486,179.03,157.64,0
483,185.11,160.89,0
199,185.39,161.27,0
375,189.18,163.41,0
553,196.45,167.31,0
36,193.25,165.99,0
111,191.60,165.44,0
31,188.39,164.10,0
241,189.44,164.87,0
385,193.35,167.07,0
330,196.08,168.70,0
45,193.06,167.46,0
580,200.80,171.59,0
38,197.55,170.25,0
132,196.23,169.87,0
77,193.85,168.94,0
75,191.47,168.00,0
27,188.18,166.59,0
124,186.90,166.16,0
128,185.72,165.78,0
150,185.01,165.62,0
198,185.27,165.95,0
295,187.46,167.24,0
273,189.17,168.30,0
86,187.11,167.47,0
283,189.03,168.63,0
44,186.13,167.38,0
179,185.98,167.50,0
40,183.06,166.22,0
56,180.52,165.12,0
128,179.47,164.75,0
385,183.58,166.95,0
321,186.33,168.49,0
379,190.18,170.60,0
284,192.06,171.73,0
28,188.78,170.29,0
42,185.84,169.01,0
131,184.75,168.63,0
24,181.53,167.19,0
54,178.98,166.05,0
32,176.04,164.71,0
162,175.76,164.69,0
390,180.05,166.94,0
207,180.59,167.34,0
397,184.91,169.64,0
196,185.14,169.90,0
225,185.93,170.45,0
331,188.83,172.06,0
21,185.48,170.55,0
64,183.05,169.48,0
96,181.31,168.75,0
79,179.26,167.85,0
249,180.66,168.66,0
332,183.68,170.29,0
137,182.75,169.96,0
147,182.03,169.73,0
193,182.25,169.96,0
241,183.43,170.67,0
508,189.92,174.05,0
177,189.66,174.08,0
427,194.41,176.61,0
968,209.88,184.52,0
763,220.94,190.30,0
164,219.80,190.04,0
401,223.43,192.15,0
251,223.98,192.74,0
165,222.80,192.46,0
915,236.64,199.69,0
1023,252.37,207.92,0
561,258.54,211.45,0
137,256.11,210.71,0
212,255.23,210.72,0
676,263.65,215.37,0
445,267.27,217.67,0
109,264.11,216.58,0
281,264.44,217.23,0
221,263.58,217.26,0
533,268.96,220.42,0
300,269.59,221.22,0
88,265.95,219.88,0
945,279.53,227.14,0
1023,294.40,235.09,0
350,295.52,236.24,0
813,305.87,242.01,0
1023,320.21,249.82,0
752,328.84,254.84,0
630,334.87,258.59,0
84,329.85,256.85,0
319,329.63,257.47,0
177,326.58,256.67,0
378,327.61,257.88,0
463,330.32,259.93,0
573,335.17,263.06,0
944,347.35,269.87,0
324,346.88,270.41,0
167,343.28,269.38,0
143,339.28,268.11,0
985,352.19,275.28,0
409,353.33,276.62,0
173,349.72,275.58,0
663,355.99,279.46,0
1023,369.33,286.89,0
1023,382.40,294.25,0
303,380.81,294.34,0
692,387.04,298.32,0
894,397.17,304.28,0
856,406.35,309.79,0
1023,418.68,316.92,0
356,417.43,317.32,0
315,415.38,317.29,0
334,413.75,317.46,0
480,415.08,319.08,0
678,420.34,322.67,0
784,427.61,327.29,0
111,421.28,325.12,0
49,413.83,322.36,0
767,420.90,326.81,0
94,414.36,324.48,0
900,424.07,330.24,0
1023,436.05,337.16,0
586,439.05,339.65,0
131,432.89,337.57,0
730,438.83,341.49,0
730,444.65,345.38,0
764,451.04,349.56,0
550,453.02,351.57,0
66,445.28,348.71,0
447,445.31,349.69,0
321,442.83,349.41,0
120,436.37,347.11,0
377,435.18,347.41,0
86,428.20,344.80,0
816,435.96,349.51,0
524,437.72,351.25,0
352,436.00,351.26,0
834,443.96,356.09,0
1023,455.54,362.76,0
920,464.83,368.33,0
33,456.20,364.98,0
1023,467.53,371.56,0
1023,478.64,378.07,0
1023,489.53,384.52,0
36,480.46,381.04,0
1023,491.31,387.46,0
1023,501.94,393.81,0
1023,512.36,400.10,0
107,504.26,397.17,0
1023,514.63,403.43,0
731,518.96,406.71,0
230,513.18,404.94,0
423,511.38,405.12,0
679,514.73,407.86,0
36,505.15,404.14,0
356,502.17,403.66,0
665,505.43,406.27,0
6,495.44,402.27,0
273,490.99,400.98,0
1023,501.63,407.20,0
46,492.52,403.58,0
33,483.33,399.88,0
486,483.38,400.74,0
18,474.07,396.91,0
355,471.69,396.49,0
75,463.76,393.28,0
373,461.94,393.08,0
844,469.58,397.58,0
453,469.25,398.14,0
437,468.61,398.53,0
344,466.12,397.98,0
246,461.71,396.46,0
100,454.48,393.50,0
219,449.77,391.75,0
340,447.57,391.24,0
713,452.88,394.45,0
25,444.32,390.76,0
258,440.60,389.43,0
407,439.93,389.61,0
479,440.71,390.50,0
195,435.79,388.55,0
225,431.58,386.91,0
620,435.35,389.24,0
927,445.18,394.62,0
159,439.46,392.26,0
63,431.93,388.97,0
661,436.51,391.69,0
716,442.10,394.93,0
468,442.62,395.66,0
207,437.90,393.78,0
221,433.57,392.05,0
20,425.29,388.33,0
30,417.39,384.75,0
43,409.90,381.33,0
264,406.98,380.15,0
464,408.12,380.99,0
252,405.00,379.70,0
138,399.66,377.29,0
159,394.85,375.10,0
161,390.17,372.96,0
388,390.13,373.11,0
269,387.70,372.07,0
129,382.53,369.64,0
353,381.94,369.47,0
415,382.60,369.93,0
143,377.81,367.66,0
974,389.73,373.72,0
1023,402.40,380.22,0
805,410.45,384.46,0
46,403.16,381.08,0
155,398.20,378.82,0
89,392.01,375.92,0
472,393.61,376.88,0
120,388.14,374.31,0
134,383.06,371.91,0
25,375.90,368.44,0
168,371.74,366.44,0
218,368.66,364.95,0
2,361.33,361.32,1
55,355.20,358.26,1
195,352.00,356.63,1
398,352.92,357.04,1
223,350.32,355.70,1
256,348.44,354.70,1
165,344.77,352.81,1
77,339.41,350.05,1
2,332.66,346.57,1
24,326.49,343.34,1
39,320.74,340.30,1
200,318.33,338.90,1
127,314.50,336.78,1
58,309.37,333.99,1
72,304.62,331.37,1
92,300.37,328.98,1
152,297.40,327.21,1
164,294.73,325.57,1
24,289.32,322.56,1
106,285.65,320.39,1
98,281.90,318.17,1
141,279.08,316.40,1
118,275.86,314.41,1
139,273.12,312.66,1
60,268.86,310.13,1
266,268.80,309.69,1
111,265.65,307.70,1
164,263.61,306.27,1
39,259.12,303.59,1
41,254.76,300.97,1
13,249.92,298.09,1
10,245.13,295.21,1
18,240.58,292.44,1
8,235.93,289.59,1
18,231.57,286.87,1
99,228.92,285.00,1
32,224.98,282.47,1
109,222.66,280.73,1
152,221.25,279.44,1
35,217.53,277.00,1
148,216.13,275.71,1
24,212.29,273.19,1
56,209.17,271.02,1
79,206.56,269.10,1
130,205.03,267.71,1
49,201.91,265.52,1
26,198.39,263.13,1
69,195.81,261.19,1
86,193.61,259.43,1
175,193.24,258.59,1
67,190.71,256.67,1
13,187.16,254.24,1
4,183.49,251.73,1
126,182.34,250.48,1
198,182.66,249.95,1
66,180.32,248.11,1
10,176.92,245.73,1
23,173.84,243.50,1
75,171.86,241.82,1
79,170.01,240.19,1
76,168.13,238.55,1
6,164.88,236.22,1
87,163.33,234.73,1
35,160.76,232.73,1
145,160.44,231.86,1
75,158.74,230.29,1
48,156.52,228.47,1
54,154.47,226.72,1
117,153.72,225.62,1
79,152.23,224.16,1
10,149.38,222.02,1
95,148.29,220.75,1
26,145.85,218.80,1
14,143.21,216.75,1
12,140.59,214.70,1
50,138.78,213.06,1
64,137.28,211.57,1
5,134.63,209.50,1
16,132.26,207.56,1
53,130.68,206.02,1
66,129.38,204.62,1
34,127.48,202.91,1
97,126.87,201.85,1
68,125.69,200.51,1
29,123.75,198.80,1
4,121.36,196.85,1
80,120.53,195.68,1
34,118.80,194.07,1
83,118.09,192.96,1
8,115.88,191.11,1
13,113.83,189.33,1
51,112.57,187.94,1
16,110.64,186.22,1
73,109.89,185.09,1
140,110.49,184.64,1
83,109.94,183.62,1
6,107.86,181.85,1
48,106.66,180.51,1
75,106.03,179.45,1
104,105.99,178.70,1
19,104.25,177.10,1
58,103.32,175.91,1
11,101.48,174.26,1
9,99.63,172.61,1
14,97.91,171.02,1
12,96.20,169.43,1
256,99.39,170.30,1
139,100.18,169.99,1
28,98.74,168.57,1
80,98.37,167.68,1
33,97.06,166.33,1
56,96.24,165.23,1
49,95.29,164.07,1
35,94.09,162.78,1
4,92.29,161.19,1
31,91.06,159.89,1
31,89.86,158.60,1
34,88.74,157.35,1
21,87.39,155.99,1
21,86.06,154.64,1
41,85.16,153.50,1
29,84.03,152.26,1
4,82.43,150.77,1
32,81.43,149.59,1
65,81.10,148.74,1
9,79.65,147.34,1
140,80.86,147.27,1
26,79.76,146.06,1
44,79.05,145.04,1
39,78.25,143.98,1
30,77.28,142.84,1
31,76.36,141.72,1
93,76.69,141.23,1
46,76.08,140.28,1
45,75.46,139.33,1
51,74.97,138.44,1
17,73.81,137.23,1
88,74.09,136.74,1
58,73.77,135.95,1
103,74.35,135.62,1
2,72.91,134.28,1
13,71.71,133.07,1
30,70.87,132.04,1
105,71.56,131.77,1
17,70.47,130.62,1
51,70.08,129.83,1
8,68.83,128.61,1
6,67.58,127.38,1
146,69.15,127.57,1
49,68.74,126.78,1
40,68.17,125.91,1
65,68.11,125.30,1
46,67.66,124.51,1
142,69.15,124.69,1
54,68.85,123.98,1
17,67.81,122.91,1
152,69.49,123.20,1
62,69.34,122.59,1
37,68.70,121.73,1
0,67.32,120.52,1
7,66.12,119.38,1
77,66.33,118.96,1
81,66.63,118.58,1
56,66.41,117.95,1
36,65.81,117.13,1
21,64.91,116.17,1
20,64.01,115.21,1
81,64.35,114.87,1
52,64.11,114.24,1
25,63.32,113.35,1
36,62.78,112.57,1
27,62.06,111.72,1
3,60.88,110.63,1
7,59.80,109.59,1
15,58.91,108.65,1
47,58.67,108.03,1
49,58.47,107.44,1
25,57.81,106.62,1
12,56.89,105.67,1
43,56.61,105.04,1
25,55.98,104.24,1
26,55.38,103.46,1
17,54.61,102.60,1
158,56.68,103.15,1
125,58.05,103.37,1
65,58.19,102.98,1
55,58.12,102.50,1
0,56.96,101.48,1
19,56.20,100.65,1
79,56.66,100.44,1
27,56.06,99.70,1
97,56.88,99.68,1
27,56.28,98.95,1
4,55.24,98.00,1
0,54.13,97.02,1
18,53.41,96.23,1
132,54.98,96.59,1
17,54.22,95.79,1
8,53.30,94.91,1
28,52.79,94.25,1
122,54.18,94.52,1
48,54.05,94.06,1
12,53.21,93.24,1
34,52.83,92.64,1
20,52.17,91.92,1
79,52.71,91.79,1
42,52.49,91.29,1
4,51.52,90.42,1
12,50.73,89.63,1
110,51.92,89.84,1
37,51.62,89.31,1
88,52.35,89.30,1
17,51.64,88.57,1
42,51.45,88.11,1
23,50.88,87.46,1
56,50.98,87.14,1
72,51.40,86.99,1
22,50.81,86.34,1
20,50.20,85.68,1
40,49.99,85.22,1
14,49.27,84.51,1
42,49.13,84.08,1
83,49.81,84.07,1
299,54.79,86.22,1
116,56.01,86.52,1
53,55.95,86.18,1
68,56.19,86.00,1
9,55.25,85.23,1
85,55.85,85.23,1
149,57.71,85.87,1
153,59.61,86.54,1
21,58.84,85.88,1
30,58.27,85.32,1
44,57.98,84.91,1
53,57.88,84.59,1
122,59.16,84.97,1
113,60.24,85.25,1
172,62.47,86.11,1
115,63.53,86.40,1
33,62.91,85.87,1
24,62.14,85.25,1
57,62.03,84.97,1
47,61.73,84.59,1
106,62.62,84.80,1
25,61.87,84.20,1
152,63.67,84.88,1
16,62.72,84.19,1
11,61.68,83.46,1
6,60.57,82.69,1
37,60.10,82.23,1
183,62.55,83.24,1
120,63.70,83.61,1
24,62.91,83.01,1
38,62.41,82.56,1
182,64.80,83.55,1
112,65.75,83.84,1
83,66.09,83.83,1
21,65.19,83.20,1
33,64.55,82.70,1
46,64.18,82.33,1
64,64.17,82.15,1
133,65.55,82.66,1
78,65.80,82.61,1
12,64.72,81.90,1
7,63.57,81.16,1
24,62.78,80.58,1
113,63.78,80.91,1
45,63.40,80.55,1
121,64.56,80.95,1
13,63.53,80.27,1
20,62.65,79.67,1
25,61.90,79.12,1
36,61.38,78.69,1
66,61.48,78.57,1
66,61.57,78.44,1
86,62.06,78.52,1
152,63.85,79.25,1
99,64.56,79.45,1
88,65.03,79.53,1
149,66.71,80.23,1
65,66.67,80.08,1
19,65.72,79.47,1
52,65.44,79.19,1
7,64.27,78.47,1
36,63.71,78.04,1
66,63.75,77.92,1
18,62.84,77.33,1
52,62.62,77.07,1
71,62.79,77.01,1
26,62.05,76.50,1
16,61.13,75.90,1
131,62.53,76.45,1
41,62.10,76.09,1
40,61.66,75.73,1
10,60.63,75.07,1
11,59.63,74.43,1
6,58.56,73.75,1
22,57.83,73.23,1
90,58.47,73.40,1
99,59.28,73.66,1
38,58.86,73.30,1
54,58.76,73.11,1
16,57.90,72.53,1
68,58.11,72.49,1
25,57.44,72.01,1
54,57.38,71.83,1
16,56.55,71.28,1
40,56.22,70.96,1
140,57.89,71.65,1
65,58.03,71.59,1
9,57.05,70.96,1
12,56.15,70.37,1
27,55.57,69.94,1
235,59.16,71.59,1
168,61.34,72.55,1
140,62.91,73.23,1
15,61.95,72.64,1
92,62.55,72.84,1
56,62.42,72.67,1
126,63.69,73.20,1
226,66.94,74.73,1
157,68.74,75.55,1
57,68.50,75.37,1
90,68.93,75.51,1
97,69.50,75.73,1
84,69.79,75.81,1
30,68.99,75.35,1
24,68.09,74.84,1
36,67.45,74.45,1
25,66.60,73.96,1
108,67.43,74.30,1
66,67.40,74.22,1
52,67.09,73.99,1
16,66.07,73.41,1
226,69.27,74.94,1
135,70.58,75.54,1
131,71.79,76.09,1
28,70.92,75.61,1
64,70.78,75.50,1
247,74.30,77.21,1
96,74.74,77.40,1
71,74.66,77.34,1
147,76.11,78.03,1
163,77.85,78.88,1
26,76.81,78.35,1
86,76.99,78.43,1
75,76.95,78.40,1
86,77.13,78.47,1
136,78.31,79.05,1
15,77.04,78.41,1
171,78.92,79.33,1
31,77.97,78.85,1
202,80.45,80.08,1
43,79.70,79.71,1
11,78.32,79.02,1
17,77.10,78.40,1
75,77.05,78.37,1
22,75.95,77.80,1
34,75.11,77.37,1
94,75.49,77.53,1
126,76.50,78.02,1
123,77.43,78.47,1
65,77.18,78.33,1
14,75.92,77.69,1
109,76.58,78.00,1
90,76.85,78.12,1
46,76.23,77.80,1
90,76.51,77.92,1
46,75.90,77.60,1
28,74.94,77.11,1
175,76.94,78.09,1
99,77.38,78.30,1
24,76.31,77.75,1
115,77.09,78.13,1
105,77.65,78.39,1
140,78.89,79.01,1
16,77.64,78.38,1
30,76.68,77.90,1
43,76.01,77.55,1
79,76.07,77.56,1
41,75.37,77.20,1
108,76.02,77.50,1
56,75.62,77.29,1
27,74.65,76.79,1
155,76.25,77.57,1
95,76.63,77.74,1
51,76.12,77.48,1
30,75.19,77.00,1
43,74.55,76.66,1
208,77.22,77.97,1
117,78.02,78.36,1
15,76.76,77.73,1
95,77.12,77.90,1
35,76.28,77.47,1
143,77.61,78.13,1
127,78.60,78.62,1
120,79.43,79.03,1
37,78.58,78.61,1
217,81.35,80.00,1
96,81.64,80.16,1
153,83.07,80.88,1
41,82.23,80.49,1
150,83.58,81.18,1
9,82.09,80.46,1
122,82.89,80.87,1
108,83.39,81.15,1
149,84.70,81.82,1
41,83.83,81.42,1
75,83.65,81.35,1
81,83.60,81.35,1
108,84.09,81.61,1
106,84.53,81.86,1
92,84.68,81.96,1
37,83.72,81.51,1
68,83.41,81.38,1
98,83.70,81.54,1
45,82.93,81.18,1
71,82.69,81.07,1
42,81.87,80.68,1
26,80.76,80.14,1
119,81.52,80.53,1
99,81.87,80.71,1
46,81.15,80.36,1
60,80.73,80.16,1
22,79.55,79.58,1
32,78.60,79.10,1
78,78.59,79.09,1
146,79.94,79.76,1
185,82.04,80.81,1
73,81.86,80.73,1
104,82.30,80.97,1
120,83.06,81.36,1
89,83.18,81.43,1
99,83.49,81.61,1
94,83.70,81.73,1
21,82.45,81.13,1
75,82.30,81.06,1
120,83.05,81.45,1
66,82.71,81.30,1
36,81.78,80.85,1
28,80.70,80.32,1
41,79.91,79.92,1
124,80.79,80.37,1
28,79.73,79.84,1
110,80.34,80.14,1
162,81.97,80.96,1
51,81.35,80.66,1
92,81.57,80.78,1
35,80.64,80.32,1
20,79.42,79.72,1
73,79.29,79.65,1
44,78.59,79.29,1
31,77.64,78.81,1
54,77.16,78.56,1
46,76.54,78.23,1
56,76.13,78.01,1
22,75.05,77.45,1
33,74.21,77.01,1
7,72.86,76.31,1
46,72.32,76.00,1
153,73.94,76.77,1
22,72.90,76.23,1
58,72.60,76.04,1
33,71.81,75.61,1
28,70.93,75.14,1
110,71.71,75.49,1
159,73.46,76.32,1
36,72.71,75.92,1
64,72.54,75.80,1
53,72.15,75.57,1
104,72.78,75.86,1
48,72.29,75.58,1
31,71.46,75.13,1
44,70.91,74.82,1
106,71.61,75.13,1
200,74.18,76.38,1
88,74.46,76.50,1
67,74.31,76.40,1
45,73.72,76.09,1
50,73.25,75.83,1
168,75.14,76.75,1
179,77.22,77.77,1
115,77.98,78.14,1
141,79.24,78.77,1
266,82.97,80.64,1
76,82.83,80.60,1
27,81.72,80.06,1
89,81.86,80.15,1
30,80.82,79.65,1
41,80.03,79.26,1
66,79.75,79.13,1
207,82.29,80.41,1
170,84.05,81.31,1
21,82.79,80.70,1
49,82.11,80.39,1
36,81.19,79.94,1
154,82.64,80.68,1
79,82.57,80.66,1
59,82.10,80.45,1
27,81.00,79.91,1
140,82.18,80.51,1
32,81.17,80.03,1
82,81.19,80.05,1
64,80.85,79.89,1
105,81.33,80.14,1
89,81.48,80.23,1
41,80.67,79.84,1
103,81.12,80.07,1
54,80.58,79.81,1
51,79.99,79.52,1
28,78.95,79.00,1
25,77.87,78.46,1
79,77.89,78.47,1
116,78.65,78.84,1
29,77.66,78.35,1
21,76.53,77.77,1
39,75.78,77.38,1
30,74.86,76.91,1
58,74.52,76.72,1
47,73.97,76.42,1
32,73.13,75.98,1
32,72.31,75.54,1
247,75.80,77.26,1
54,75.37,77.02,1
25,74.36,76.50,1
96,74.79,76.70,1
90,75.10,76.83,1
91,75.42,76.97,1
47,74.85,76.67,1
31,73.97,76.22,1
24,72.97,75.69,1
50,72.51,75.44,1
79,72.64,75.47,1
20,71.59,74.92,1
24,70.64,74.41,1
62,70.46,74.28,1
120,71.45,74.74,1
79,71.61,74.78,1
36,70.89,74.40,1
27,70.02,73.92,1
12,68.86,73.30,1
50,68.48,73.07,1
26,67.63,72.60,1
14,66.56,72.01,1
20,65.63,71.49,1
87,66.05,71.65,1
53,65.79,71.46,1
14,64.76,70.89,1
48,64.42,70.66,1
56,64.25,70.51,1
97,64.91,70.78,1
74,65.09,70.81,1
44,64.67,70.54,1
18,63.73,70.02,1
57,63.60,69.89,1
26,62.85,69.45,1
72,63.03,69.47,1
128,64.33,70.06,1
41,63.86,69.77,1
132,65.23,70.39,1
144,66.80,71.13,1
180,69.07,72.21,1
79,69.26,72.28,1
47,68.82,72.03,1
96,69.36,72.27,1
128,70.54,72.83,1
51,70.14,72.61,1
153,71.80,73.41,1
33,71.03,73.01,1
167,72.94,73.95,1
73,72.95,73.94,1
35,72.19,73.55,1
178,74.30,74.59,1
42,73.66,74.27,1
121,74.60,74.73,1
107,75.25,75.06,1
138,76.51,75.69,1
71,76.40,75.64,1
76,76.39,75.64,1
24,75.34,75.13,1
30,74.43,74.68,1
208,77.11,76.01,1
246,80.48,77.71,1
261,84.09,79.54,1
145,85.31,80.20,1
25,84.11,79.64,1
73,83.88,79.58,1
218,86.57,80.96,1
204,88.91,82.19,1
290,92.94,84.27,1
39,91.86,83.82,1
227,94.56,85.25,1
98,94.63,85.38,1
76,94.26,85.28,1
45,93.27,84.88,1
57,92.55,84.60,1
53,91.76,84.29,1
134,92.60,84.78,1
36,91.47,84.29,1
86,91.36,84.31,1
194,93.41,85.41,1
101,93.56,85.56,1
166,95.01,86.37,1
76,94.63,86.27,1
143,95.60,86.83,1
49,94.67,86.45,1
152,95.81,87.11,1
69,95.28,86.93,1
83,95.03,86.89,1
148,96.09,87.50,1
21,94.59,86.84,1
38,93.46,86.35,1
26,92.11,85.74,1
44,91.15,85.33,1
22,89.76,84.69,1
98,89.93,84.83,1
82,89.77,84.80,1
256,93.09,86.51,1
92,93.07,86.56,1
120,93.61,86.90,1
363,99.00,89.66,1
76,98.54,89.52,1
118,98.93,89.81,1
79,98.53,89.70,1
54,97.64,89.34,1
256,100.81,91.01,1
117,101.13,91.27,1
65,100.41,91.01,1
60,99.60,90.70,1
356,104.73,93.35,1
284,108.31,95.26,1
165,109.45,95.95,1
31,107.88,95.30,1
161,108.94,95.96,1
285,112.46,97.85,1
122,112.65,98.09,1
140,113.20,98.51,1
242,115.77,99.95,1
38,114.22,99.33,1
277,117.48,101.10,1
154,118.21,101.63,1
363,123.10,104.25,1
132,123.28,104.52,1
41,121.63,103.89,1
142,122.04,104.27,1
20,120.00,103.43,1
112,119.84,103.51,1
16,117.76,102.64,1
262,120.65,104.23,1
94,120.12,104.13,1
38,118.47,103.47,1
194,119.98,104.37,1
43,118.44,103.76,1
91,117.90,103.63,1
175,119.04,104.35,1
66,117.98,103.96,1
19,116.00,103.11,1
213,117.94,104.21,1
122,118.02,104.39,1
146,118.58,104.81,1
155,119.31,105.31,1
291,122.74,107.16,1
161,123.51,107.70,1
151,124.06,108.14,1
32,122.21,107.37,1
521,130.19,111.51,1
170,130.99,112.10,1
202,132.41,112.99,1
79,131.34,112.65,1
102,130.75,112.55,1
24,128.62,111.66,1
38,126.80,110.93,1
34,124.95,110.16,1
324,128.93,112.30,1
143,129.21,112.60,1
153,129.69,113.01,1
143,129.95,113.31,1
111,129.57,113.28,1
483,136.64,116.98,1
211,138.13,117.92,1
29,135.95,117.03,1
75,134.73,116.61,1
79,133.61,116.24,1
344,137.82,118.51,1
104,137.14,118.37,1
75,135.90,117.93,1
27,133.72,117.02,1
224,135.53,118.09,1
74,134.30,117.65,1
76,133.13,117.24,1
422,138.91,120.28,1
104,138.21,120.12,1
22,135.89,119.14,1
128,135.73,119.23,1
240,137.82,120.44,1
258,140.22,121.81,1
172,140.85,122.31,1
107,140.18,122.16,1
27,137.91,121.21,1
251,140.18,122.51,1
30,137.97,121.58,1
41,136.03,120.78,1
28,133.87,119.85,1
38,131.95,119.03,1
104,131.40,118.88,1
175,132.27,119.44,1
118,131.98,119.43,1
268,134.70,120.91,1
61,133.23,120.31,1
35,131.26,119.46,1
24,129.12,118.51,1
66,127.86,117.98,1
31,125.92,117.11,1
327,129.94,119.21,1
162,130.58,119.64,1
47,128.91,118.91,1
150,129.33,119.22,1
98,128.71,119.01,1
151,129.15,119.33,1
37,127.31,118.51,1
62,126.00,117.94,1
62,124.72,117.38,1
76,123.75,116.97,1
133,123.93,117.13,1
283,127.11,118.79,1
24,125.05,117.84,1
11,122.77,116.77,1
371,127.74,119.31,1
266,130.50,120.78,1
108,130.05,120.65,1
61,128.67,120.06,1
396,134.02,122.82,1
60,132.54,122.19,1
239,134.67,123.36,1
70,133.37,122.82,1
75,132.20,122.34,1
221,133.98,123.33,1
77,132.84,122.87,1
98,132.14,122.62,1
280,135.10,124.19,1
480,142.00,127.75,1
565,150.46,132.12,1
19,147.83,130.99,1
167,148.21,131.35,1
181,148.87,131.85,1
247,150.83,133.00,1
141,150.64,133.08,1
281,153.24,134.56,1
212,154.42,135.33,1
51,152.35,134.49,1
221,153.72,135.35,1
355,157.75,137.55,1
72,156.03,136.90,1
27,153.45,135.80,1
292,156.22,137.36,1
136,155.82,137.35,1
161,155.92,137.58,1
60,154.00,136.81,1
300,156.92,138.44,1
218,158.15,139.23,1
38,155.74,138.22,1
20,153.03,137.04,1
20,150.37,135.87,1
201,151.38,136.52,1
273,153.81,137.88,1
294,156.62,139.45,1
56,154.60,138.61,1
162,154.75,138.85,1
46,152.58,137.92,1
222,153.96,138.76,1
319,157.27,140.56,1
228,158.68,141.43,1
366,162.83,143.68,1
63,160.83,142.87,1
62,158.85,142.06,1
15,155.98,140.79,1
54,153.94,139.93,1
119,153.24,139.72,1
267,155.51,140.99,1
20,152.80,139.78,1
179,153.33,140.17,1
80,151.86,139.57,1
88,150.58,139.05,1
176,151.09,139.42,1
37,148.81,138.40,1
165,149.13,138.67,1
31,146.77,137.59,1
21,144.26,136.42,1
152,144.41,136.58,1
57,142.66,135.78,1
117,142.15,135.60,1
182,142.95,136.06,1
182,143.73,136.52,1
131,143.47,136.46,1
199,144.58,137.09,1
203,145.75,137.75,1
70,144.24,137.07,1
232,145.99,138.02,1
172,146.51,138.36,1
75,145.08,137.73,1
22,142.62,136.57,1
3,139.83,135.23,1
365,144.33,137.53,1
552,152.48,141.68,1
374,156.91,144.00,1
94,155.66,143.50,1
165,155.84,143.71,1
76,154.25,143.04,1
61,152.38,142.22,1
105,151.43,141.84,1
23,148.87,140.66,1
100,147.89,140.25,1
131,147.55,140.16,1
158,147.76,140.34,1
90,146.60,139.83,1
227,148.21,140.70,1
194,149.13,141.24,1
160,149.35,141.42,1
23,146.82,140.24,1
533,154.54,144.17,1
115,153.75,143.88,1
116,153.00,143.60,1
249,154.92,144.65,1
253,156.88,145.73,1
59,154.92,144.87,1
372,159.26,147.14,1
27,156.62,145.94,1
79,155.06,145.27,1
224,156.44,146.05,1
278,158.87,147.37,1
28,156.26,146.18,1
22,153.57,144.94,1
169,153.88,145.18,1
288,156.56,146.61,1
27,153.97,145.41,1
91,152.71,144.87,1
79,151.24,144.21,1
90,150.01,143.67,1
76,148.53,142.99,1
105,147.66,142.61,1
143,147.57,142.61,1
114,146.90,142.33,1
275,149.46,143.65,1
33,147.13,142.55,1
223,148.65,143.35,1
233,150.33,144.25,1
54,148.41,143.35,1
197,149.38,143.88,1
52,147.43,142.96,1
135,147.18,142.88,1
10,144.44,141.56,1
216,145.87,142.30,1
214,147.23,143.02,1
239,149.07,143.98,1
113,148.35,143.67,1
528,155.94,147.51,1
455,161.92,150.59,1
353,165.74,152.61,1
443,171.29,155.51,1
526,178.38,159.22,1
195,178.72,159.58,1
53,176.20,158.51,1
19,173.06,157.12,1
328,176.16,158.82,1
504,182.71,162.28,1
626,191.58,166.91,1
228,192.31,167.52,1
293,194.32,168.78,1
655,203.53,173.64,1
462,208.70,176.52,1
756,219.65,182.32,1
602,227.30,186.52,1
838,239.51,193.03,1
165,238.02,192.75,1
363,240.52,194.45,1
748,250.67,199.99,1
623,258.12,204.22,1
300,258.95,205.18,1
145,256.67,204.57,1
647,264.48,209.00,1
482,268.83,211.73,1
351,270.48,213.12,1
143,267.93,212.42,1
103,264.63,211.33,1
383,266.99,213.04,1
297,267.59,213.88,1
98,264.20,212.72,1
668,272.28,217.28,1
152,269.87,216.62,1
126,267.00,215.72,1
485,271.36,218.41,1
168,269.29,217.91,1
832,280.54,224.05,1
947,293.87,231.28,1
491,297.81,233.87,1
29,292.44,231.83,1
419,294.97,233.70,1
222,293.51,233.58,1
102,289.68,232.26,1
220,288.29,232.14,1
117,284.86,230.99,1
24,279.64,228.92,1
429,282.63,230.92,1
142,279.82,230.03,1
624,286.70,233.97,1
28,281.53,231.91,1
140,278.70,230.99,1
28,273.68,228.96,1
10,268.41,226.77,1
26,263.56,224.77,1
494,268.17,227.46,1
372,270.25,228.90,1
79,266.42,227.40,1
462,270.33,229.75,1
854,282.01,235.99,1
209,280.55,235.72,1
51,275.96,233.88,1
71,271.86,232.25,1
440,275.22,234.32,1
432,278.35,236.30,1
178,276.35,235.72,1
408,278.98,237.44,1
235,278.10,237.42,1
136,275.26,236.40,1
520,280.15,239.24,1
83,276.21,237.68,1
544,281.57,240.74,1
115,278.24,239.48,1
27,273.21,237.36,1
149,270.73,236.47,1
622,277.75,240.33,1
230,276.80,240.23,1
154,274.34,239.36,1
583,280.51,242.80,1
839,291.68,248.76,1
1023,306.31,256.50,1
335,306.88,257.29,1
681,314.37,261.53,1
1023,328.54,269.14,1
1023,342.43,276.68,1
295,341.48,276.86,1
355,341.75,277.64,1
483,344.58,279.70,1
438,346.44,281.28,1
319,345.89,281.66,1
219,343.36,281.03,1
477,346.03,282.99,1
153,342.17,281.69,1
153,338.39,280.40,1
562,342.86,283.22,1
631,348.62,286.70,1
38,342.41,284.21,1
750,350.56,288.87,1
354,350.63,289.52,1
233,348.28,288.95,1
480,350.91,290.87,1
587,355.63,293.83,1
617,360.86,297.06,1
655,366.74,300.64,1
453,368.47,302.16,1
125,363.60,300.39,1
261,361.55,300.00,1
233,358.98,299.33,1
663,365.06,302.96,1
922,376.20,309.15,1
25,369.17,306.31,1
412,370.03,307.37,1
355,369.73,307.84,1
231,366.95,307.08,1
345,366.51,307.46,1
277,364.72,307.15,1
444,366.31,308.52,1
656,372.10,311.99,1
667,378.00,315.54,1
111,372.66,313.50,1
266,370.53,313.02,1
623,375.58,316.12,1
1023,388.53,323.19,1
1023,401.22,330.19,1
285,398.89,329.74,1
401,398.93,330.45,1
1023,411.41,337.38,1
782,418.83,341.82,1
544,421.33,343.84,1
126,415.42,341.67,1
273,412.57,340.98,1
920,422.72,346.77,1
1023,434.73,353.53,1
1023,446.49,360.23,1
305,443.66,359.67,1
760,449.99,363.68,1
557,452.13,365.61,1
185,446.79,363.81,1
110,440.05,361.27,1
247,436.19,360.12,1
195,431.37,358.47,1
305,428.84,357.94,1
224,424.74,356.60,1
626,428.77,359.29,1
1023,440.65,365.93,1
742,446.68,369.69,1
728,452.31,373.27,1
296,449.18,372.50,1
66,441.52,369.44,1
338,439.45,369.12,1
410,438.86,369.53,1
664,443.36,372.48,1
564,445.77,374.39,1
181,440.48,372.46,1
498,441.63,373.71,1
779,448.38,377.77,1
389,447.19,377.88,1
515,448.54,379.25,1
692,453.41,382.38,1
291,450.17,381.46,1
153,444.22,379.18,1
19,435.72,375.58,1
220,431.40,374.02,1
172,426.22,372.00,1
30,418.29,368.58,1
162,413.17,366.51,1
16,405.22,363.01,1
214,401.40,361.52,1
105,395.47,358.95,1
36,388.28,355.72,1
92,382.35,353.09,1
0,374.71,349.56,1
62,368.45,346.68,1
75,362.58,343.96,1
151,358.35,342.03,1
94,353.07,339.55,1
226,350.52,338.42,1
184,347.19,336.87,1
102,342.29,334.53,1
218,339.80,333.36,1
652,346.05,336.55,1
77,340.67,333.95,1
137,336.59,331.98,1
101,331.88,329.67,1
266,330.56,329.04,1
177,327.49,327.51,2
246,325.86,326.70,2
23,319.81,323.66,2
308,319.57,323.51,2
0,313.18,320.27,2
60,308.11,317.67,2
72,303.39,315.21,2
147,300.26,313.53,2
79,295.84,311.18,2
13,290.18,308.20,2
18,284.74,305.30,2
62,280.28,302.87,2
8,274.84,299.92,2
6,269.46,296.98,2
33,264.73,294.34,2
107,261.58,292.47,2
46,257.27,290.00,2
54,253.20,287.64,2
27,248.68,285.04,2
11,243.92,282.29,2
29,239.62,279.76,2
44,235.71,277.40,2
6,231.12,274.69,2
78,228.06,272.72,2
1,223.51,270.01,2
22,219.48,267.53,2
13,215.35,264.98,2
59,212.23,262.92,2
64,209.26,260.93,2
4,205.16,258.36,2
18,201.41,255.96,2
79,198.97,254.19,2
128,197.55,252.93,2
87,195.34,251.27,2
1,191.45,248.77,2
2,187.66,246.30,2
114,186.19,244.97,2
19,182.84,242.72,2
40,179.99,240.69,2
24,176.87,238.52,2
76,174.85,236.90,2
16,171.67,234.69,2
104,170.32,233.38,2
41,167.73,231.46,2
113,166.64,230.27,2
89,165.09,228.86,2
73,163.24,227.30,2
41,160.80,225.44,2
146,160.50,224.64,2
124,159.77,223.64,2
221,161.00,223.61,2
21,158.20,221.58,2
217,159.37,221.54,2
150,159.19,220.82,2
20,156.40,218.81,2
58,154.43,217.21,2
165,154.65,216.68,2
157,154.69,216.09,2
58,152.76,214.51,2
51,150.72,212.87,2
8,147.87,210.82,2
0,144.91,208.71,2
75,143.51,207.38,2
58,141.80,205.88,2
99,140.95,204.81,2
35,138.83,203.12,2
40,136.85,201.49,2
38,134.87,199.85,2
108,134.34,198.93,2
72,133.09,197.66,2
147,133.37,197.16,2
68,132.06,195.86,2
12,129.66,194.03,2
7,127.21,192.16,2
31,125.28,190.54,2
85,124.48,189.49,2
93,123.85,188.52,2
63,122.63,187.27,2
45,121.08,185.85,2
12,118.90,184.11,2
62,117.76,182.89,2
31,116.02,181.37,2
30,114.30,179.85,2
74,113.50,178.80,2
90,113.03,177.91,2
175,114.27,177.88,2
11,112.20,176.21,2
149,112.94,175.94,2
2,110.72,174.20,2
64,109.78,173.10,2
21,108.01,171.58,2
46,106.77,170.32,2
74,106.11,169.36,2
107,106.13,168.73,2
9,104.19,167.14,2
52,103.14,165.98,2
66,102.40,164.98,2
86,102.07,164.19,2
5,100.13,162.60,2
6,98.25,161.04,2
8,96.44,159.51,2
69,95.90,158.60,2
23,94.44,157.25,2
19,92.93,155.86,2
0,91.07,154.30,2
5,89.35,152.81,2
19,87.94,151.47,2
5,86.28,150.01,2
11,84.78,148.62,2
24,83.56,147.37,2
66,83.21,146.56,2
240,86.35,147.49,2
111,86.84,147.13,2
16,85.42,145.82,2
164,86.99,146.00,2
66,86.57,145.20,2
28,85.40,144.03,2
32,84.33,142.91,2
9,82.83,141.57,2
55,82.27,140.70,2
44,81.51,139.73,2
17,80.22,138.51,2
75,80.11,137.87,2
34,79.19,136.83,2
41,78.43,135.87,2
41,77.68,134.93,2
4,76.20,133.62,2
24,75.16,132.52,2
56,74.78,131.76,2
66,74.60,131.10,2
60,74.31,130.39,2
41,73.64,129.49,2
4,72.25,128.24,2
78,72.36,127.74,2
24,71.40,126.70,2
89,71.75,126.32,2
20,70.71,125.26,2
13,69.56,124.14,2
24,68.65,123.13,2
33,67.94,122.23,2
18,66.94,121.19,2
31,66.22,120.29,2
56,66.01,119.65,2
5,64.79,118.50,2
98,65.46,118.29,2
8,64.31,117.19,2
23,63.48,116.25,2
51,63.23,115.60,2
33,62.63,114.77,2
30,61.98,113.92,2
21,61.16,112.99,2
36,60.65,112.22,2
65,60.74,111.75,2
26,60.05,110.89,2
9,59.02,109.88,2
77,59.38,109.55,2
56,59.32,109.01,2
118,60.49,109.10,2
29,59.86,108.30,2
10,58.86,107.32,2
12,57.93,106.36,2
43,57.63,105.73,2
41,57.29,105.08,2
165,59.45,105.68,2
99,60.24,105.62,2
23,59.49,104.79,2
79,59.89,104.53,2
32,59.33,103.81,2
5,58.24,102.82,2
6,57.20,101.85,2
6,56.17,100.89,2
77,56.59,100.65,2
57,56.60,100.22,2
60,56.66,99.81,2
9,55.71,98.91,2
74,56.08,98.66,2
8,55.12,97.75,2
17,54.35,96.94,2
27,53.81,96.24,2
63,53.99,95.91,2
42,53.75,95.37,2
123,55.14,95.65,2
82,55.67,95.51,2
24,55.04,94.80,2
34,54.62,94.19,2
38,54.29,93.63,2
12,53.44,92.81,2
28,52.93,92.16,2
97,53.81,92.21,2
32,53.38,91.61,2
22,52.75,90.91,2
30,52.29,90.30,2
48,52.21,89.88,2
42,52.00,89.40,2
31,51.58,88.82,2
9,50.73,88.02,2
35,50.42,87.49,2
67,50.75,87.28,2
10,49.93,86.51,2
59,50.12,86.24,2
66,50.43,86.03,2
26,49.94,85.43,2
18,49.31,84.76,2
20,48.72,84.11,2
32,48.39,83.59,2
18,47.78,82.93,2
45,47.72,82.55,2
17,47.11,81.90,2
34,46.85,81.42,2
18,46.27,80.79,2
10,45.54,80.08,2
32,45.27,79.60,2
16,44.69,78.96,2
33,44.45,78.50,2
7,43.70,77.79,2
47,43.77,77.48,2
11,43.11,76.81,2
52,43.29,76.57,2
6,42.55,75.86,2
49,42.68,75.59,2
9,42.00,74.93,2
57,42.30,74.75,2
0,41.46,74.00,2
15,40.93,73.41,2
76,41.63,73.44,2
9,40.98,72.79,2
12,40.40,72.18,2
15,39.89,71.61,2
36,39.81,71.25,2
82,40.65,71.36,2
65,41.14,71.30,2
35,41.02,70.94,2
32,40.84,70.55,2
10,40.22,69.94,2
43,40.28,69.67,2
88,41.23,69.85,2
28,40.97,69.44,2
2,40.19,68.76,2
16,39.70,68.23,2
11,39.13,67.66,2
15,38.65,67.14,2
46,38.79,66.92,2
94,39.90,67.19,2
101,41.12,67.53,2
8,40.46,66.94,2
19,40.03,66.46,2
16,39.55,65.95,2
9,38.94,65.38,2
128,40.72,66.01,2
106,42.02,66.41,2
21,41.60,65.96,2
22,41.21,65.52,2
57,41.53,65.43,2
70,42.10,65.48,2
110,43.45,65.92,2
125,45.09,66.51,2
23,44.64,66.08,2
15,44.05,65.57,2
77,44.71,65.68,2
214,48.10,67.16,2
93,48.99,67.42,2
28,48.57,67.03,2
17,47.94,66.53,2
12,47.22,65.98,2
47,47.22,65.79,2
137,49.01,66.51,2
12,48.27,65.96,2
31,47.93,65.61,2
20,47.37,65.15,2
59,47.60,65.09,2
31,47.27,64.75,2
153,49.39,65.63,2
1,48.42,64.99,2
12,47.69,64.46,2
191,50.56,65.72,2
10,49.74,65.17,2
97,50.69,65.48,2
174,53.16,66.57,2
42,52.93,66.32,2
90,53.67,66.56,2
89,54.38,66.79,2
150,56.29,67.62,2
17,55.51,67.11,2
108,56.56,67.52,2
20,55.83,67.05,2
37,55.45,66.74,2
89,56.12,66.97,2
69,56.38,66.99,2
40,56.05,66.72,2
84,56.61,66.89,2
63,56.74,66.85,2
68,56.96,66.86,2
29,56.40,66.48,2
60,56.48,66.42,2
15,55.65,65.91,2
64,55.81,65.89,2
186,58.42,67.09,2
149,60.23,67.91,2
27,59.56,67.50,2
42,59.21,67.24,2
5,58.13,66.62,2
190,60.77,67.85,2
337,66.29,70.55,2
131,67.58,71.15,2
22,66.67,70.66,2
192,69.18,71.87,2
119,70.18,72.34,2
78,70.33,72.40,2
146,71.85,73.14,2
22,70.85,72.62,2
52,70.47,72.42,2
37,69.80,72.06,2
164,71.69,72.98,2
62,71.49,72.87,2
88,71.82,73.02,2
39,71.17,72.68,2
20,70.14,72.16,2
20,69.14,71.64,2
98,69.72,71.90,2
83,69.98,72.01,2
20,68.98,71.49,2
22,68.04,71.00,2
38,67.44,70.67,2
46,67.01,70.42,2
134,68.35,71.05,2
21,67.41,70.55,2
74,67.54,70.59,2
122,68.63,71.10,2
139,70.04,71.78,2
33,69.29,71.39,2
41,68.73,71.09,2
46,68.27,70.84,2
81,68.53,70.94,2
135,69.86,71.58,2
68,69.82,71.55,2
93,70.28,71.76,2
136,71.60,72.40,2
64,71.45,72.32,2
43,70.88,72.03,2
87,71.20,72.18,2
150,72.78,72.95,2
177,74.86,73.99,2
27,73.90,73.52,2
57,73.57,73.36,2
75,73.59,73.38,2
69,73.50,73.33,2
79,73.61,73.39,2
48,73.10,73.13,2
90,73.44,73.30,2
20,72.37,72.77,2
74,72.40,72.78,2
22,71.39,72.27,2
14,70.25,71.69,2
152,71.88,72.49,2
51,71.46,72.28,2
39,70.81,71.95,2
57,70.54,71.80,2
19,69.51,71.27,2
57,69.26,71.13,2
102,69.91,71.44,2
144,71.39,72.16,2
250,74.97,73.94,2
161,76.69,74.81,2
47,76.09,74.53,2
91,76.39,74.70,2
139,77.64,75.34,2
170,79.49,76.29,2
144,80.78,76.96,2
44,80.04,76.63,2
12,78.68,75.99,2
30,77.71,75.53,2
60,77.36,75.37,2
184,79.49,76.46,2
103,79.96,76.72,2
26,78.88,76.22,2
17,77.64,75.62,2
68,77.45,75.55,2
30,76.50,75.09,2
18,75.33,74.52,2
24,74.30,74.02,2
21,73.24,73.49,2
126,74.29,74.01,2
16,73.13,73.43,2
14,71.94,72.84,2
59,71.69,72.70,2
87,71.99,72.84,2
31,71.17,72.42,2
119,72.13,72.89,2
190,74.49,74.06,2
27,73.54,73.59,2
87,73.81,73.72,2
45,73.23,73.44,2
70,73.16,73.40,2
195,75.60,74.62,2
141,76.91,75.28,2
111,77.59,75.64,2
27,76.58,75.15,2
37,75.79,74.77,2
61,75.49,74.63,2
68,75.34,74.57,2
104,75.92,74.86,2
87,76.14,74.98,2
25,75.11,74.48,2
77,75.15,74.51,2
131,76.27,75.07,2
21,75.16,74.53,2
37,74.40,74.16,2
33,73.57,73.75,2
68,73.46,73.69,2
86,73.71,73.81,2
56,73.36,73.63,2
20,72.29,73.10,2
10,71.04,72.47,2
112,71.86,72.86,2
139,73.21,73.52,2
15,72.04,72.94,2
27,71.14,72.48,2
35,70.42,72.10,2
96,70.93,72.34,2
43,70.37,72.05,2
86,70.68,72.19,2
44,70.15,71.91,2
164,72.03,72.83,2
32,71.23,72.42,2
63,71.06,72.32,2
68,71.00,72.28,2
74,71.06,72.30,2
25,70.14,71.83,2
40,69.54,71.51,2
35,68.85,71.14,2
92,69.31,71.35,2
18,68.28,70.82,2
30,67.52,70.41,2
30,66.77,70.01,2
38,66.19,69.69,2
46,65.79,69.45,2
26,64.99,69.01,2
18,64.05,68.50,2
128,65.33,69.10,2
26,64.54,68.67,2
45,64.15,68.43,2
70,64.27,68.45,2
68,64.35,68.44,2
40,63.86,68.16,2
50,63.58,67.98,2
66,63.63,67.96,2
38,63.12,67.66,2
92,63.69,67.90,2
172,65.86,68.94,2
76,66.06,69.01,2
68,66.10,69.00,2
83,66.44,69.14,2
75,66.61,69.20,2
40,66.08,68.91,2
80,66.36,69.02,2
21,65.45,68.54,2
46,65.06,68.31,2
114,66.04,68.77,2
141,67.54,69.49,2
28,66.75,69.08,2
47,66.35,68.86,2
27,65.57,68.44,2
105,66.36,68.80,2
160,68.23,69.72,2
78,68.42,69.80,2
41,67.88,69.51,2
32,67.16,69.14,2
73,67.27,69.17,2
76,67.45,69.24,2
141,68.92,69.96,2
32,68.18,69.58,2
32,67.46,69.21,2
81,67.73,69.32,2
62,67.61,69.25,2
42,67.10,68.98,2
31,66.38,68.60,2
56,66.17,68.47,2
26,65.37,68.05,2
32,64.70,67.69,2
115,65.71,68.16,2
142,67.23,68.90,2
56,67.01,68.77,2
116,67.99,69.24,2
119,69.01,69.74,2
40,68.43,69.44,2
117,69.40,69.92,2
92,69.85,70.14,2
29,69.04,69.73,2
21,68.07,69.24,2
152,69.75,70.07,2
110,70.56,70.47,2
77,70.69,70.53,2
27,69.81,70.10,2
34,69.10,69.74,2
115,70.01,70.19,2
111,70.83,70.60,2
156,72.54,71.45,2
35,71.79,71.09,2
119,72.73,71.56,2
43,72.14,71.28,2
49,71.67,71.06,2
68,71.60,71.03,2
94,72.05,71.26,2
42,71.45,70.96,2
139,72.80,71.64,2
110,73.54,72.03,2
147,75.01,72.78,2
53,74.57,72.58,2
27,73.62,72.12,2
118,74.51,72.58,2
41,73.84,72.27,2
165,75.66,73.19,2
55,75.25,73.01,2
24,74.22,72.52,2
79,74.32,72.59,2
75,74.33,72.61,2
58,74.01,72.46,2
126,75.04,73.00,2
29,74.12,72.56,2
27,73.18,72.10,2
66,73.04,72.04,2
70,72.98,72.02,2
90,73.32,72.20,2
23,72.31,71.71,2
32,71.51,71.31,2
174,73.56,72.34,2
150,75.08,73.12,2
92,75.42,73.31,2
77,75.45,73.34,2
79,75.52,73.40,2
50,75.01,73.16,2
39,74.29,72.82,2
56,73.93,72.65,2
106,74.57,72.99,2
19,73.46,72.45,2
17,72.33,71.89,2
22,71.32,71.40,2
31,70.52,70.99,2
10,69.31,70.38,2
138,70.68,71.06,2
31,69.89,70.66,2
33,69.15,70.28,2
94,69.65,70.52,2
37,68.99,70.18,2
24,68.09,69.72,2
30,67.33,69.32,2
18,66.34,68.81,2
29,65.60,68.41,2
98,66.25,68.71,2
68,66.28,68.70,2
27,65.49,68.28,2
47,65.12,68.07,2
70,65.22,68.09,2
22,64.36,67.63,2
39,63.85,67.34,2
53,63.63,67.20,2
68,63.72,67.21,2
128,65.01,67.82,2
75,65.21,67.89,2
40,64.70,67.61,2
57,64.55,67.50,2
68,64.62,67.51,2
24,63.80,67.07,2
16,62.85,66.56,2
29,62.17,66.19,2
18,61.29,65.70,2
34,60.74,65.39,2
58,60.69,65.31,2
49,60.45,65.15,2
61,60.47,65.11,2
34,59.94,64.80,2
70,60.14,64.85,2
27,59.47,64.47,2
10,58.48,63.93,2
240,62.12,65.69,2
101,62.89,66.04,2
107,63.77,66.45,2
28,63.06,66.07,2
40,62.60,65.80,2
73,62.81,65.88,2
51,62.57,65.73,2
109,63.50,66.16,2
143,65.09,66.93,2
38,64.55,66.64,2
43,64.12,66.40,2
53,63.89,66.27,2
58,63.78,66.19,2
172,65.94,67.24,2
31,65.24,66.88,2
44,64.82,66.65,2
21,63.94,66.20,2
86,64.38,66.39,2
78,64.65,66.51,2
143,66.22,67.28,2
98,66.86,67.58,2
39,66.30,67.30,2
123,67.43,67.85,2
85,67.78,68.03,2
127,68.97,68.62,2
240,72.39,70.33,2
65,72.24,70.28,2
35,71.50,69.92,2
205,74.17,71.27,2
238,77.44,72.94,2
173,79.35,73.94,2
24,78.25,73.44,2
53,77.74,73.24,2
87,77.93,73.38,2
192,80.21,74.56,2
136,81.33,75.18,2
100,81.70,75.42,2
41,80.88,75.08,2
113,81.53,75.46,2
155,83.00,76.25,2
46,82.26,75.95,2
79,82.19,75.98,2
15,80.85,75.37,2
20,79.63,74.82,2
177,81.58,75.84,2
50,80.95,75.58,2
84,81.01,75.67,2
27,79.93,75.18,2
38,79.09,74.81,2
57,78.65,74.63,2
103,79.13,74.91,2
43,78.41,74.59,2
25,77.34,74.10,2
55,76.90,73.91,2
108,77.52,74.25,2
69,77.35,74.20,2
143,78.66,74.88,2
274,82.57,76.88,2
156,84.04,77.67,2
52,83.40,77.41,2
28,82.29,76.92,2
119,83.02,77.34,2
95,83.26,77.51,2
217,85.94,78.91,2
195,88.12,80.07,2
107,88.50,80.34,2
33,87.39,79.87,2
20,86.04,79.27,2
82,85.96,79.29,2
70,85.64,79.20,2
17,84.27,78.58,2
38,83.34,78.17,2
188,85.43,79.27,2
41,84.54,78.89,2
71,84.27,78.81,2
66,83.91,78.68,2
316,88.55,81.05,2
103,88.84,81.27,2
39,87.84,80.85,2
17,86.43,80.21,2
79,86.28,80.20,2
158,87.71,80.98,2
72,87.40,80.89,2
17,85.99,80.25,2
69,85.65,80.14,2
87,85.68,80.21,2
119,86.34,80.59,2
213,88.88,81.92,2
203,91.16,83.13,2
222,93.78,84.52,2
23,92.36,83.90,2
118,92.87,84.24,2
322,97.46,86.62,2
154,98.59,87.30,2
80,98.21,87.22,2
103,98.31,87.38,2
25,96.84,86.76,2
66,96.23,86.55,2
137,97.04,87.05,2
14,95.38,86.32,2
69,94.85,86.15,2
35,93.66,85.64,2
60,92.98,85.38,2
125,93.62,85.78,2
92,93.59,85.84,2
42,92.56,85.40,2
313,96.97,87.68,2
124,97.51,88.04,2
191,99.38,89.07,2
351,104.41,91.69,2
37,103.06,91.14,2
56,102.12,90.79,2
297,106.02,92.85,2
195,107.80,93.87,2
47,106.58,93.41,2
21,104.87,92.68,2
90,104.57,92.66,2
207,106.62,93.80,2
112,106.73,93.98,2
200,108.60,95.04,2
58,107.58,94.67,2
66,106.75,94.38,2
117,106.96,94.61,2
79,106.40,94.45,2
14,104.55,93.65,2
97,104.40,93.68,2
177,105.85,94.52,2
25,104.23,93.82,2
5,102.25,92.93,2
129,102.78,93.29,2
132,103.37,93.68,2
89,103.08,93.63,2
41,101.84,93.11,2
31,100.42,92.49,2
29,98.99,91.85,2
18,97.37,91.11,2
234,100.11,92.54,2
141,100.92,93.03,2
259,104.09,94.69,2
147,104.94,95.21,2
10,103.05,94.36,2
95,102.88,94.36,2
116,103.15,94.58,2
25,101.58,93.88,2
89,101.33,93.84,2
77,100.85,93.67,2
269,104.21,95.42,2
126,104.64,95.73,2
17,102.89,94.94,2
252,105.87,96.51,2
81,105.38,96.35,2
131,105.89,96.70,2
251,108.79,98.24,2
52,107.66,97.78,2
82,107.14,97.62,2
85,106.70,97.50,2
42,105.41,96.94,2
254,108.38,98.51,2
28,106.77,97.81,2
250,109.63,99.33,2
36,108.16,98.70,2
28,106.56,97.99,2
143,107.29,98.44,2
15,105.44,97.61,2
221,107.75,98.84,2
57,106.74,98.42,2
0,104.60,97.44,2
12,102.75,96.58,2
256,105.82,98.18,2
215,108.00,99.34,2
182,109.48,100.17,2
57,108.43,99.74,2
71,107.68,99.45,2
324,112.01,101.70,2
410,117.97,104.78,2
113,117.87,104.86,2
191,119.33,105.72,2
201,120.96,106.68,2
257,123.68,108.18,2
69,122.59,107.79,2
28,120.70,106.99,2
149,121.27,107.41,2
136,121.56,107.70,2
471,128.55,111.33,2
145,128.88,111.67,2
212,130.54,112.67,2
360,135.13,115.14,2
95,134.33,114.94,2
292,137.48,116.71,2
69,136.11,116.23,2
79,134.97,115.86,2
240,137.07,117.10,2
222,138.77,118.15,2
141,138.81,118.38,2
76,137.56,117.96,2
79,136.39,117.57,2
17,134.00,116.56,2
159,134.50,116.99,2
241,136.63,118.23,2
31,134.52,117.35,2
72,133.26,116.90,2
55,131.70,116.28,2
226,133.59,117.38,2
369,138.29,119.90,2
42,136.37,119.12,2
30,134.24,118.23,2
18,131.92,117.22,2
70,130.68,116.75,2
161,131.28,117.19,2
44,129.54,116.46,2
101,128.97,116.31,2
174,129.87,116.88,2
150,130.27,117.21,2
264,132.95,118.68,2
139,133.07,118.89,2
195,134.31,119.65,2
169,135.00,120.14,2
219,136.68,121.13,2
106,136.07,120.98,2
58,134.50,120.35,2
496,141.73,124.10,2
42,139.74,123.28,2
299,142.92,125.04,2
174,143.55,125.53,2
94,142.56,125.21,2
222,144.14,126.18,2
31,141.88,125.23,2
156,142.16,125.54,2
12,139.56,124.40,2
400,144.77,127.16,2
206,145.99,127.95,2
66,144.39,127.33,2
146,144.43,127.51,2
60,142.74,126.84,2
342,146.72,128.99,2
46,144.71,128.16,2
216,146.13,129.04,2
331,149.83,131.06,2
317,153.17,132.92,2
145,153.01,133.04,2
15,150.25,131.86,2
79,148.83,131.33,2
249,150.83,132.51,2
127,150.35,132.45,2
464,156.63,135.77,2
131,156.11,135.72,2
43,153.85,134.79,2
50,151.77,133.94,2
612,160.98,138.73,2
234,162.44,139.68,2
30,159.79,138.58,2
62,157.83,137.82,2
269,160.06,139.13,2
198,160.82,139.72,2
291,163.42,141.23,2
109,162.33,140.91,2
192,162.93,141.42,2
93,161.53,140.93,2
61,159.52,140.13,2
175,159.83,140.48,2
112,158.87,140.20,2
346,162.61,142.26,2
40,160.16,141.23,2
47,157.90,140.29,2
77,156.28,139.66,2
280,158.75,141.06,2
539,166.36,145.04,2
286,168.75,146.45,2
239,170.16,147.38,2
139,169.53,147.29,2
155,169.24,147.37,2
28,166.42,146.18,2
25,163.59,144.96,2
268,165.68,146.19,2
486,172.08,149.59,2
707,182.78,155.17,2
25,179.63,153.86,2
46,176.95,152.79,2
138,176.17,152.64,2
621,185.07,157.32,2
375,188.87,159.50,2
109,187.27,158.99,2
22,183.97,157.62,2
157,183.43,157.62,2
36,180.48,156.40,2
329,183.45,158.13,2
573,191.24,162.28,2
20,187.82,160.85,2
78,185.62,160.02,2
368,189.27,162.10,2
136,188.20,161.84,2
562,195.68,165.85,2
189,195.54,166.08,2
31,192.25,164.73,2
284,194.09,165.92,2
457,199.35,168.83,2
140,198.16,168.54,2
199,198.18,168.85,2
286,199.93,170.02,2
977,215.47,178.09,2
105,213.26,177.36,2
55,210.10,176.13,2
15,206.20,174.52,2
390,209.87,176.68,2
33,206.34,175.24,2
223,206.67,175.72,2
190,206.34,175.86,2
438,210.97,178.48,2
454,215.83,181.24,2
328,218.07,182.70,2
230,218.31,183.18,2
556,225.07,186.91,2
297,226.50,188.01,2
557,233.11,191.70,2
77,229.99,190.55,2
235,230.09,190.99,2
43,226.35,189.51,2
244,226.70,190.06,2
25,222.67,188.41,2
376,225.74,190.28,2
515,231.52,193.53,2
74,228.37,192.34,2
153,226.86,191.94,2
378,229.89,193.80,2
51,226.31,192.37,2
115,224.08,191.60,2
534,230.28,195.03,2
796,241.59,201.03,2
105,238.86,200.07,2
483,243.75,202.90,2
256,243.99,203.43,2
971,258.53,211.11,2
843,270.22,217.43,2
582,276.46,221.08,2
64,272.21,219.50,2
66,268.08,217.97,2
21,263.14,216.00,2
172,261.32,215.56,2
239,260.87,215.79,2
179,259.23,215.43,2
306,260.17,216.33,2
119,257.35,215.36,2
479,261.78,217.99,2
43,257.40,216.24,2
891,270.08,222.99,2
981,284.29,230.57,2
87,280.35,229.14,2
160,277.94,228.45,2
406,280.50,230.22,2
86,276.61,228.78,2
165,274.38,228.14,2
624,281.37,232.10,2
58,276.91,230.36,2
767,286.71,235.73,2
335,287.67,236.72,2
57,283.06,234.92,2
316,283.72,235.73,2
20,278.44,233.57,2
363,280.14,234.87,2
142,277.37,233.94,2
279,277.40,234.39,2
355,278.96,235.60,2
101,275.40,234.25,2
193,273.75,233.84,2
343,275.13,234.93,2
87,271.37,233.45,2
170,269.34,232.82,2
847,280.90,238.96,2
976,294.80,246.33,2
360,296.10,247.46,2
600,302.18,250.99,2
447,305.08,252.95,2
1023,319.44,260.65,2
474,322.53,262.78,2
210,320.28,262.26,2
393,321.73,263.56,2
810,331.50,269.03,2
664,338.15,272.98,2
339,338.16,273.64,2
45,332.30,271.35,2
535,336.35,273.99,2
558,340.79,276.83,2
529,344.55,279.35,2
40,338.46,276.96,2
75,333.19,274.94,2
23,326.99,272.42,2
206,324.57,271.75,2
172,321.52,270.76,2
561,326.31,273.66,2
888,337.54,279.80,2
297,336.73,279.97,2
480,339.60,281.97,2
1018,353.16,289.33,2
149,349.08,287.93,2
267,347.44,287.72,2
370,347.89,288.54,2
690,354.73,292.56,2
303,353.70,292.66,2
194,350.50,291.68,2
958,362.65,298.34,2
330,362.00,298.66,2
266,360.08,298.33,2
507,363.02,300.42,2
720,370.16,304.61,2
61,363.97,302.18,2
526,367.22,304.41,2
50,360.87,301.87,2
413,361.91,302.98,2
674,368.16,306.69,2
579,372.37,309.42,2
309,371.10,309.41,2
728,378.24,313.60,2
950,389.68,319.96,2
841,398.70,325.17,2
161,393.95,323.53,2
900,404.07,329.29,2
1023,416.45,336.23,2
728,422.68,340.15,2
29,414.81,337.04,2
1023,426.97,343.90,2
1023,438.89,350.69,2
724,444.59,354.42,2
274,441.18,353.62,2
658,445.52,356.66,2
653,449.67,359.62,2
392,448.51,359.95,2
445,448.44,360.80,2
484,449.16,362.03,2
555,451.27,363.96,2
784,457.93,368.16,2
471,458.19,369.19,2
694,462.90,372.44,2
1023,474.11,378.94,2
995,484.52,385.10,2
19,475.21,381.44,2
177,469.25,379.40,2
511,470.08,380.71,2
301,466.70,379.92,2
67,458.71,376.79,2
202,453.57,375.04,2
120,446.90,372.49,2
660,451.17,375.36,2
121,444.56,372.82,2
17,436.01,369.26,2
49,428.27,366.06,2
298,425.67,365.38,2
173,420.61,363.46,2
232,416.84,362.14,2
477,418.04,363.29,2
366,417.00,363.32,2
150,411.66,361.18,2
348,410.39,361.05,2
600,414.18,363.44,2
166,409.22,361.47,2
288,406.79,360.73,2
475,408.16,361.88,2
582,411.63,364.08,2
361,410.62,364.05,2
192,406.25,362.33,2
491,407.94,363.61,2
667,413.13,366.65,2
195,408.76,364.93,2
501,410.61,366.29,2
696,416.32,369.59,2
225,412.49,368.14,2
359,411.42,368.05,2
237,407.93,366.74,2
390,407.57,366.97,2
231,404.04,365.61,2
467,405.30,366.63,2
477,406.73,367.73,2
206,402.72,366.11,2
179,398.24,364.24,2
244,395.16,363.04,2
153,390.32,360.94,2
320,388.91,360.53,2
19,381.51,357.11,2
70,375.28,354.24,2
108,369.94,351.78,2
15,362.84,348.41,2
299,361.56,347.92,2
168,357.69,346.12,2
193,354.40,344.59,2
261,352.53,343.75,2
173,348.94,342.04,2
328,348.52,341.90,2
133,344.21,339.82,2
217,341.66,338.59,2
19,335.21,335.39,2
254,333.59,334.58,2
205,331.01,333.28,2
16,324.71,330.11,2
190,322.02,328.71,2
114,317.86,326.56,2
251,316.52,325.80,2
13,310.45,322.68,2
216,308.56,321.61,2
19,302.77,318.58,2
539,307.50,320.79,2
541,312.17,322.99,2
58,307.08,320.34,2
168,304.30,318.82,2
291,304.04,318.54,2
94,299.83,316.29,2
211,298.06,315.24,2
131,294.72,313.40,2
204,292.90,312.30,2
366,294.36,312.84,2
215,292.78,311.86,2
77,288.46,309.51,2
51,283.71,306.93,2
116,280.36,305.02,2
103,276.81,303.00,2
108,273.43,301.05,2
33,268.63,298.37,2
24,263.73,295.63,2
99,260.44,293.66,2
53,256.29,291.25,2
56,252.28,288.90,2
53,248.30,286.54,2
135,246.03,285.03,2
12,241.35,282.30,2
8,236.69,279.55,2
80,233.55,277.56,2
207,233.02,276.85,2
49,229.34,274.57,2
32,225.39,272.15,2
47,221.83,269.90,2
93,219.25,268.13,2
26,215.38,265.71,2
22,211.52,263.27,2
69,208.67,261.33,2
8,204.65,258.79,2
62,201.80,256.82,2
29,198.34,254.55,2
15,194.68,252.15,2
70,192.18,250.33,2
57,189.48,248.40,2
66,187.01,246.57,2
38,184.03,244.49,2
9,180.53,242.13,2
8,177.08,239.79,2
62,174.78,238.01,2
58,172.44,236.21,2
43,169.85,234.28,2
29,167.04,232.23,2
42,164.53,230.32,2
17,161.58,228.19,2
14,158.63,226.05,2
67,156.80,224.46,2
4,153.74,222.25,2
11,150.89,220.14,2
74,149.35,218.68,2
5,146.46,216.54,2
54,144.61,214.92,2
72,143.16,213.49,2
43,141.16,211.78,2
104,140.42,210.71,2
96,139.53,209.56,2
21,137.16,207.67,2
0,134.41,205.60,2
30,132.33,203.84,2
219,134.06,203.99,2
174,134.86,203.69,2
8,132.32,201.74,2
98,131.63,200.70,2
31,129.62,199.00,2
34,127.71,197.35,2
81,126.78,196.19,2
18,124.60,194.41,2
90,123.91,193.36,2
6,121.55,191.49,2
113,121.38,190.70,2
17,119.29,188.97,2
87,118.65,187.95,2
25,116.77,186.32,2
51,115.46,184.96,2
78,114.71,183.89,2
68,113.77,182.74,2
4,111.58,180.95,2
58,110.51,179.72,2
25,108.80,178.17,2
74,108.10,177.13,2
38,106.70,175.74,2
6,104.68,174.04,2
11,102.81,172.41,2
38,101.51,171.07,2
38,100.24,169.74,2
10,98.44,168.14,2
83,98.13,167.29,2
90,97.97,166.51,2
25,96.51,165.10,2
20,94.98,163.65,2
24,93.56,162.25,2
26,92.21,160.89,2
92,92.20,160.20,2
9,90.54,158.69,2
61,89.95,157.71,2
132,90.79,157.45,2
10,89.17,155.98,2
57,88.53,154.99,2
72,88.20,154.16,2
54,87.52,153.16,2
25,86.27,151.88,2
60,85.74,150.96,2
24,84.51,149.69,2
5,82.92,148.24,2
110,83.46,147.86,2
45,82.69,146.83,2
32,81.67,145.68,2
67,81.38,144.90,2
51,80.77,143.96,2
95,81.06,143.47,2
89,81.22,142.92,2
5,79.69,141.54,2
20,78.50,140.33,2
59,78.11,139.51,2
61,77.77,138.73,2
73,77.67,138.07,2
80,77.72,137.49,2
115,78.46,137.27,2
198,80.85,137.87,2
125,81.74,137.74,2
32,80.74,136.69,2
4,79.21,135.36,2
31,78.24,134.32,2
24,77.16,133.21,2
32,76.26,132.20,2
101,76.75,131.89,2
5,75.31,130.62,2
20,74.21,129.51,2
55,73.82,128.77,2
73,73.81,128.21,2
14,72.61,127.07,2
45,72.06,126.25,2
69,72.00,125.68,2
57,71.70,124.99,2
3,70.32,123.77,2
79,70.50,123.32,2
30,69.69,122.39,2
52,69.33,121.69,2
21,68.37,120.68,2
59,68.18,120.06,2
5,66.92,118.91,2
42,66.42,118.14,2
11,65.31,117.07,2
23,64.46,116.13,2
37,63.91,115.34,2
95,64.54,115.13,2
113,65.51,115.11,2
140,67.00,115.36,2
36,66.38,114.57,2
105,67.15,114.47,2
37,66.54,113.70,2
13,65.47,112.69,2
23,64.62,111.79,2
21,63.75,110.89,2
71,63.90,110.49,2
151,65.64,110.89,2
54,65.41,110.32,2
77,65.64,109.99,2
9,64.51,108.98,2
4,63.30,107.93,2
16,62.35,107.01,2
105,63.20,106.99,2
56,63.06,106.48,2
9,61.98,105.51,2
113,63.00,105.58,2
69,63.12,105.22,2
84,63.54,105.00,2
4,62.34,103.99,2
54,62.18,103.49,2
83,62.59,103.29,2
118,63.70,103.44,2
78,63.99,103.18,2
97,64.65,103.12,2
53,64.42,102.62,2
77,64.67,102.36,2
65,64.67,101.99,2
37,64.12,101.34,2
77,64.38,101.10,2
97,65.03,101.05,2
11,63.95,100.15,2
22,63.11,99.37,2
31,62.47,98.69,2
156,64.34,99.26,2
117,65.39,99.44,2
63,65.34,99.07,2
149,67.02,99.57,2
128,68.24,99.86,2
56,67.99,99.42,2
4,66.71,98.47,2
39,66.16,97.87,2
80,66.44,97.69,2
74,66.59,97.46,2
46,66.17,96.94,2
67,66.19,96.64,2
14,65.15,95.81,2
52,64.88,95.38,2
127,66.13,95.69,2
43,65.66,95.17,2
13,64.61,94.34,2
76,64.84,94.16,2
50,64.54,93.72,2
3,63.31,92.81,2
60,63.25,92.48,2
78,63.54,92.34,2
13,62.53,91.55,2
33,61.94,90.96,2
35,61.40,90.40,2
11,60.39,89.61,2
79,60.76,89.50,2
22,59.99,88.83,2
13,59.05,88.07,2
24,58.35,87.43,2
21,57.60,86.76,2
81,58.07,86.70,2
73,58.37,86.57,2
4,57.28,85.74,2
11,56.35,84.99,2
102,57.27,85.16,2
28,56.68,84.59,2
13,55.81,83.88,2
9,54.87,83.13,2
1,53.80,82.31,2
20,53.12,81.68,2
47,53.00,81.34,2
68,53.30,81.20,2
111,54.45,81.50,2
62,54.60,81.31,2
44,54.39,80.93,2
68,54.66,80.80,2
12,53.81,80.12,2
56,53.85,79.88,2
198,56.74,81.06,2
23,56.06,80.48,2
13,55.20,79.80,2
39,54.88,79.39,2
18,54.14,78.78,2
97,55.00,78.96,2
28,54.46,78.45,2
48,54.33,78.15,2
0,53.24,77.37,2
6,52.30,76.65,2
5,51.35,75.94,2
69,51.70,75.87,2
34,51.35,75.45,2
9,50.50,74.78,2
14,49.77,74.18,2
130,51.38,74.73,2
76,51.87,74.75,2
36,51.55,74.36,2
27,51.06,73.89,2
27,50.58,73.42,2
126,52.09,73.94,2
143,53.91,74.63,2
147,55.77,75.36,2
34,55.33,74.94,2
83,55.89,75.02,2
79,56.35,75.06,2
158,58.38,75.89,2
87,58.95,76.00,2
67,59.11,75.91,2
13,58.19,75.28,2
24,57.51,74.77,2
21,56.78,74.23,2
68,57.00,74.17,2
54,56.94,73.97,2
62,57.04,73.85,2
9,56.08,73.20,2
29,55.54,72.76,2
75,55.93,72.78,2
50,55.81,72.55,2
172,58.14,73.55,2
84,58.65,73.65,2
109,59.66,74.01,2
40,59.27,73.67,2
134,60.76,74.27,2
17,59.89,73.70,2
11,58.91,73.07,2
76,59.25,73.10,2
58,59.22,72.95,2
38,58.80,72.60,2
86,59.34,72.73,2
39,58.94,72.40,2
75,59.26,72.42,2
22,58.51,71.92,2
32,57.98,71.52,2
227,61.36,73.07,2
100,62.14,73.34,2
28,61.45,72.89,2
95,62.12,73.11,2
18,61.24,72.56,2
70,61.42,72.53,2
181,63.81,73.62,2
138,65.29,74.26,2
51,65.01,74.03,2
116,66.03,74.45,2
71,66.13,74.41,2
26,65.32,73.93,2
12,64.26,73.31,2
69,64.35,73.27,2
34,63.74,72.88,2
120,64.87,73.35,2
187,67.31,74.48,2
84,67.65,74.58,2
85,67.99,74.68,2
76,68.15,74.70,2
104,68.87,74.99,2
285,73.19,77.09,2
277,77.27,79.09,2
39,76.50,78.69,2
132,77.61,79.22,2
274,81.54,81.17,2
225,84.41,82.61,2
143,85.58,83.21,2
82,85.51,83.20,2
24,84.28,82.61,2
29,83.18,82.07,2
222,85.95,83.47,2
169,87.61,84.32,2
79,87.44,84.27,2
21,86.11,83.64,2
45,85.29,83.25,2
42,84.42,82.84,2
117,85.07,83.18,2
155,86.47,83.90,2
24,85.22,83.30,2
80,85.12,83.27,2
20,83.82,82.63,2
108,84.30,82.89,2
121,85.03,83.27,2
182,86.97,84.26,2
25,85.73,83.66,2
9,84.20,82.92,2
86,84.24,82.95,2
235,87.25,84.47,2
118,87.87,84.80,2
97,88.05,84.93,2
81,87.91,84.89,2
32,86.79,84.36,2
230,89.65,85.81,2
99,89.84,85.95,2
9,88.22,85.18,2
72,87.90,85.05,2
18,86.50,84.37,2
86,86.49,84.39,2
192,88.60,85.47,2
76,88.35,85.37,2
18,86.94,84.70,2
79,86.78,84.64,2
38,85.81,84.18,2
212,88.33,85.45,2
122,89.01,85.82,2
70,88.63,85.66,2
75,88.35,85.55,2
111,88.81,85.81,2
234,91.71,87.29,2
148,92.84,87.90,2
144,93.86,88.46,2
121,94.40,88.78,2
151,95.53,89.41,2
46,94.54,88.97,2
57,93.79,88.65,2
35,92.62,88.12,2
111,92.98,88.34,2
37,91.86,87.83,2
111,92.25,88.06,2
26,90.92,87.44,2
47,90.04,87.04,2
35,88.94,86.52,2
44,88.04,86.09,2
160,89.48,86.83,2
54,88.77,86.50,2
115,89.30,86.79,2
77,89.05,86.69,2
45,88.17,86.27,2
28,86.97,85.69,2
221,89.65,87.04,2
123,90.32,87.40,2
56,89.63,87.09,2
209,92.02,88.31,2
33,90.84,87.76,2
37,89.76,87.25,2
55,89.06,86.93,2
67,88.62,86.73,2
136,89.57,87.22,2
71,89.20,87.06,2
168,90.77,87.87,2
150,91.96,88.49,2
29,90.70,87.89,2
12,89.13,87.13,2
39,88.12,86.65,2
111,88.58,86.90,2
21,87.23,86.24,2
132,88.12,86.69,2
115,88.66,86.98,2
52,87.93,86.63,2
45,87.07,86.21,2
65,86.63,86.00,2
86,86.62,86.00,2
22,85.32,85.36,2
100,85.62,85.51,2
54,84.99,85.19,2
39,84.07,84.73,2
93,84.24,84.81,2
20,82.96,84.16,2
71,82.72,84.03,2
28,81.63,83.47,2
66,81.31,83.30,2
78,81.25,83.24,2
157,82.76,83.98,2
79,82.69,83.93,2
127,83.57,84.36,2
31,82.52,83.83,2
108,83.03,84.07,2
153,84.43,84.76,2
151,85.76,85.42,2
13,84.31,84.70,2
31,83.24,84.16,2
89,83.36,84.21,2
38,82.45,83.75,2
58,81.96,83.49,2
32,80.96,82.97,2
24,79.82,82.38,2
18,78.59,81.74,2
92,78.85,81.84,2
21,77.70,81.24,2
124,78.62,81.66,2
27,77.59,81.12,2
43,76.90,80.74,2
56,76.48,80.49,2
94,76.83,80.62,2
129,77.87,81.11,2
41,77.14,80.71,2
115,77.89,81.05,2
9,76.52,80.33,2
96,76.91,80.48,2
138,78.13,81.06,2
138,79.32,81.63,2
110,79.94,81.91,2
38,79.10,81.47,2
55,78.62,81.21,2
148,80.01,81.88,2
65,79.71,81.71,2
28,78.67,81.17,2
38,77.86,80.74,2
84,77.98,80.77,2
152,79.46,81.48,2
76,79.39,81.43,2
69,79.18,81.31,2
53,78.66,81.02,2
82,78.73,81.03,2
39,77.93,80.61,2
144,79.25,81.25,2
88,79.43,81.31,2
92,79.68,81.42,2
138,80.85,81.99,2
38,79.99,81.55,2
94,80.27,81.67,2
105,80.76,81.90,2
26,79.67,81.34,2
39,78.86,80.92,2
158,80.44,81.69,2
136,81.55,82.24,2
178,83.48,83.19,2
22,82.25,82.58,2
36,81.32,82.12,2
97,81.64,82.26,2
141,82.83,82.85,2
162,84.41,83.64,2
35,83.42,83.16,2
53,82.81,82.85,2
84,82.84,82.87,2
60,82.38,82.64,2
58,81.89,82.39,2
78,81.81,82.35,2
28,80.74,81.80,2
92,80.96,81.91,2
108,81.50,82.17,2
84,81.55,82.19,2
96,81.84,82.32,2
35,80.91,81.85,2
68,80.65,81.71,2
35,79.73,81.24,2
90,79.94,81.33,2
194,82.22,82.46,2
56,81.70,82.19,2
78,81.62,82.15,2
30,80.59,81.63,2
110,81.18,81.91,2
133,82.21,82.43,2
22,81.01,81.82,2
32,80.03,81.32,2
113,80.69,81.64,2
78,80.64,81.60,2
84,80.70,81.63,2
40,79.89,81.21,2
54,79.37,80.94,2
26,78.30,80.39,2
63,78.00,80.22,2
44,77.32,79.85,2
119,78.15,80.24,2
28,77.15,79.72,2
50,76.61,79.42,2
100,77.07,79.63,2
35,76.23,79.18,2
120,77.11,79.59,2
47,76.51,79.27,2
29,75.55,78.76,2
32,74.68,78.30,2
48,74.15,77.99,2
39,73.45,77.60,2
90,73.78,77.73,2
72,73.74,77.67,2
162,75.51,78.51,2
51,75.02,78.24,2
107,75.66,78.53,2
179,77.72,79.53,2
37,76.91,79.11,2
80,76.97,79.11,2
39,76.21,78.71,2
28,75.25,78.21,2
62,74.98,78.04,2
184,77.16,79.10,2
35,76.32,78.66,2
57,75.93,78.45,2
22,74.85,77.88,2
163,76.62,78.73,2
58,76.25,78.53,2
177,78.26,79.51,2
52,77.74,79.23,2
23,76.64,78.67,2
164,78.39,79.53,2
65,78.12,79.38,2
57,77.70,79.16,2
107,78.28,79.44,2
102,78.76,79.66,2
91,79.00,79.77,2
94,79.30,79.92,2
43,78.58,79.55,2
34,77.69,79.09,2
106,78.25,79.36,2
51,77.71,79.08,2
68,77.51,78.97,2
45,76.86,78.63,2
151,78.34,79.35,2
48,77.74,79.04,2
97,78.12,79.22,2
55,77.66,78.97,2
128,78.67,79.46,2
28,77.65,78.95,2
28,76.66,78.44,2
50,76.13,78.16,2
31,75.23,77.68,2
122,76.16,78.13,2
63,75.90,77.98,2
15,74.68,77.35,2
137,75.93,77.94,2
64,75.69,77.80,2
30,74.77,77.33,2
162,76.52,78.17,2
122,77.43,78.61,2
54,76.96,78.36,2
116,77.74,78.74,2
74,77.67,78.69,2
120,78.51,79.11,2
56,78.06,78.88,2
23,76.96,78.32,2
72,76.86,78.25,2
26,75.84,77.73,2
120,76.73,78.15,2
139,77.97,78.76,2
25,76.91,78.22,2
17,75.72,77.61,2
24,74.68,77.08,2
23,73.65,76.54,2
36,72.89,76.13,2
48,72.40,75.85,2
24,71.43,75.33,2
86,71.72,75.44,2
32,70.93,75.00,2
60,70.71,74.85,2
223,73.75,76.33,2
43,73.14,76.00,2
63,72.93,75.87,2
46,72.40,75.57,2
56,72.07,75.38,2
82,72.27,75.44,2
42,71.66,75.11,2
34,70.91,74.70,2
91,71.31,74.86,2
59,71.06,74.70,2
123,72.10,75.18,2
101,72.68,75.44,2
140,74.03,76.09,2
45,73.45,75.78,2
15,72.28,75.17,2
98,72.79,75.40,2
174,74.82,76.38,2
32,73.96,75.94,2
75,73.98,75.93,2
18,72.86,75.35,2
46,72.32,75.06,2
59,72.06,74.90,2
34,71.30,74.49,2
90,71.67,74.64,2
95,72.14,74.85,2
91,72.51,75.01,2
242,75.90,76.68,2
19,74.77,76.10,2
71,74.69,76.05,2
202,77.24,77.31,2
94,77.57,77.48,2
78,77.58,77.48,2
201,80.05,78.72,2
208,82.61,80.01,2
19,81.34,79.40,2
131,82.33,79.92,2
175,84.18,80.87,2
156,85.62,81.62,2
56,85.03,81.36,2
35,84.03,80.90,2
158,85.51,81.67,2
34,84.48,81.19,2
141,85.61,81.79,2
123,86.35,82.20,2
139,87.41,82.77,2
191,89.48,83.85,2
82,89.33,83.83,2
51,88.56,83.51,2
105,88.89,83.72,2
20,87.51,83.08,2
28,86.32,82.53,2
16,84.92,81.87,2
227,87.76,83.32,2
29,86.58,82.78,2
112,87.09,83.07,2
95,87.25,83.19,2
124,87.98,83.60,2
37,86.96,83.13,2
59,86.41,82.89,2
160,87.88,83.66,2
23,86.58,83.05,2
44,85.73,82.66,2
128,86.57,83.12,2
36,85.56,82.64,2
114,86.13,82.96,2
50,85.41,82.63,2
179,87.28,83.59,2
27,86.07,83.03,2
139,87.13,83.59,2
77,86.93,83.52,2
101,87.21,83.70,2
11,85.69,82.97,2
119,86.35,83.33,2
369,92.01,86.19,2
219,94.55,87.51,2
209,96.84,88.73,2
81,96.52,88.65,2
61,95.81,88.37,2
105,95.99,88.54,2
344,100.95,91.10,2
161,102.15,91.79,2
125,102.61,92.13,2
18,100.92,91.39,2
108,101.06,91.55,2
131,101.66,91.95,2
63,100.89,91.66,2
139,101.65,92.13,2
44,100.49,91.65,2
38,99.25,91.11,2
56,98.38,90.76,2
197,100.35,91.82,2
165,101.65,92.56,2
77,101.15,92.40,2
335,105.83,94.83,2
319,110.09,97.07,2
221,112.31,98.31,2
24,110.54,97.56,2
186,112.05,98.45,2
82,111.45,98.28,2
180,112.82,99.10,2
111,112.79,99.22,2
47,111.47,98.70,2
35,109.94,98.06,2
54,108.82,97.62,2
246,111.57,99.10,2
13,109.60,98.24,2
75,108.90,98.01,2
131,109.35,98.34,2
107,109.30,98.43,2
31,107.73,97.75,2
47,106.52,97.24,2
107,106.53,97.34,2
18,104.76,96.55,2
98,104.62,96.56,2
57,103.67,96.17,2
37,102.34,95.58,2
129,102.87,95.91,2
65,102.11,95.60,2
60,101.27,95.25,2
20,99.64,94.49,2
62,98.89,94.17,2
175,100.41,94.98,2
14,98.69,94.17,2
46,97.63,93.68,2
86,97.40,93.61,2
37,96.19,93.04,2
22,94.71,92.33,2
24,93.29,91.65,2
20,91.83,90.93,2
20,90.39,90.22,2
293,94.44,92.25,2
173,96.01,93.06,2
71,95.51,92.84,2
25,94.10,92.16,2
175,95.72,92.99,2
392,101.65,95.98,2
132,102.25,96.34,2
37,100.95,95.74,2
93,100.79,95.72,2
303,104.83,97.79,2
311,108.96,99.92,2
146,109.70,100.38,2
32,108.14,99.70,2
246,110.90,101.16,2
104,110.76,101.19,2
15,108.85,100.33,2
95,108.57,100.27,2
35,107.10,99.62,2
136,107.68,99.99,2
41,106.34,99.40,2
483,113.88,103.23,2
229,116.18,104.49,2
17,114.20,103.61,2
198,115.87,104.56,2
46,114.47,103.97,2
287,117.93,105.80,2
327,122.11,108.02,2
340,126.46,110.34,2
65,125.24,109.88,2
369,130.11,112.47,2
244,132.39,113.79,2
130,132.34,113.95,2
304,135.77,115.85,2
117,135.40,115.86,2
27,133.23,114.97,2
333,137.23,117.15,2
25,134.98,116.23,2
89,134.06,115.96,2
650,144.38,121.30,2
33,142.15,120.42,2
211,143.53,121.32,2
110,142.86,121.21,2
188,143.76,121.88,2
379,148.47,124.45,2
25,146.00,123.45,2
266,148.40,124.88,2
596,157.35,129.59,2
282,159.84,131.12,2
141,159.47,131.21,2
305,162.38,132.95,2
21,159.55,131.83,2
89,158.14,131.40,2
100,156.98,131.09,2
60,155.04,130.38,2
29,152.52,129.37,2
61,150.68,128.68,2
20,148.07,127.60,2
16,145.43,126.48,2
45,143.42,125.66,2
170,143.95,126.11,2
79,142.65,125.64,2
294,145.68,127.32,2
19,143.15,126.24,2
161,143.50,126.58,2
418,148.99,129.50,2
124,148.49,129.44,2
29,146.10,128.44,2
23,143.64,127.39,2
283,146.43,128.94,2
43,144.36,128.08,2
33,142.13,127.13,2
157,142.43,127.43,2
43,140.44,126.59,2
46,138.55,125.78,2
310,141.98,127.62,2
545,150.04,131.80,2
207,151.18,132.55,2
200,152.16,133.22,2
295,155.01,134.84,2
28,152.47,133.77,2
84,151.11,133.27,2
14,148.36,132.08,2
104,147.48,131.80,2
41,145.35,130.89,2
130,145.04,130.88,2
31,142.76,129.88,2
127,142.44,129.86,2
219,143.97,130.75,2
139,143.88,130.83,2
75,142.50,130.27,2
291,145.47,131.88,2
76,144.08,131.32,2
82,142.84,130.83,2
20,140.38,129.72,2
81,139.19,129.23,2
69,137.79,128.63,2
36,135.75,127.70,2
358,140.20,130.01,2
98,139.35,129.69,2
165,139.87,130.04,2
402,145.11,132.76,2
115,144.51,132.58,2
19,142.00,131.44,2
211,143.38,132.24,2
466,149.83,135.58,2
15,147.13,134.37,2
284,149.87,135.87,2
159,150.05,136.10,2
164,150.33,136.38,2
113,149.59,136.15,2
163,149.85,136.41,2
166,150.18,136.71,2
293,153.03,138.27,2
36,150.69,137.25,2
508,157.84,140.96,2
149,157.66,141.04,2
104,156.59,140.67,2
153,156.52,140.79,2
401,161.41,143.39,2
59,159.36,142.55,2
67,157.51,141.79,2
266,159.68,143.04,2
85,158.19,142.45,2
79,156.60,141.82,2
254,158.55,142.94,2
273,160.84,144.24,2
407,165.76,146.87,2
137,165.19,146.77,2
41,162.70,145.71,2
202,163.49,146.28,2
290,166.02,147.71,2
274,168.18,148.98,2
56,165.94,148.05,2
329,169.20,149.86,2
182,169.45,150.18,2
122,168.50,149.90,2
117,167.47,149.57,2
41,164.95,148.48,2
112,163.89,148.12,2
17,160.95,146.81,2
462,166.97,149.96,2
320,170.03,151.66,2
162,169.87,151.76,2
280,172.07,153.04,2
37,169.37,151.88,2
102,168.02,151.38,2
241,169.48,152.28,2
27,166.63,151.03,2
228,167.86,151.80,2
327,171.04,153.55,2
56,168.74,152.57,2
52,166.41,151.57,2
354,170.16,153.59,2
221,171.18,154.27,2
26,168.27,152.98,2
13,165.17,151.58,2
127,164.40,151.34,2
62,162.36,150.45,2
267,164.45,151.61,2
252,166.20,152.61,2
25,163.38,151.34,2
150,163.11,151.33,2
154,162.93,151.35,2
303,165.73,152.87,2
96,164.33,152.30,2
70,162.45,151.48,2
149,162.18,151.45,2
67,160.27,150.61,2
363,164.33,152.73,2
256,166.16,153.76,2
286,168.56,155.09,2
700,179.19,160.54,2
680,189.20,165.73,2
275,190.92,166.82,2
772,202.54,172.87,2
880,216.09,179.95,2
863,229.03,186.78,2
176,227.97,186.67,2
15,223.71,184.95,2
434,227.91,187.44,2
389,231.14,189.46,2
27,227.05,187.83,2
377,230.05,189.73,2
86,227.17,188.69,2
5,222.73,186.85,2
179,221.85,186.77,2
128,219.98,186.18,2
157,218.72,185.89,2
13,214.60,184.16,2
84,211.99,183.16,2
117,210.09,182.50,2
545,216.79,186.13,2
400,220.45,188.26,2
191,219.86,188.29,2
154,218.55,187.95,2
461,223.40,190.68,2
792,234.77,196.69,2
741,244.89,202.14,2
330,246.59,203.41,2
112,243.90,202.50,2
45,239.92,200.93,2
329,241.71,202.21,2
802,252.91,208.20,2
374,255.33,209.86,2
59,251.41,208.35,2
307,252.52,209.34,2
130,250.07,208.55,2
71,246.49,207.17,2
200,245.56,207.10,2
356,247.77,208.59,2
331,249.43,209.81,2
19,244.82,207.90,2
595,251.83,211.78,2
555,257.89,215.21,2
329,259.31,216.35,2
665,267.43,220.83,2
169,265.46,220.31,2
658,273.31,224.69,2
549,278.82,227.93,2
335,279.95,229.00,2
388,282.11,230.59,2
408,284.62,232.37,2
317,285.27,233.21,2
834,296.25,239.22,2
908,308.48,245.91,2
53,303.37,243.98,2
408,305.46,245.62,2
618,311.72,249.35,2
202,309.52,248.87,2
335,310.03,249.73,2
277,309.37,250.01,2
191,307.00,249.42,2
333,307.52,250.25,2
479,310.95,252.54,2
45,305.63,250.46,2
14,299.80,248.10,2
250,298.80,248.12,2
213,297.09,247.77,2
110,293.35,246.39,2
27,288.02,244.20,2
65,283.56,242.40,2
27,278.43,240.25,2
182,276.50,239.67,2
29,271.55,237.56,2
321,272.54,238.39,2
207,271.23,238.08,2
440,274.60,240.10,2
18,269.47,237.88,2
233,268.74,237.83,2
448,272.33,239.93,2
688,280.64,244.41,2
866,292.35,250.63,2
226,291.02,250.38,2
129,287.78,249.17,2
876,299.54,255.44,2
839,310.33,261.27,2
257,309.27,261.23,2
97,305.02,259.59,2
86,300.64,257.85,2
181,298.25,257.08,2
137,295.02,255.88,2
168,292.48,255.00,2
276,292.15,255.21,2
38,287.07,253.04,2
2,281.37,250.53,2
214,280.02,250.17,2
369,281.80,251.35,2
615,288.47,254.99,2
77,284.24,253.21,2
661,291.77,257.29,2
729,300.52,262.01,2
991,314.33,269.29,2
559,319.22,272.19,2
656,325.95,276.03,2
1023,339.90,283.50,2
1023,353.56,290.89,2
1023,366.95,298.22,2
43,360.47,295.66,2
1022,373.70,302.93,2
1023,386.68,310.13,2
804,395.03,315.07,2
183,390.79,313.75,2
478,392.53,315.39,2
325,391.18,315.48,2
377,390.90,316.10,2
438,391.84,317.32,2
143,386.86,315.58,2
127,381.67,313.69,2
251,379.05,313.06,2
591,383.29,315.84,2
593,387.49,318.61,2
333,386.40,318.76,2
143,381.53,317.00,2
952,392.94,323.35,2
461,394.30,324.73,2
206,390.53,323.54,2
333,389.38,323.63,2
599,393.58,326.39,2
535,396.40,328.47,2
388,396.24,329.07,2
835,405.01,334.13,2
69,398.29,331.48,2
388,398.09,332.04,2
1023,410.58,338.95,2
1023,422.83,345.79,2
407,422.52,346.40,2
213,418.33,345.07,2
1023,430.42,351.85,2
878,439.37,357.11,2
244,435.46,355.98,2
1,426.77,352.43,2
75,419.74,349.66,2
279,416.92,348.95,2
196,412.51,347.42,2
148,407.22,345.43,2
77,400.61,342.74,2
124,395.08,340.55,2
320,393.58,340.35,2
102,387.75,337.97,2
216,384.31,336.75,2
58,377.78,333.96,2
311,376.45,333.73,2
420,377.32,334.59,2
19,370.15,331.44,2
292,368.59,331.04,2
381,368.84,331.54,2
46,362.38,328.69,2
150,358.13,326.90,2
32,351.61,323.95,2
317,350.92,323.88,2
565,355.20,326.29,2
190,351.90,324.93,2
0,344.86,321.68,2
1,337.98,318.47,2
132,333.86,316.61,2
26,327.70,313.70,2
351,328.17,314.07,2
310,327.81,314.03,2
99,323.23,311.88,2
123,319.23,309.99,2
535,323.54,312.24,2
297,323.01,312.09,2
429,325.13,313.26,2
259,323.81,312.72,2
282,322.97,312.41,2
226,321.03,311.55,2
33,315.27,308.76,2
0,308.97,305.67,2
172,306.23,304.34,2
164,303.38,302.93,2
5,297.42,299.95,2
63,292.73,297.59,2
103,288.93,295.64,2
198,287.11,294.66,2
49,282.35,292.21,2
140,279.50,290.68,2
15,274.21,287.93,2
42,269.57,285.47,2
53,265.24,283.14,2
9,260.11,280.40,2
34,255.59,277.94,2
41,251.30,275.57,2
63,247.53,273.44,2
24,243.06,270.95,2
60,239.40,268.84,2
44,235.49,266.59,2
34,231.46,264.26,2
47,227.77,262.09,2
31,223.84,259.78,2
14,219.64,257.32,2
8,215.41,254.83,2
47,212.04,252.75,2
39,208.58,250.61,2
126,206.93,249.37,2
81,204.41,247.68,2
91,202.14,246.12,2
20,198.50,243.86,2
18,194.89,241.60,2
76,192.51,239.94,2
66,189.98,238.20,2
31,186.80,236.13,2
70,184.47,234.47,2
0,180.78,232.12,2
133,179.82,231.13,2
76,177.74,229.58,2
52,175.23,227.81,2
39,172.50,225.92,2
6,169.17,223.72,2
6,165.91,221.54,2
53,163.65,219.86,2
12,160.62,217.78,2
25,157.91,215.85,2
53,155.81,214.22,2
20,153.09,212.28,2
28,150.59,210.44,2
38,148.34,208.71,2
72,146.81,207.34,2
13,144.14,205.40,2
5,141.35,203.40,2
59,139.71,201.95,2
14,137.19,200.07,2
134,137.13,199.41,2
12,134.63,197.54,2
0,131.93,195.56,2
47,130.24,194.08,2
13,127.89,192.27,2
140,128.13,191.74,2
5,125.67,189.88,2
204,127.24,190.02,2
121,127.11,189.33,2
89,126.35,188.33,2
114,126.10,187.58,2
46,124.50,186.17,2
15,122.31,184.45,2
183,123.52,184.44,2
32,121.69,182.92,2
13,119.52,181.22,2
43,117.99,179.83,2
22,116.07,178.26,2
9,113.93,176.56,2
23,112.11,175.03,2
15,110.17,173.43,2
46,108.88,172.15,2
120,109.11,171.63,2
49,107.90,170.41,2
13,106.01,168.83,2
78,105.45,167.92,2
100,105.34,167.24,2
25,103.73,165.82,2
99,103.64,165.15,2
89,103.34,164.39,2
93,103.14,163.68,2
16,101.39,162.20,2
52,100.41,161.10,2
26,98.92,159.75,2
25,97.44,158.40,2
7,95.63,156.89,2
38,94.48,155.70,2
11,92.81,154.25,2
25,91.45,152.96,2
7,89.76,151.50,2
37,88.71,150.35,2
149,89.91,150.34,2
60,89.32,149.44,2
7,87.67,148.01,2
8,86.08,146.61,2
1,84.37,145.16,2
46,83.61,144.16,2
85,83.63,143.57,2
214,86.24,144.28,2
67,85.86,143.50,2
35,84.84,142.42,2
77,84.68,141.76,2
91,84.81,141.26,2
68,84.47,140.52,2
17,83.12,139.29,2
89,83.24,138.79,2
9,81.76,137.49,2
70,81.52,136.81,2
125,82.39,136.70,2
91,82.56,136.24,2
209,85.09,136.97,2
20,83.79,135.80,2
22,82.55,134.66,2
1,80.92,133.32,2
163,82.56,133.62,2
80,82.51,133.08,2
10,81.06,131.85,2
128,82.00,131.81,2
43,81.22,130.93,2
10,79.80,129.72,2
178,81.76,130.20,2
165,83.43,130.55,2
42,82.60,129.66,2
16,81.27,128.52,2
31,80.26,127.55,2
52,79.70,126.79,2
105,80.20,126.58,2
199,82.58,127.30,2
60,82.13,126.63,2
120,82.88,126.56,2
225,85.73,127.55,2
6,84.13,126.33,2
51,83.47,125.58,2
140,84.60,125.72,2
89,84.69,125.35,2
20,83.39,124.30,2
73,83.19,123.79,2
69,82.90,123.24,2
11,81.46,122.12,2
65,81.13,121.55,2
202,83.55,122.35,2
98,83.84,122.11,2
127,84.70,122.16,2
15,83.31,121.08,2
83,83.30,120.70,2
119,84.02,120.69,2
79,83.92,120.27,2
41,83.06,119.48,2
14,81.68,118.42,2
26,80.56,117.50,2
79,80.53,117.11,2
114,81.20,117.08,2
26,80.10,116.17,2
9,78.68,115.10,2
21,77.52,114.16,2
75,77.47,113.77,2
189,79.70,114.52,2
42,78.95,113.79,2
171,80.79,114.37,2
162,82.41,114.84,2
109,82.95,114.78,2
100,83.29,114.64,2
20,82.02,113.69,2
28,80.94,112.83,2
51,80.34,112.21,2
214,83.01,113.23,2
45,82.25,112.55,2
20,81.01,111.62,2
47,80.33,110.98,2
77,80.26,110.64,2
124,81.14,110.77,2
11,79.73,109.77,2
19,78.52,108.87,2
173,80.41,109.51,2
17,79.14,108.58,2
94,79.44,108.44,2
92,79.69,108.27,2
51,79.12,107.70,2
29,78.11,106.91,2
134,79.23,107.18,2
147,80.59,107.58,2
118,81.34,107.69,2
17,80.05,106.78,2
65,79.75,106.36,2
37,78.89,105.67,2
179,80.89,106.40,2
266,84.60,108.00,2
58,84.06,107.50,2
155,85.48,107.97,2
176,87.29,108.65,2
274,91.03,110.31,2
65,90.51,109.85,2
47,89.64,109.22,2
41,88.66,108.54,2
151,89.91,108.97,2
150,91.11,109.38,2
173,92.75,110.01,2
8,91.06,108.99,2
113,91.49,109.03,2
216,93.98,110.10,2
382,99.75,112.82,2
356,104.87,115.25,2
73,104.23,114.83,2
222,106.59,115.90,2
198,108.42,116.72,2
238,111.01,117.94,2
328,115.35,120.04,2
39,113.82,119.23,2
80,113.14,118.83,2
337,117.62,121.02,2
275,120.77,122.56,2
116,120.67,122.49,2
47,119.20,121.74,2
29,117.40,120.81,2
121,117.47,120.81,2
99,117.10,120.59,2
71,116.18,120.10,2
232,118.49,121.22,2
131,118.74,121.31,2
158,119.53,121.68,2
109,119.32,121.55,2
71,118.35,121.05,2
218,120.34,122.02,2
147,120.88,122.27,2
385,126.16,124.89,2
177,127.18,125.42,2
28,125.19,124.44,2
170,126.09,124.90,2
137,126.31,125.02,2
157,126.92,125.34,2
93,126.24,125.01,2
73,125.18,124.49,2
65,123.97,123.90,2
109,123.68,123.75,2
212,125.44,124.63,2
99,124.91,124.38,2
27,122.95,123.40,2
348,127.46,125.65,2
165,128.21,126.04,2
245,130.54,127.23,2
19,128.31,126.15,2
129,128.33,126.18,2
267,131.10,127.59,2
206,132.60,128.37,2
117,132.29,128.26,2
44,130.52,127.41,2
24,128.39,126.38,2
151,128.84,126.63,2
73,127.72,126.09,2
59,126.35,125.42,2
61,125.04,124.77,2
151,125.56,125.04,2
53,124.11,124.32,2
151,124.65,124.58,2
88,123.92,124.22,2
54,122.52,123.52,2
49,121.05,122.77,2
258,123.79,124.12,2
173,124.77,124.61,2
92,124.11,124.29,2
66,122.95,123.70,2
55,121.59,123.02,2
248,124.12,124.27,2
221,126.06,125.23,2
62,124.78,124.60,2
102,124.32,124.37,2
67,123.18,123.80,2
175,124.21,124.31,2
195,125.63,125.02,2
118,125.48,124.95,2
88,124.73,124.58,2
56,123.35,123.89,2
161,124.10,124.26,2
51,122.64,123.53,2
45,121.09,122.75,2
100,120.67,122.52,2
183,121.91,123.12,2
211,123.70,124.00,2
66,122.54,123.42,2
108,122.25,123.27,2
107,121.95,123.11,2
34,120.19,122.21,2
159,120.96,122.58,2
46,119.46,121.82,2
95,118.98,121.55,2
158,119.76,121.91,2
57,118.50,121.26,2
169,119.51,121.74,2
41,117.94,120.93,2
32,116.22,120.04,2
248,118.86,121.32,2
356,123.60,123.67,2
182,124.77,124.25,2
57,123.41,123.58,2
192,124.78,124.27,2
281,127.91,125.83,2
330,131.95,127.88,2
194,133.19,128.54,2
31,131.15,127.56,2
143,131.38,127.72,2
220,133.16,128.64,2
280,136.09,130.15,2
217,137.71,131.02,2
69,136.34,130.40,2
227,138.15,131.37,2
143,138.25,131.48,2
79,137.06,130.96,2
28,134.88,129.93,2
45,133.08,129.08,2
170,133.82,129.49,2
152,134.19,129.71,2
65,132.80,129.07,2
124,132.63,129.02,2
59,131.15,128.32,2
85,130.23,127.88,2
169,131.01,128.29,2
216,132.71,129.17,2
116,132.37,129.04,2
69,131.10,128.44,2
182,132.12,128.97,2
86,131.20,128.54,2
117,130.92,128.43,2
45,129.20,127.59,2
24,127.09,126.56,2
359,131.73,128.88,2
80,130.70,128.39,2
117,130.42,128.28,2
39,128.59,127.39,2
105,128.12,127.16,2
486,135.28,130.75,2
147,135.51,130.91,2
39,133.58,130.00,2
293,136.77,131.63,2
366,141.36,133.97,2
40,139.33,133.03,2
175,140.04,133.45,2
38,138.00,132.49,2
215,139.54,133.32,2
143,139.61,133.42,2
123,139.28,133.31,2
74,137.97,132.72,2
56,136.33,131.95,2
115,135.91,131.78,2
154,136.27,132.00,2
251,138.56,133.19,2
35,136.49,132.21,2
111,135.98,132.00,2
185,136.96,132.53,2
212,138.46,133.33,2
192,139.53,133.91,2
78,138.30,133.35,2
103,137.60,133.05,2
347,141.79,135.19,2
228,143.51,136.12,2
66,141.96,135.42,2
108,141.28,135.14,2
158,141.62,135.37,2
352,145.82,137.54,2
145,145.81,137.61,2
23,143.35,136.46,2
260,145.68,137.70,2
123,145.23,137.55,2
133,144.99,137.51,2
63,143.35,136.76,2
52,141.52,135.91,2
81,140.31,135.37,2
186,141.22,135.87,2
305,144.50,137.56,2
88,143.37,137.07,2
43,141.36,136.13,2
133,141.19,136.10,2
210,142.57,136.83,2
325,146.22,138.72,2
109,145.47,138.42,2
177,146.10,138.81,2
175,146.68,139.17,2
217,148.09,139.95,2
260,150.33,141.15,2
62,148.56,140.35,2
63,146.85,139.58,2
118,146.27,139.37,2
143,146.21,139.40,2
55,144.38,138.56,2
66,142.81,137.83,2
166,143.28,138.11,2
105,142.51,137.78,2
298,145.62,139.38,2
91,144.53,138.90,2
41,142.46,137.92,2
62,140.85,137.16,2
175,141.53,137.54,2
349,145.68,139.66,2
48,143.73,138.74,2
111,143.07,138.46,2
278,145.77,139.86,2
92,144.70,139.38,2
154,144.88,139.52,2
85,143.69,138.98,2
88,142.57,138.47,2
216,144.04,139.24,2
247,146.10,140.32,2
134,145.86,140.26,2
37,143.68,139.23,2
90,142.61,138.73,2
352,146.80,140.87,2
356,150.98,143.02,2
188,151.72,143.47,2
110,150.89,143.13,2
46,148.79,142.16,2
217,150.15,142.91,2
237,151.89,143.85,2
234,153.53,144.75,2
169,153.84,145.00,2
197,154.70,145.52,2
233,156.27,146.39,2
43,154.00,145.36,2
143,153.78,145.33,2
102,152.75,144.90,2
86,151.41,144.31,2
333,155.05,146.20,2
100,153.94,145.74,2
39,151.65,144.67,2
218,152.97,145.40,2
79,151.49,144.74,2
252,153.50,145.81,2
104,152.51,145.39,2
42,150.30,144.36,2
258,152.46,145.49,2
167,152.75,145.71,2
236,154.41,146.61,2
73,152.78,145.88,2
34,150.41,144.76,2
273,152.86,146.04,2
251,154.82,147.09,2
201,155.75,147.63,2
174,156.11,147.89,2
155,156.09,147.96,2
207,157.11,148.55,2
284,159.65,149.91,2
245,161.35,150.86,2
119,160.51,150.54,2
303,163.36,152.07,2
267,165.43,153.21,2
62,163.36,152.30,2
128,162.65,152.06,2
38,160.16,150.92,2
132,159.60,150.73,2
307,162.54,152.29,2
172,162.73,152.49,2
63,160.74,151.59,2
223,161.98,152.31,2
264,164.02,153.43,2
312,166.98,155.01,2
152,166.68,154.98,2
132,165.99,154.75,2
29,163.25,153.49,2
103,162.05,152.99,2
217,163.15,153.63,2
214,164.16,154.23,2
170,164.28,154.39,2
135,163.69,154.20,2
175,163.92,154.40,2
141,163.46,154.27,2
156,163.31,154.29,2
54,161.13,153.28,2
119,160.28,152.94,2
374,164.56,155.15,2
103,163.33,154.63,2
47,161.00,153.55,2
91,159.60,152.93,2
53,157.47,151.93,2
295,160.22,153.36,2
232,161.65,154.15,2
58,159.58,153.19,2
189,160.17,153.54,2
136,159.69,153.37,2
243,161.35,154.26,2
56,159.25,153.28,2
61,157.28,152.36,2
175,157.63,152.59,2
213,158.74,153.19,2
232,160.21,153.98,2
79,158.58,153.23,2
45,156.31,152.15,2
82,154.83,151.44,2
167,155.07,151.60,2
303,158.03,153.11,2
64,156.15,152.22,2
88,154.78,151.58,2
207,155.83,152.13,2
179,156.29,152.40,2
193,157.03,152.81,2
78,155.45,152.06,2
40,153.14,150.94,2
333,156.73,152.76,2
121,156.02,152.44,2
55,154.00,151.47,2
98,152.88,150.93,2
52,150.86,149.95,2
296,153.76,151.41,2
330,157.29,153.19,2
107,156.28,152.73,2
153,156.22,152.73,2
75,154.59,151.96,2
202,155.54,152.46,2
159,155.61,152.52,2
173,155.96,152.73,2
98,154.80,152.18,2
178,155.26,152.44,2
182,155.80,152.73,2
66,154.00,151.87,2
76,152.44,151.11,2
23,149.85,149.83,3
122,149.30,149.55,3
359,153.49,151.64,3
118,152.78,151.31,3
69,151.10,150.48,3
165,151.38,150.63,3
222,152.79,151.34,3
292,155.58,152.75,3
180,156.07,153.02,3
32,153.59,151.81,3
127,153.05,151.56,3
243,154.85,152.48,3
259,156.94,153.54,3
53,154.86,152.54,3
60,152.96,151.61,3
187,153.64,151.96,3
221,154.99,152.65,3
42,152.73,151.55,3
62,150.91,150.65,3
100,149.90,150.15,3
334,153.58,151.98,3
208,154.67,152.55,3
92,153.41,151.94,3
74,151.82,151.16,3
269,154.17,152.34,3
134,153.76,152.16,3
138,153.45,152.01,3
65,151.68,151.14,3
163,151.91,151.26,3
150,151.87,151.25,3
91,150.65,150.65,4
102,149.68,150.16,4
69,148.06,149.35,4
101,147.12,148.87,4
183,147.84,149.21,4
143,147.74,149.14,4
175,148.29,149.40,4
64,146.60,148.55,4
34,144.35,147.40,4
147,144.40,147.40,4
264,146.80,148.57,4
205,147.96,149.13,4
58,146.16,148.22,4
174,146.72,148.48,4
239,148.56,149.38,4
214,149.87,150.03,4
109,149.05,149.62,4
34,146.75,148.46,4
97,145.76,147.95,4
434,151.52,150.81,4
88,150.25,150.18,5
71,148.67,149.39,5
181,149.31,149.70,5
36,147.05,148.57,5
235,148.81,149.43,5
147,148.77,149.41,5
89,147.58,148.80,5
236,149.34,149.67,5
106,148.48,149.24,5
71,146.93,148.46,5
114,146.27,148.11,5
329,149.92,149.92,6
126,149.45,149.68,6
268,151.82,150.86,6
188,152.54,151.24,6
75,150.99,150.47,6
42,148.81,149.39,6
105,147.93,148.94,6
213,149.23,149.58,6
334,152.93,151.43,6
49,150.85,150.40,6
148,150.79,150.38,6
186,151.50,150.74,6
146,151.39,150.69,6
189,152.14,151.07,6
41,149.92,149.97,7
35,147.62,148.82,7
361,151.89,150.94,7
102,150.89,150.45,7
60,149.07,149.55,7
69,147.47,148.74,7
93,146.38,148.19,7
214,147.73,148.85,7
196,148.70,149.32,7
76,147.24,148.58,7
225,148.80,149.35,7
74,147.30,148.59,7
217,148.70,149.28,7
46,146.64,148.25,7
210,147.91,148.86,7
142,147.79,148.79,7
150,147.84,148.81,7
243,149.74,149.75,8
64,148.03,148.89,8
36,145.78,147.76,8
87,144.61,147.15,8
124,144.20,146.92,8
299,147.29,148.44,8
35,145.05,147.31,8
58,143.31,146.42,8
100,142.44,145.95,8
126,142.11,145.75,8
251,144.29,146.80,8
101,143.42,146.35,8
74,142.03,145.62,8
224,143.67,146.41,8
131,143.42,146.25,8
152,143.59,146.31,8
22,141.16,145.07,8
50,139.34,144.12,8
178,140.11,144.46,8
198,141.27,144.99,8
78,140.00,144.32,8
130,139.80,144.18,8
188,140.77,144.62,8
37,138.69,143.54,8
112,138.16,143.22,8
115,137.69,142.94,8
131,137.56,142.82,8
121,137.23,142.60,8
196,138.40,143.14,8
253,140.70,144.24,8
117,140.22,143.96,8
177,140.96,144.30,8
314,144.42,145.99,8
171,144.95,146.24,8
133,144.71,146.11,8
79,143.40,145.44,8
66,141.85,144.64,8
207,143.15,145.27,8
257,145.43,146.39,8
168,145.88,146.60,8
176,146.48,146.90,8
40,144.35,145.83,8
104,143.55,145.41,8
219,145.06,146.14,8
52,143.19,145.20,8
122,142.77,144.97,8
146,142.84,144.98,8
134,142.66,144.87,8
234,144.49,145.76,8
52,142.64,144.82,8
30,140.38,143.68,8
209,141.76,144.33,8
574,150.40,148.63,8
59,148.57,147.73,8
50,146.60,146.75,8
81,145.29,146.10,8
44,143.26,145.07,8
323,146.86,146.85,9
294,149.80,148.33,9
54,147.88,147.38,9
232,149.57,148.23,9
132,149.22,148.07,9
94,148.11,147.53,9
59,146.33,146.64,9
131,146.02,146.48,9
238,147.86,147.40,9
266,150.22,148.58,9
239,152.00,149.49,9
164,152.24,149.63,9
26,149.72,148.40,9
126,149.24,148.17,9
266,151.58,149.35,9
329,155.12,151.15,9
73,153.48,150.37,9
154,153.49,150.40,9
170,153.82,150.60,9
118,153.11,150.27,9
106,152.16,149.83,9
38,149.88,148.71,9
31,147.50,147.54,10
282,150.19,148.88,10
186,150.91,149.25,10
25,148.39,148.01,10
95,147.32,147.48,10
176,147.90,147.76,10
246,149.86,148.75,10
122,149.30,148.48,10
210,150.52,149.09,10
121,149.93,148.81,10
139,149.71,148.71,10
128,149.27,148.51,10
128,148.85,148.30,10
183,149.53,148.65,10
191,150.36,149.07,10
219,151.73,149.77,10
97,150.64,149.24,10
29,148.21,148.04,10
47,146.18,147.03,10
145,146.16,147.01,10
111,145.45,146.65,10
53,143.61,145.71,10
217,145.07,146.43,10
51,143.19,145.47,10
200,144.33,146.02,10
103,143.50,145.59,10
59,141.81,144.72,10
105,141.08,144.33,10
162,141.49,144.50,10
185,142.36,144.91,10
95,141.42,144.41,10
49,139.57,143.45,10
258,141.94,144.60,10
253,144.16,145.68,10
261,146.49,146.84,10
89,145.34,146.26,10
27,142.98,145.07,10
155,143.22,145.16,10
298,146.31,146.69,10
32,144.03,145.55,10
157,144.29,145.66,10
201,145.42,146.21,10
118,144.87,145.93,10
136,144.70,145.83,10
44,142.68,144.81,10
31,140.45,143.68,10
194,141.52,144.18,10
344,145.57,146.18,10
21,143.08,144.93,10
62,141.46,144.10,10
56,139.75,143.22,10
255,142.05,144.33,10
165,142.51,144.54,10
153,142.72,144.62,10
39,140.65,143.57,10
88,139.59,143.01,10
171,140.22,143.29,10
250,142.42,144.36,10
139,142.35,144.31,10
227,144.04,145.13,10
225,145.66,145.93,10
47,143.69,144.94,10
53,141.87,144.02,10
37,139.78,142.95,10
136,139.70,142.88,10
339,143.69,144.84,10
111,143.03,144.51,10
89,141.95,143.95,10
187,142.85,144.38,10
163,143.26,144.57,10
123,142.85,144.35,10
47,140.93,143.38,10
128,140.68,143.22,10
34,138.54,142.13,10
211,139.99,142.82,10
91,139.01,142.30,10
68,137.59,141.56,10
183,138.50,141.97,10
266,141.05,143.21,10
146,141.15,143.24,10
58,139.49,142.39,10
82,138.34,141.79,10
15,135.87,140.52,10
278,138.71,141.89,10
136,138.66,141.83,10
86,137.60,141.28,10
143,137.71,141.29,10
235,139.66,142.23,10
261,142.08,143.42,10
120,141.64,143.18,10
86,140.53,142.61,10
301,143.74,144.20,10
112,143.10,143.87,10
50,141.24,142.94,10
64,139.70,142.15,10
69,138.28,141.41,10
219,139.90,142.19,10
153,140.16,142.30,10
43,138.22,141.31,10
159,138.63,141.48,10
78,137.42,140.85,10
220,139.07,141.64,10
285,141.99,143.07,10
66,140.47,142.30,10
200,141.66,142.88,10
234,143.51,143.79,10
167,143.98,144.02,11
141,143.92,143.99,11
80,142.64,143.35,11
112,142.03,143.04,11
358,146.35,145.19,11
80,145.02,144.54,11
65,143.42,143.74,11
155,143.65,143.85,11
106,142.90,143.47,11
315,146.34,145.19,11
135,146.11,145.09,11
63,144.45,144.27,11
139,144.34,144.21,12
167,144.79,144.44,12
160,145.10,144.60,12
114,144.48,144.29,12
261,146.81,145.46,12
104,145.95,145.04,12
289,148.81,146.48,12
47,146.78,145.49,12
35,144.54,144.38,12
201,145.67,144.95,12
201,146.78,145.51,12
134,146.52,145.40,12
78,145.15,144.72,12
122,144.69,144.49,12
115,144.09,144.20,13
87,142.95,143.63,13
179,143.67,143.98,13
194,144.68,144.48,13
73,143.25,143.77,13
121,142.80,143.54,13
86,141.66,142.96,13
34,139.51,141.87,13
112,138.96,141.58,13
270,141.58,142.86,13
218,143.11,143.61,13
69,141.63,142.86,13
120,141.20,142.64,13
23,138.83,141.44,13
193,139.92,141.96,13
319,143.50,143.73,13
124,143.11,143.53,13
199,144.22,144.08,13
227,145.88,144.91,13
291,148.78,146.37,13
112,148.05,146.03,13
46,146.01,145.03,13
179,146.67,145.37,13
363,150.99,147.55,13
87,149.71,146.94,13
47,147.66,145.94,13
111,146.93,145.59,13
73,145.45,144.87,13
282,148.18,146.24,13
30,145.81,145.07,13
149,145.88,145.11,13
131,145.58,144.97,13
147,145.61,144.99,13
122,145.14,144.76,13
37,142.97,143.69,13
74,141.59,142.99,13
163,142.02,143.19,13
237,143.92,144.13,13
65,142.34,143.34,13
60,140.70,142.50,13
171,141.30,142.79,13
86,140.20,142.22,13
253,142.45,143.33,13
31,140.22,142.20,13
83,139.08,141.61,13
173,139.76,141.93,13
155,140.06,142.06,13
147,140.20,142.11,13
46,138.32,141.14,13
67,136.89,140.40,13
276,139.67,141.76,13
160,140.08,141.94,13
94,139.16,141.46,13
79,137.96,140.84,13
115,137.50,140.58,13
229,139.33,141.46,13
174,140.02,141.79,13
116,139.54,141.53,13
62,137.99,140.74,13
18,135.59,139.51,13
150,135.88,139.61,13
170,136.56,139.92,13
131,136.45,139.83,13
193,137.58,140.36,13
208,138.99,141.04,13
86,137.93,140.49,13
42,136.01,139.50,13
93,135.15,139.04,13
144,135.33,139.09,13
228,137.18,139.97,13
93,136.30,139.50,13
186,137.29,139.97,13
148,137.50,140.05,13
298,140.71,141.63,13
150,140.90,141.71,13
51,139.10,140.81,13
162,139.56,141.02,13
132,139.41,140.93,13
327,143.16,142.79,13
27,140.84,141.63,13
56,139.14,140.77,13
182,140.00,141.19,13
244,142.08,142.21,13
177,142.78,142.56,13
148,142.88,142.62,13
23,140.48,141.42,13
135,140.37,141.36,13
152,140.61,141.46,13
27,138.33,140.32,13
85,137.27,139.77,13
248,139.48,140.85,13
97,138.63,140.41,13
154,138.94,140.54,13
85,137.86,139.99,13
31,135.72,138.90,13
273,138.47,140.24,13
282,141.34,141.66,13
36,139.23,140.60,13
91,138.27,140.11,13
80,137.10,139.50,13
208,138.52,140.19,13
134,138.43,140.13,13
257,140.80,141.30,13
148,140.95,141.36,13
157,141.27,141.52,13
120,140.84,141.30,13
79,139.60,140.68,13
121,139.23,140.48,13
165,139.75,140.73,13
265,142.25,141.97,13
100,141.41,141.55,13
80,140.18,140.94,13
41,138.20,139.94,13
123,137.89,139.77,13
301,141.15,141.38,13
120,140.73,141.17,13
101,139.94,140.77,13
153,140.20,140.89,13
81,139.01,140.29,13
161,139.45,140.50,13
66,137.98,139.75,13
56,136.35,138.91,13
59,134.80,138.11,13
153,135.16,138.26,13
99,134.44,137.87,13
148,134.71,137.97,13
196,135.94,138.55,13
289,139.00,140.06,13
270,141.62,141.36,13
53,139.84,140.47,13
32,137.69,139.39,13
97,136.87,138.96,13
213,138.40,139.70,13
362,142.87,141.93,13
211,144.23,142.62,13
140,144.15,142.59,13
202,145.30,143.19,13
171,145.82,143.46,13
50,143.90,142.53,13
135,143.72,142.45,13
283,146.51,143.86,13
79,145.16,143.21,13
61,143.48,142.39,13
43,141.47,141.39,14
57,139.78,140.55,14
207,141.12,141.22,15
310,144.50,142.90,15
85,143.31,142.32,15
178,144.00,142.68,15
91,142.94,142.16,15
197,144.02,142.71,15
111,143.36,142.40,15
99,142.48,141.96,15
134,142.31,141.88,15
164,142.74,142.10,15
203,143.95,142.71,15
170,144.47,142.98,15
26,142.10,141.82,15
110,141.46,141.50,16
455,147.73,144.63,16
43,145.63,143.62,16
61,143.94,142.79,16
104,143.14,142.40,16
46,141.20,141.44,16
181,141.99,141.83,16
109,141.33,141.50,16
31,139.13,140.40,16
151,139.36,140.51,16
30,137.18,139.40,16
78,135.99,138.79,16
75,134.77,138.15,16
41,132.90,137.18,16
179,133.82,137.60,16
192,134.98,138.14,16
100,134.28,137.76,16
33,132.26,136.71,16
143,132.47,136.77,16
131,132.44,136.72,16
295,135.70,138.30,16
22,133.42,137.14,16
95,132.65,136.71,16
241,134.82,137.76,16
146,135.04,137.84,16
139,135.12,137.85,16
24,132.90,136.71,16
52,131.28,135.87,16
306,134.78,137.57,16
105,134.18,137.24,16
43,132.36,136.30,16
157,132.85,136.51,16
191,134.01,137.05,16
280,136.93,138.48,16
67,135.53,137.77,16
171,136.24,138.10,16
30,134.12,137.02,16
197,135.38,137.62,16
178,136.23,138.02,16
162,136.74,138.26,16
202,138.05,138.90,16
133,137.95,138.84,16
167,138.53,139.12,16
53,136.82,138.26,16
149,137.06,138.37,16
37,135.06,137.35,16
132,135.00,137.30,16
112,134.54,137.05,16
33,132.51,136.01,16
79,131.44,135.44,16
155,131.91,135.63,16
260,134.47,136.88,16
154,134.86,137.05,16
34,132.85,136.02,16
125,132.69,135.91,16
72,131.47,135.27,16
223,133.31,136.14,16
28,131.20,135.06,16
51,129.60,134.22,16
160,130.20,134.48,16
250,132.60,135.64,16
163,133.21,135.91,16
82,132.18,135.37,16
34,130.22,134.36,16
107,129.75,134.08,16
205,131.26,134.79,16
38,129.39,133.82,16
120,129.21,133.69,16
176,130.14,134.11,16
106,129.66,133.83,16
148,130.03,133.97,16
84,129.11,133.47,16
24,127.00,132.37,16
281,130.08,133.86,16
133,130.14,133.85,16
101,129.56,133.52,16
106,129.09,133.25,16
57,127.65,132.49,16
177,128.63,132.93,16
272,131.50,134.32,16
37,129.61,133.35,16
69,128.40,132.71,16
144,128.71,132.82,16
155,129.24,133.04,16
181,130.27,133.52,16
48,128.63,132.66,16
134,128.73,132.68,16
258,131.32,133.93,16
156,131.81,134.15,16
77,130.72,133.58,16
36,128.82,132.60,16
161,129.47,132.89,16
360,134.08,135.16,16
64,132.67,134.45,16
178,133.58,134.88,16
233,135.57,135.86,16
133,135.52,135.84,16
152,135.85,136.00,16
40,133.93,135.04,16
126,133.77,134.95,16
37,131.84,133.97,16
95,131.10,133.58,16
88,130.24,133.12,16
81,129.25,132.60,16
190,130.47,133.18,16
202,131.90,133.86,16
207,133.40,134.59,16
109,132.91,134.34,16
5,130.35,133.05,16
113,130.01,132.84,16
163,130.67,133.15,16
143,130.91,133.25,16
91,130.12,132.82,16
96,129.43,132.45,16
187,130.58,133.00,16
139,130.75,133.06,16
49,129.12,132.22,16
10,126.74,131.00,16
357,131.34,133.26,16
79,130.29,132.71,16
113,129.95,132.52,16
29,127.93,131.48,16
74,126.85,130.91,16
348,131.27,133.08,16
233,133.31,134.08,16
49,131.62,133.23,16
134,131.67,133.23,16
19,129.42,132.09,16
138,129.59,132.15,16
115,129.30,131.98,16
135,129.41,132.01,16
124,129.30,131.93,16
147,129.66,132.08,16
181,130.68,132.57,16
124,130.55,132.48,16
27,128.48,131.43,16
145,128.81,131.56,16
418,134.59,134.43,16
86,133.62,133.94,16
82,132.59,133.43,16
231,134.56,134.40,16
65,133.17,133.71,16
219,134.88,134.56,16
158,135.34,134.79,16
40,133.44,133.85,16
286,136.49,135.37,16
200,137.76,136.01,16
49,135.98,135.14,16
71,134.68,134.50,16
147,134.93,134.63,16
198,136.19,135.26,16
218,137.83,136.09,16
97,137.01,135.70,16
30,134.87,134.64,16
93,134.03,134.22,16
111,133.57,133.99,16
303,136.96,135.68,16
104,136.30,135.37,16
140,136.38,135.41,16
219,138.03,136.25,16
89,137.05,135.78,16
118,136.67,135.60,16
150,136.93,135.74,16
109,136.38,135.47,16
322,140.09,137.34,16
50,138.29,136.47,16
76,137.04,135.86,16
131,136.92,135.81,16
264,139.46,137.09,16
187,140.41,137.59,16
71,139.02,136.93,16
155,139.34,137.11,16
29,137.14,136.03,16
162,137.63,136.29,16
202,138.92,136.94,16
175,139.64,137.32,16
185,140.55,137.80,16
195,141.64,138.37,16
193,142.67,138.92,16
50,140.81,138.03,16
35,138.70,137.00,16
173,139.38,137.36,16
188,140.35,137.87,16
