0.00000 0.00000
0.00100 0.00000
0.00200 0.00000
0.00300 0.00000
0.00400 0.00000
0.00500 0.00000
0.00600 0.00000
0.00700 0.00000
0.00800 0.00000
0.00900 0.00000
0.01000 0.00000
0.01100 0.00000
0.01200 0.00000
0.01300 0.00000
0.01400 0.00000
0.01500 0.00000
0.01600 0.00000
0.01700 0.00000
0.01800 0.00000
0.01900 0.00000
0.02000 0.00000
0.02100 0.00000
0.02200 0.00000
0.02300 0.00000
0.02400 0.00000
0.02501 0.00000
0.02601 0.00000
0.02701 0.00000
0.02801 0.00000
0.02901 0.00000
0.03001 0.00000
0.03101 0.00000
0.03201 0.00000
0.03301 0.00000
0.03401 0.00000
0.03501 0.00000
0.03601 0.00000
0.03701 0.00000
0.03801 0.00000
0.03901 0.00000
0.04001 0.00000
0.04101 0.00000
0.04201 0.00000
0.04301 0.00000
0.04401 0.00000
0.04501 0.00000
0.04601 0.00000
0.04701 0.00000
0.04801 0.00000
0.04901 0.00000
0.05001 0.00000
0.05101 0.00000
0.05201 0.00000
0.05301 0.00000
0.05401 0.00000
0.05501 0.00000
0.05601 0.00000
0.05701 0.00000
0.05801 0.00000
0.05901 0.00000
0.06001 0.00000
0.06101 0.00000
0.06201 0.00000
0.06301 0.00000
0.06401 0.00000
0.06501 0.00000
0.06601 0.00000
0.06701 0.00000
0.06801 0.00000
0.06901 0.00000
0.07001 0.00000
0.07101 0.00000
0.07201 0.00000
0.07301 0.00000
0.07401 0.00000
0.07502 0.00000
0.07602 0.00000
0.07702 0.00000
0.07802 0.00000
0.07902 0.00000
0.08002 0.00000
0.08102 0.00000
0.08202 0.00000
0.08302 0.00000
0.08402 0.00000
0.08502 0.00000
0.08602 0.00000
0.08702 0.00000
0.08802 0.00000
0.08902 0.00000
0.09002 0.00000
0.09102 0.00000
0.09202 0.00000
0.09302 0.00000
0.09402 0.00000
0.09502 0.00000
0.09602 0.00000
0.09702 0.00000
0.09802 0.00000
0.09902 0.00000
0.10002 0.00000
0.10102 0.00000
0.10202 0.00000
0.10302 0.00000
0.10402 0.00000
0.10502 0.00000
0.10602 0.00000
0.10702 0.00000
0.10802 0.00000
0.10902 0.00000
0.11002 0.00000
0.11102 0.00000
0.11202 0.00000
0.11302 0.00000
0.11402 0.00000
0.11502 0.00000
0.11602 0.00000
0.11702 0.00000
0.11802 0.00000
0.11902 0.00000
0.12002 0.00000
0.12102 0.00000
0.12202 0.00000
0.12302 0.00000
0.12402 0.00000
0.12503 0.00000
0.12603 0.00000
0.12703 0.00000
0.12803 0.00000
0.12903 0.00000
0.13003 0.00000
0.13103 0.00000
0.13203 0.00000
0.13303 0.00000
0.13403 0.00000
0.13503 0.00000
0.13603 0.00000
0.13703 0.00000
0.13803 0.00000
0.13903 0.00000
0.14003 0.00000
0.14103 0.00000
0.14203 0.00000
0.14303 0.00000
0.14403 0.00000
0.14503 0.00000
0.14603 0.00000
0.14703 0.00000
0.14803 0.00000
0.14903 0.00000
0.15003 0.00000
0.15103 0.00000
0.15203 0.00000
0.15303 0.00000
0.15403 0.00000
0.15503 0.00000
0.15603 0.00000
0.15703 0.00000
0.15803 0.00000
0.15903 0.00000
0.16003 0.00000
0.16103 0.00000
0.16203 0.00000
0.16303 0.00000
0.16403 0.00000
0.16503 0.00000
0.16603 0.00000
0.16703 0.00000
0.16803 0.00000
0.16903 0.00000
0.17003 0.00000
0.17103 0.00000
0.17203 0.00000
0.17303 0.00000
0.17403 0.00000
0.17504 0.00000
0.17604 0.00000
0.17704 0.00000
0.17804 0.00000
0.17904 0.00000
0.18004 0.00000
0.18104 0.00000
0.18204 0.00000
0.18304 0.00000
0.18404 0.00000
0.18504 0.00000
0.18604 0.00000
0.18704 0.00000
0.18804 0.00000
0.18904 0.00000
0.19004 0.00000
0.19104 0.00000
0.19204 0.00000
0.19304 0.00000
0.19404 0.00000
0.19504 0.00000
0.19604 0.00000
0.19704 0.00000
0.19804 0.00000
0.19904 0.00000
0.20004 -0.09911
0.20104 0.18387
0.20204 0.50481
0.20304 0.21904
0.20404 0.54339
0.20504 0.57006
0.20604 0.63660
0.20704 0.37703
0.20804 0.36759
0.20904 0.00741
0.21004 -0.05206
0.21104 -0.53887
0.21204 -0.60745
0.21304 -0.46813
0.21404 -0.52693
0.21504 -0.61986
0.21604 -0.42057
0.21704 -0.43849
0.21804 -0.30459
0.21904 -0.53086
0.22004 0.29470
0.22104 0.18473
0.22204 0.40045
0.22304 0.27242
0.22404 0.43383
0.22505 0.82160
0.22605 0.62305
0.22705 0.41204
0.22805 0.49357
0.22905 -0.18672
0.23005 -0.25355
0.23105 0.34100
0.23205 -0.12563
0.23305 -0.70348
0.23405 -0.14108
0.23505 -0.49158
0.23605 -0.60459
0.23705 -0.61560
0.23805 -0.47705
0.23905 -0.12337
0.24005 0.09203
0.24105 0.57435
0.24205 0.14404
0.24305 0.47460
0.24405 0.68371
0.24505 0.45098
0.24605 0.61699
0.24705 0.36575
0.24805 0.06801
0.24905 0.01078
0.25005 -0.03010
0.25105 0.22976
0.25205 -0.49256
0.25305 -0.00504
0.25405 -0.67898
0.25505 -0.33959
0.25605 -0.45445
0.25705 -0.43278
0.25805 -0.37690
0.25905 -0.15580
0.26005 -0.06240
0.26105 0.01341
0.26205 0.19419
0.26305 0.38337
0.26405 0.55526
0.26505 0.41797
0.26605 0.66552
0.26705 0.50654
0.26805 0.15307
0.26905 0.31153
0.27005 0.10719
0.27105 -0.44533
0.27205 -0.08047
0.27305 -0.48028
0.27405 -0.60876
0.27506 -0.21404
0.27606 -0.73019
0.27706 -0.52891
0.27806 -0.24038
0.27906 -0.13566
0.28006 -0.20258
0.28106 -0.15133
0.28206 0.18759
0.28306 0.12728
0.28406 0.33034
0.28506 -0.02975
0.28606 0.58511
0.28706 0.32533
0.28806 0.28075
0.28906 0.13693
0.29006 -0.13967
0.29106 -0.22167
0.29206 -0.29526
0.29306 -0.67684
0.29406 -0.54881
0.29506 -0.32208
0.29606 -0.27481
0.29706 -0.44751
0.29806 -0.34666
0.29906 -0.03454
0.30006 0.28199
0.30106 0.03186
0.30206 0.30187
0.30306 0.10308
0.30406 0.10991
0.30506 0.25728
0.30606 0.44800
0.30706 0.25014
0.30806 0.04790
0.30906 0.00879
0.31006 -0.33776
0.31106 -0.31646
0.31206 -0.13786
0.31306 -0.14242
0.31406 -0.42715
0.31506 -0.41778
0.31606 -0.36316
0.31706 -0.08745
0.31806 -0.48546
0.31906 -0.21512
0.32006 0.01921
0.32106 -0.00939
0.32206 0.44812
0.32306 0.32144
0.32406 0.41304
0.32507 0.66695
0.32607 0.37836
0.32707 -0.18021
0.32807 0.05679
0.32907 0.21971
0.33007 -0.00269
0.33107 -0.25701
0.33207 -0.20823
0.33307 -0.19607
0.33407 -0.32613
0.33507 -0.57796
0.33607 -0.65842
0.33707 -0.33374
0.33807 -0.40453
0.33907 -0.05314
0.34007 0.20315
0.34107 0.35314
0.34207 0.14870
0.34307 0.41713
0.34407 0.39570
0.34507 0.18192
0.34607 0.40530
0.34707 0.31694
0.34807 0.39368
0.34907 -0.08789
0.35007 0.26360
0.35107 -0.27733
0.35207 -0.02863
0.35307 -0.37943
0.35407 -0.32272
0.35507 -0.16978
0.35607 -0.49409
0.35707 -0.53247
0.35807 -0.28661
0.35907 0.01139
0.36007 -0.14807
0.36107 0.46299
0.36207 0.48931
0.36307 0.76213
0.36407 0.30298
0.36507 0.30496
0.36607 0.23830
0.36707 0.17775
0.36807 0.40348
0.36907 -0.02200
0.37007 -0.15493
0.37107 -0.15295
0.37207 -0.26734
0.37307 -0.57485
0.37407 -0.53094
0.37508 -0.45756
0.37608 -0.61700
0.37708 -0.43246
0.37808 -0.63691
0.37908 -0.19971
0.38008 0.04561
0.38108 0.07767
0.38208 0.85694
0.38308 0.51979
0.38408 0.46133
0.38508 0.75303
0.38608 0.18343
0.38708 0.45668
0.38808 0.61660
0.38908 -0.15633
0.39008 0.37261
0.39108 -0.13018
0.39208 -0.14180
0.39308 -0.10981
0.39408 -0.93508
0.39508 -0.41444
0.39608 -0.32322
0.39708 -0.40636
0.39808 -0.13238
0.39908 0.12867
0.40008 0.31927
0.40108 -0.05313
0.40208 0.33784
0.40308 0.58209
0.40408 0.39872
0.40508 0.50772
0.40608 0.53100
0.40708 0.37827
0.40808 0.40928
0.40908 0.20034
0.41008 -0.00925
0.41108 -0.21596
0.41208 -0.13993
0.41308 -0.65323
0.41408 -0.86544
0.41508 -0.42234
0.41608 -0.07718
0.41708 -0.33146
0.41808 -0.46307
0.41908 -0.43867
0.42008 0.03398
0.42108 0.00282
0.42208 0.36778
0.42308 0.25818
0.42408 0.74683
0.42509 0.53471
0.42609 0.30706
0.42709 0.38055
0.42809 -0.08147
0.42909 -0.06448
0.43009 0.06381
0.43109 -0.13946
0.43209 -0.19271
0.43309 -0.37960
0.43409 -0.40659
0.43509 -0.38411
0.43609 -0.60481
0.43709 -0.33731
0.43809 -0.53492
0.43909 -0.11934
0.44009 0.08075
0.44109 0.19692
0.44209 0.24770
0.44309 0.10029
0.44409 0.26779
0.44509 0.15532
0.44609 0.68376
0.44709 0.44224
0.44809 0.44446
0.44909 0.21002
0.45009 0.11898
0.45109 -0.19996
0.45209 -0.14022
0.45309 -0.62804
0.45409 0.00493
0.45509 -0.32847
0.45609 -0.36091
0.45709 -0.39405
0.45809 -0.19153
0.45909 -0.01794
0.46009 0.06036
0.46109 0.43234
0.46209 0.25910
0.46309 0.62938
0.46409 0.51910
0.46509 0.47262
0.46609 0.92464
0.46709 0.50591
0.46809 0.52222
0.46909 0.10830
0.47009 0.15305
0.47109 -0.39386
0.47209 -0.28493
0.47309 -0.50266
0.47409 -0.32729
0.47510 -0.27808
0.47610 -0.45884
0.47710 -0.56007
0.47810 -0.52583
0.47910 -0.29166
0.48010 0.42927
0.48110 0.28070
0.48210 -0.12954
0.48310 0.28141
0.48410 0.46232
0.48510 0.50064
0.48610 0.78750
0.48710 0.35667
0.48810 0.49445
0.48910 0.26554
0.49010 0.16936
0.49110 -0.23898
0.49210 -0.32377
0.49310 -0.47389
0.49410 -0.54497
0.49510 -0.65753
0.49610 -0.75312
0.49710 -0.62869
0.49810 -0.08169
0.49910 -0.19223
0.50010 0.00000
0.50110 0.00000
0.50210 0.00000
0.50310 0.00000
0.50410 0.00000
0.50510 0.00000
0.50610 0.00000
0.50710 0.00000
0.50810 0.00000
0.50910 0.00000
0.51010 0.00000
0.51110 0.00000
0.51210 0.00000
0.51310 0.00000
0.51410 0.00000
0.51510 0.00000
0.51610 0.00000
0.51710 0.00000
0.51810 0.00000
0.51910 0.00000
0.52010 0.00000
0.52110 0.00000
0.52210 0.00000
0.52310 0.00000
0.52410 0.00000
0.52511 0.00000
0.52611 0.00000
0.52711 0.00000
0.52811 0.00000
0.52911 0.00000
0.53011 0.00000
0.53111 0.00000
0.53211 0.00000
0.53311 0.00000
0.53411 0.00000
0.53511 0.00000
0.53611 0.00000
0.53711 0.00000
0.53811 0.00000
0.53911 0.00000
0.54011 0.00000
0.54111 0.00000
0.54211 0.00000
0.54311 0.00000
0.54411 0.00000
0.54511 0.00000
0.54611 0.00000
0.54711 0.00000
0.54811 0.00000
0.54911 0.00000
0.55011 0.00000
0.55111 0.00000
0.55211 0.00000
0.55311 0.00000
0.55411 0.00000
0.55511 0.00000
0.55611 0.00000
0.55711 0.00000
0.55811 0.00000
0.55911 0.00000
0.56011 0.00000
0.56111 0.00000
0.56211 0.00000
0.56311 0.00000
0.56411 0.00000
0.56511 0.00000
0.56611 0.00000
0.56711 0.00000
0.56811 0.00000
0.56911 0.00000
0.57011 0.00000
0.57111 0.00000
0.57211 0.00000
0.57311 0.00000
0.57411 0.00000
0.57512 0.00000
0.57612 0.00000
0.57712 0.00000
0.57812 0.00000
0.57912 0.00000
0.58012 0.00000
0.58112 0.00000
0.58212 0.00000
0.58312 0.00000
0.58412 0.00000
0.58512 0.00000
0.58612 0.00000
0.58712 0.00000
0.58812 0.00000
0.58912 0.00000
0.59012 0.00000
0.59112 0.00000
0.59212 0.00000
0.59312 0.00000
0.59412 0.00000
0.59512 0.00000
0.59612 0.00000
0.59712 0.00000
0.59812 0.00000
0.59912 0.00000
0.60012 0.00000
0.60112 0.00000
0.60212 0.00000
0.60312 0.00000
0.60412 0.00000
0.60512 0.00000
0.60612 0.00000
0.60712 0.00000
0.60812 0.00000
0.60912 0.00000
0.61012 0.00000
0.61112 0.00000
0.61212 0.00000
0.61312 0.00000
0.61412 0.00000
0.61512 0.00000
0.61612 0.00000
0.61712 0.00000
0.61812 0.00000
0.61912 0.00000
0.62012 0.00000
0.62112 0.00000
0.62212 0.00000
0.62312 0.00000
0.62412 0.00000
0.62513 0.00000
0.62613 0.00000
0.62713 0.00000
0.62813 0.00000
0.62913 0.00000
0.63013 0.00000
0.63113 0.00000
0.63213 0.00000
0.63313 0.00000
0.63413 0.00000
0.63513 0.00000
0.63613 0.00000
0.63713 0.00000
0.63813 0.00000
0.63913 0.00000
0.64013 0.00000
0.64113 0.00000
0.64213 0.00000
0.64313 0.00000
0.64413 0.00000
0.64513 0.00000
0.64613 0.00000
0.64713 0.00000
0.64813 0.00000
0.64913 0.00000
0.65013 0.00000
0.65113 0.00000
0.65213 0.00000
0.65313 0.00000
0.65413 0.00000
0.65513 0.00000
0.65613 0.00000
0.65713 0.00000
0.65813 0.00000
0.65913 0.00000
0.66013 0.00000
0.66113 0.00000
0.66213 0.00000
0.66313 0.00000
0.66413 0.00000
0.66513 0.00000
0.66613 0.00000
0.66713 0.00000
0.66813 0.00000
0.66913 0.00000
0.67013 0.00000
0.67113 0.00000
0.67213 0.00000
0.67313 0.00000
0.67413 0.00000
0.67514 0.00000
0.67614 0.00000
0.67714 0.00000
0.67814 0.00000
0.67914 0.00000
0.68014 0.00000
0.68114 0.00000
0.68214 0.00000
0.68314 0.00000
0.68414 0.00000
0.68514 0.00000
0.68614 0.00000
0.68714 0.00000
0.68814 0.00000
0.68914 0.00000
0.69014 0.00000
0.69114 0.00000
0.69214 0.00000
0.69314 0.00000
0.69414 0.00000
0.69514 0.00000
0.69614 0.00000
0.69714 0.00000
0.69814 0.00000
0.69914 0.00000
0.70014 0.00000
0.70114 0.00000
0.70214 0.00000
0.70314 0.00000
0.70414 0.00000
0.70514 0.00000
0.70614 0.00000
0.70714 0.00000
0.70814 0.00000
0.70914 0.00000
0.71014 0.00000
0.71114 0.00000
0.71214 0.00000
0.71314 0.00000
0.71414 0.00000
0.71514 0.00000
0.71614 0.00000
0.71714 0.00000
0.71814 0.00000
0.71914 0.00000
0.72014 0.00000
0.72114 0.00000
0.72214 0.00000
0.72314 0.00000
0.72414 0.00000
0.72515 0.00000
0.72615 0.00000
0.72715 0.00000
0.72815 0.00000
0.72915 0.00000
0.73015 0.00000
0.73115 0.00000
0.73215 0.00000
0.73315 0.00000
0.73415 0.00000
0.73515 0.00000
0.73615 0.00000
0.73715 0.00000
0.73815 0.00000
0.73915 0.00000
0.74015 0.00000
0.74115 0.00000
0.74215 0.00000
0.74315 0.00000
0.74415 0.00000
0.74515 0.00000
0.74615 0.00000
0.74715 0.00000
0.74815 0.00000
0.74915 0.00000
0.75015 0.00000
0.75115 0.00000
0.75215 0.00000
0.75315 0.00000
0.75415 0.00000
0.75515 0.00000
0.75615 0.00000
0.75715 0.00000
0.75815 0.00000
0.75915 0.00000
0.76015 0.00000
0.76115 0.00000
0.76215 0.00000
0.76315 0.00000
0.76415 0.00000
0.76515 0.00000
0.76615 0.00000
0.76715 0.00000
0.76815 0.00000
0.76915 0.00000
0.77015 0.00000
0.77115 0.00000
0.77215 0.00000
0.77315 0.00000
0.77415 0.00000
0.77516 0.00000
0.77616 0.00000
0.77716 0.00000
0.77816 0.00000
0.77916 0.00000
0.78016 0.00000
0.78116 0.00000
0.78216 0.00000
0.78316 0.00000
0.78416 0.00000
0.78516 0.00000
0.78616 0.00000
0.78716 0.00000
0.78816 0.00000
0.78916 0.00000
0.79016 0.00000
0.79116 0.00000
0.79216 0.00000
0.79316 0.00000
0.79416 0.00000
0.79516 0.00000
0.79616 0.00000
0.79716 0.00000
0.79816 0.00000
0.79916 0.00000
0.80016 0.00000
0.80116 0.00000
0.80216 0.00000
0.80316 0.00000
0.80416 0.00000
0.80516 0.00000
0.80616 0.00000
0.80716 0.00000
0.80816 0.00000
0.80916 0.00000
0.81016 0.00000
0.81116 0.00000
0.81216 0.00000
0.81316 0.00000
0.81416 0.00000
0.81516 0.00000
0.81616 0.00000
0.81716 0.00000
0.81816 0.00000
0.81916 0.00000
0.82016 0.00000
0.82116 0.00000
0.82216 0.00000
0.82316 0.00000
0.82416 0.00000
0.82517 0.00000
0.82617 0.00000
0.82717 0.00000
0.82817 0.00000
0.82917 0.00000
0.83017 0.00000
0.83117 0.00000
0.83217 0.00000
0.83317 0.00000
0.83417 0.00000
0.83517 0.00000
0.83617 0.00000
0.83717 0.00000
0.83817 0.00000
0.83917 0.00000
0.84017 0.00000
0.84117 0.00000
0.84217 0.00000
0.84317 0.00000
0.84417 0.00000
0.84517 0.00000
0.84617 0.00000
0.84717 0.00000
0.84817 0.00000
0.84917 0.00000
0.85017 0.00000
0.85117 0.00000
0.85217 0.00000
0.85317 0.00000
0.85417 0.00000
0.85517 0.00000
0.85617 0.00000
0.85717 0.00000
0.85817 0.00000
0.85917 0.00000
0.86017 0.00000
0.86117 0.00000
0.86217 0.00000
0.86317 0.00000
0.86417 0.00000
0.86517 0.00000
0.86617 0.00000
0.86717 0.00000
0.86817 0.00000
0.86917 0.00000
0.87017 0.00000
0.87117 0.00000
0.87217 0.00000
0.87317 0.00000
0.87417 0.00000
0.87518 0.00000
0.87618 0.00000
0.87718 0.00000
0.87818 0.00000
0.87918 0.00000
0.88018 0.00000
0.88118 0.00000
0.88218 0.00000
0.88318 0.00000
0.88418 0.00000
0.88518 0.00000
0.88618 0.00000
0.88718 0.00000
0.88818 0.00000
0.88918 0.00000
0.89018 0.00000
0.89118 0.00000
0.89218 0.00000
0.89318 0.00000
0.89418 0.00000
0.89518 0.00000
0.89618 0.00000
0.89718 0.00000
0.89818 0.00000
0.89918 0.00000
0.90018 0.00000
0.90118 0.00000
0.90218 0.00000
0.90318 0.00000
0.90418 0.00000
0.90518 0.00000
0.90618 0.00000
0.90718 0.00000
0.90818 0.00000
0.90918 0.00000
0.91018 0.00000
0.91118 0.00000
0.91218 0.00000
0.91318 0.00000
0.91418 0.00000
0.91518 0.00000
0.91618 0.00000
0.91718 0.00000
0.91818 0.00000
0.91918 0.00000
0.92018 0.00000
0.92118 0.00000
0.92218 0.00000
0.92318 0.00000
0.92418 0.00000
0.92519 0.00000
0.92619 0.00000
0.92719 0.00000
0.92819 0.00000
0.92919 0.00000
0.93019 0.00000
0.93119 0.00000
0.93219 0.00000
0.93319 0.00000
0.93419 0.00000
0.93519 0.00000
0.93619 0.00000
0.93719 0.00000
0.93819 0.00000
0.93919 0.00000
0.94019 0.00000
0.94119 0.00000
0.94219 0.00000
0.94319 0.00000
0.94419 0.00000
0.94519 0.00000
0.94619 0.00000
0.94719 0.00000
0.94819 0.00000
0.94919 0.00000
0.95019 0.00000
0.95119 0.00000
0.95219 0.00000
0.95319 0.00000
0.95419 0.00000
0.95519 0.00000
0.95619 0.00000
0.95719 0.00000
0.95819 0.00000
0.95919 0.00000
0.96019 0.00000
0.96119 0.00000
0.96219 0.00000
0.96319 0.00000
0.96419 0.00000
0.96519 0.00000
0.96619 0.00000
0.96719 0.00000
0.96819 0.00000
0.96919 0.00000
0.97019 0.00000
0.97119 0.00000
0.97219 0.00000
0.97319 0.00000
0.97419 0.00000
0.97520 0.00000
0.97620 0.00000
0.97720 0.00000
0.97820 0.00000
0.97920 0.00000
0.98020 0.00000
0.98120 0.00000
0.98220 0.00000
0.98320 0.00000
0.98420 0.00000
0.98520 0.00000
0.98620 0.00000
0.98720 0.00000
0.98820 0.00000
0.98920 0.00000
0.99020 0.00000
0.99120 0.00000
0.99220 0.00000
0.99320 0.00000
0.99420 0.00000
0.99520 0.00000
0.99620 0.00000
0.99720 0.00000
0.99820 0.00000
0.99920 0.00000
1.00020 0.00000
1.00120 0.00000
1.00220 0.00000
1.00320 0.00000
1.00420 0.00000
1.00520 0.00000
1.00620 0.00000
1.00720 0.00000
1.00820 0.00000
1.00920 0.00000
1.01020 0.00000
1.01120 0.00000
1.01220 0.00000
1.01320 0.00000
1.01420 0.00000
1.01520 0.00000
1.01620 0.00000
1.01720 0.00000
1.01820 0.00000
1.01920 0.00000
1.02020 0.00000
1.02120 0.00000
1.02220 0.00000
1.02320 0.00000
1.02420 0.00000
1.02521 0.00000
1.02621 0.00000
1.02721 0.00000
1.02821 0.00000
1.02921 0.00000
1.03021 0.00000
1.03121 0.00000
1.03221 0.00000
1.03321 0.00000
1.03421 0.00000
1.03521 0.00000
1.03621 0.00000
1.03721 0.00000
1.03821 0.00000
1.03921 0.00000
1.04021 0.00000
1.04121 0.00000
1.04221 0.00000
1.04321 0.00000
1.04421 0.00000
1.04521 0.00000
1.04621 0.00000
1.04721 0.00000
1.04821 0.00000
1.04921 0.00000
1.05021 0.00000
1.05121 0.00000
1.05221 0.00000
1.05321 0.00000
1.05421 0.00000
1.05521 0.00000
1.05621 0.00000
1.05721 0.00000
1.05821 0.00000
1.05921 0.00000
1.06021 0.00000
1.06121 0.00000
1.06221 0.00000
1.06321 0.00000
1.06421 0.00000
1.06521 0.00000
1.06621 0.00000
1.06721 0.00000
1.06821 0.00000
1.06921 0.00000
1.07021 0.00000
1.07121 0.00000
1.07221 0.00000
1.07321 0.00000
1.07421 0.00000
1.07522 0.00000
1.07622 0.00000
1.07722 0.00000
1.07822 0.00000
1.07922 0.00000
1.08022 0.00000
1.08122 0.00000
1.08222 0.00000
1.08322 0.00000
1.08422 0.00000
1.08522 0.00000
1.08622 0.00000
1.08722 0.00000
1.08822 0.00000
1.08922 0.00000
1.09022 0.00000
1.09122 0.00000
1.09222 0.00000
1.09322 0.00000
1.09422 0.00000
1.09522 0.00000
1.09622 0.00000
1.09722 0.00000
1.09822 0.00000
1.09922 0.00000
1.10022 0.00000
1.10122 0.00000
1.10222 0.00000
1.10322 0.00000
1.10422 0.00000
1.10522 0.00000
1.10622 0.00000
1.10722 0.00000
1.10822 0.00000
1.10922 0.00000
1.11022 0.00000
1.11122 0.00000
1.11222 0.00000
1.11322 0.00000
1.11422 0.00000
1.11522 0.00000
1.11622 0.00000
1.11722 0.00000
1.11822 0.00000
1.11922 0.00000
1.12022 0.00000
1.12122 0.00000
1.12222 0.00000
1.12322 0.00000
1.12422 0.00000
1.12523 0.00000
1.12623 0.00000
1.12723 0.00000
1.12823 0.00000
1.12923 0.00000
1.13023 0.00000
1.13123 0.00000
1.13223 0.00000
1.13323 0.00000
1.13423 0.00000
1.13523 0.00000
1.13623 0.00000
1.13723 0.00000
1.13823 0.00000
1.13923 0.00000
1.14023 0.00000
1.14123 0.00000
1.14223 0.00000
1.14323 0.00000
1.14423 0.00000
1.14523 0.00000
1.14623 0.00000
1.14723 0.00000
1.14823 0.00000
1.14923 0.00000
1.15023 0.00000
1.15123 0.00000
1.15223 0.00000
1.15323 0.00000
1.15423 0.00000
1.15523 0.00000
1.15623 0.00000
1.15723 0.00000
1.15823 0.00000
1.15923 0.00000
1.16023 0.00000
1.16123 0.00000
1.16223 0.00000
1.16323 0.00000
1.16423 0.00000
1.16523 0.00000
1.16623 0.00000
1.16723 0.00000
1.16823 0.00000
1.16923 0.00000
1.17023 0.00000
1.17123 0.00000
1.17223 0.00000
1.17323 0.00000
1.17423 0.00000
1.17524 0.00000
1.17624 0.00000
1.17724 0.00000
1.17824 0.00000
1.17924 0.00000
1.18024 0.00000
1.18124 0.00000
1.18224 0.00000
1.18324 0.00000
1.18424 0.00000
1.18524 0.00000
1.18624 0.00000
1.18724 0.00000
1.18824 0.00000
1.18924 0.00000
1.19024 0.00000
1.19124 0.00000
1.19224 0.00000
1.19324 0.00000
1.19424 0.00000
1.19524 0.00000
1.19624 0.00000
1.19724 0.00000
1.19824 0.00000
1.19924 0.00000
1.20024 -0.08238
1.20124 -0.05393
1.20224 0.44263
1.20324 0.61862
1.20424 0.56094
1.20524 0.61654
1.20624 0.40867
1.20724 0.64273
1.20824 0.37534
1.20924 -0.05988
1.21024 0.03354
1.21124 -0.01145
1.21224 -0.58363
1.21324 -0.21052
1.21424 -0.44317
1.21524 -0.91524
1.21624 -0.32651
1.21724 -0.54325
1.21824 -0.41685
1.21924 -0.26265
1.22024 0.10169
1.22124 -0.03538
1.22224 0.31314
1.22324 0.29306
1.22424 0.44830
1.22525 0.52864
1.22625 0.44479
1.22725 0.29517
1.22825 0.04870
1.22925 0.07523
1.23025 -0.18710
1.23125 -0.18056
1.23225 -0.40101
1.23325 0.02186
1.23425 -0.65203
1.23525 -0.54831
1.23625 -0.47341
1.23725 -0.25908
1.23825 0.05827
1.23925 0.00469
1.24025 0.36204
1.24125 0.10081
1.24225 0.26109
1.24325 0.31777
1.24425 0.51659
1.24525 0.51357
1.24625 0.03156
1.24725 0.29352
1.24825 0.23540
1.24925 0.24686
1.25025 0.19393
1.25125 -0.23398
1.25225 -0.20108
1.25325 -0.52507
1.25425 -0.35875
1.25525 -0.72067
1.25625 -0.28610
1.25725 0.15548
1.25825 0.07757
1.25925 0.06409
1.26025 -0.16849
1.26125 0.11066
1.26225 0.31770
1.26325 0.86978
1.26425 0.52636
1.26525 0.56610
1.26625 0.30792
1.26725 0.70766
1.26825 -0.15386
1.26925 0.20846
1.27025 0.09242
1.27125 -0.20361
1.27225 -0.07535
1.27325 -0.23760
1.27425 -0.71325
1.27526 -0.52757
1.27626 -0.78879
1.27726 -0.31641
1.27826 -0.42294
1.27926 -0.36242
1.28026 0.31136
1.28126 0.43675
1.28226 0.15404
1.28326 0.10251
1.28426 0.42286
1.28526 0.32012
1.28626 0.72925
1.28726 0.42135
1.28826 0.24697
1.28926 -0.10476
1.29026 0.07527
1.29126 -0.27232
1.29226 -0.31258
1.29326 -0.65795
1.29426 -0.49206
1.29526 -0.59815
1.29626 -0.44365
1.29726 -0.54960
1.29826 -0.49826
1.29926 0.14842
1.30026 0.06956
1.30126 0.40417
1.30226 0.05190
1.30326 0.51987
1.30426 0.60497
1.30526 0.78938
1.30626 0.56022
1.30726 0.10733
1.30826 0.06954
1.30926 -0.14879
1.31026 -0.02888
1.31126 -0.09664
1.31226 -0.44017
1.31326 -0.49790
1.31426 -0.38945
1.31526 -0.71231
1.31626 -0.21038
1.31726 -0.45081
1.31826 -0.34140
1.31926 0.04257
1.32026 0.03547
1.32126 0.14277
1.32226 0.55404
1.32326 0.16661
1.32426 0.67612
1.32527 0.28848
1.32627 0.64617
1.32727 0.28766
1.32827 0.31718
1.32927 0.23816
1.33027 -0.23549
1.33127 -0.09912
1.33227 -0.47244
1.33327 -0.13078
1.33427 -0.40588
1.33527 -0.77224
1.33627 -0.92589
1.33727 -0.21992
1.33827 -0.25379
1.33927 -0.10098
1.34027 -0.01541
1.34127 0.18298
1.34227 0.26724
1.34327 0.39528
1.34427 0.41689
1.34527 0.47671
1.34627 0.30491
1.34727 0.24436
1.34827 -0.19418
1.34927 0.05366
1.35027 -0.26721
1.35127 -0.35617
1.35227 -0.42760
1.35327 -0.36053
1.35427 -0.37857
1.35527 -0.27757
1.35627 -0.43152
1.35727 -0.25681
1.35827 -0.22581
1.35927 0.20895
1.36027 -0.01369
1.36127 -0.19052
1.36227 0.44704
1.36327 0.17138
1.36427 0.32788
1.36527 0.23971
1.36627 0.36878
1.36727 0.47098
1.36827 0.87843
1.36927 0.34898
1.37027 0.18737
1.37127 -0.08478
1.37227 -0.48597
1.37327 -0.65801
1.37427 -0.52110
1.37528 -0.38297
1.37628 -0.62626
1.37728 -0.12563
1.37828 -0.49071
1.37928 0.03015
1.38028 -0.20399
1.38128 0.15173
1.38228 0.35032
1.38328 0.39647
1.38428 0.57399
1.38528 0.84378
1.38628 0.06834
1.38728 0.00002
1.38828 0.04857
1.38928 0.35206
1.39028 0.14684
1.39128 -0.36314
1.39228 -0.17135
1.39328 -0.71996
1.39428 -0.80359
1.39528 -0.68339
1.39628 -0.45412
1.39728 -0.22169
1.39828 -0.11012
1.39928 0.15141
1.40028 -0.09997
1.40128 0.54134
1.40228 0.54218
1.40328 0.33617
1.40428 0.30288
1.40528 0.40580
1.40628 0.30952
1.40728 0.37028
1.40828 0.13318
1.40928 0.24321
1.41028 -0.00047
1.41128 0.01349
1.41228 -0.45415
1.41328 -0.35459
1.41428 -0.41988
1.41528 -0.37871
1.41628 -0.73791
1.41728 -0.07667
1.41828 -0.54619
1.41928 -0.06305
1.42028 0.11188
1.42128 0.11797
1.42228 0.66115
1.42328 0.33855
1.42428 0.47739
1.42529 0.83276
1.42629 0.65926
1.42729 0.08520
1.42829 0.31375
1.42929 0.18644
1.43029 0.29882
1.43129 -0.12732
1.43229 -0.08500
1.43329 -0.33194
1.43429 -0.42815
1.43529 -0.27989
1.43629 -0.35756
1.43729 -0.18608
1.43829 -0.11667
1.43929 0.25043
1.44029 0.02721
1.44129 0.30344
1.44229 0.31996
1.44329 0.18053
1.44429 0.67507
1.44529 0.24324
1.44629 0.44705
1.44729 0.32520
1.44829 0.16965
1.44929 0.29083
1.45029 -0.44454
1.45129 -0.33337
1.45229 -0.48057
1.45329 -0.52388
1.45429 -0.51156
1.45529 -0.40129
1.45629 -0.56151
1.45729 -0.13643
1.45829 -0.48340
1.45929 -0.37125
1.46029 -0.22254
1.46129 0.14188
1.46229 0.55897
1.46329 0.46816
1.46429 0.38825
1.46529 0.50145
1.46629 0.36955
1.46729 0.44987
1.46829 0.05544
1.46929 0.17012
1.47029 0.03895
1.47129 -0.20610
1.47229 -0.29273
1.47329 -0.48154
1.47429 -0.40878
1.47530 -0.55540
1.47630 -0.31396
1.47730 -0.36337
1.47830 -0.57518
1.47930 -0.36161
1.48030 -0.08385
1.48130 0.03709
1.48230 0.26007
1.48330 0.21333
1.48430 0.33267
1.48530 0.81960
1.48630 0.35312
1.48730 0.47137
1.48830 0.38737
1.48930 -0.09700
1.49030 -0.20599
1.49130 -0.16375
1.49230 -0.40576
1.49330 -0.19819
1.49430 -0.54277
1.49530 -0.56534
1.49630 -0.61237
1.49730 -0.13184
1.49830 -0.22036
1.49930 -0.18559
1.50030 0.00000
1.50130 0.00000
1.50230 0.00000
1.50330 0.00000
1.50430 0.00000
1.50530 0.00000
1.50630 0.00000
1.50730 0.00000
1.50830 0.00000
1.50930 0.00000
1.51030 0.00000
1.51130 0.00000
1.51230 0.00000
1.51330 0.00000
1.51430 0.00000
1.51530 0.00000
1.51630 0.00000
1.51730 0.00000
1.51830 0.00000
1.51930 0.00000
1.52030 0.00000
1.52130 0.00000
1.52230 0.00000
1.52330 0.00000
1.52430 0.00000
1.52531 0.00000
1.52631 0.00000
1.52731 0.00000
1.52831 0.00000
1.52931 0.00000
1.53031 0.00000
1.53131 0.00000
1.53231 0.00000
1.53331 0.00000
1.53431 0.00000
1.53531 0.00000
1.53631 0.00000
1.53731 0.00000
1.53831 0.00000
1.53931 0.00000
1.54031 0.00000
1.54131 0.00000
1.54231 0.00000
1.54331 0.00000
1.54431 0.00000
1.54531 0.00000
1.54631 0.00000
1.54731 0.00000
1.54831 0.00000
1.54931 0.00000
1.55031 0.00000
1.55131 0.00000
1.55231 0.00000
1.55331 0.00000
1.55431 0.00000
1.55531 0.00000
1.55631 0.00000
1.55731 0.00000
1.55831 0.00000
1.55931 0.00000
1.56031 0.00000
1.56131 0.00000
1.56231 0.00000
1.56331 0.00000
1.56431 0.00000
1.56531 0.00000
1.56631 0.00000
1.56731 0.00000
1.56831 0.00000
1.56931 0.00000
1.57031 0.00000
1.57131 0.00000
1.57231 0.00000
1.57331 0.00000
1.57431 0.00000
1.57532 0.00000
1.57632 0.00000
1.57732 0.00000
1.57832 0.00000
1.57932 0.00000
1.58032 0.00000
1.58132 0.00000
1.58232 0.00000
1.58332 0.00000
1.58432 0.00000
1.58532 0.00000
1.58632 0.00000
1.58732 0.00000
1.58832 0.00000
1.58932 0.00000
1.59032 0.00000
1.59132 0.00000
1.59232 0.00000
1.59332 0.00000
1.59432 0.00000
1.59532 0.00000
1.59632 0.00000
1.59732 0.00000
1.59832 0.00000
1.59932 0.00000
1.60032 0.00000
1.60132 0.00000
1.60232 0.00000
1.60332 0.00000
1.60432 0.00000
1.60532 0.00000
1.60632 0.00000
1.60732 0.00000
1.60832 0.00000
1.60932 0.00000
1.61032 0.00000
1.61132 0.00000
1.61232 0.00000
1.61332 0.00000
1.61432 0.00000
1.61532 0.00000
1.61632 0.00000
1.61732 0.00000
1.61832 0.00000
1.61932 0.00000
1.62032 0.00000
1.62132 0.00000
1.62232 0.00000
1.62332 0.00000
1.62432 0.00000
1.62533 0.00000
1.62633 0.00000
1.62733 0.00000
1.62833 0.00000
1.62933 0.00000
1.63033 0.00000
1.63133 0.00000
1.63233 0.00000
1.63333 0.00000
1.63433 0.00000
1.63533 0.00000
1.63633 0.00000
1.63733 0.00000
1.63833 0.00000
1.63933 0.00000
1.64033 0.00000
1.64133 0.00000
1.64233 0.00000
1.64333 0.00000
1.64433 0.00000
1.64533 0.00000
1.64633 0.00000
1.64733 0.00000
1.64833 0.00000
1.64933 0.00000
1.65033 0.00000
1.65133 0.00000
1.65233 0.00000
1.65333 0.00000
1.65433 0.00000
1.65533 0.00000
1.65633 0.00000
1.65733 0.00000
1.65833 0.00000
1.65933 0.00000
1.66033 0.00000
1.66133 0.00000
1.66233 0.00000
1.66333 0.00000
1.66433 0.00000
1.66533 0.00000
1.66633 0.00000
1.66733 0.00000
1.66833 0.00000
1.66933 0.00000
1.67033 0.00000
1.67133 0.00000
1.67233 0.00000
1.67333 0.00000
1.67433 0.00000
1.67534 0.00000
1.67634 0.00000
1.67734 0.00000
1.67834 0.00000
1.67934 0.00000
1.68034 0.00000
1.68134 0.00000
1.68234 0.00000
1.68334 0.00000
1.68434 0.00000
1.68534 0.00000
1.68634 0.00000
1.68734 0.00000
1.68834 0.00000
1.68934 0.00000
1.69034 0.00000
1.69134 0.00000
1.69234 0.00000
1.69334 0.00000
1.69434 0.00000
1.69534 0.00000
1.69634 0.00000
1.69734 0.00000
1.69834 0.00000
1.69934 0.00000
1.70034 0.00000
1.70134 0.00000
1.70234 0.00000
1.70334 0.00000
1.70434 0.00000
1.70534 0.00000
1.70634 0.00000
1.70734 0.00000
1.70834 0.00000
1.70934 0.00000
1.71034 0.00000
1.71134 0.00000
1.71234 0.00000
1.71334 0.00000
1.71434 0.00000
1.71534 0.00000
1.71634 0.00000
1.71734 0.00000
1.71834 0.00000
1.71934 0.00000
1.72034 0.00000
1.72134 0.00000
1.72234 0.00000
1.72334 0.00000
1.72434 0.00000
1.72535 0.00000
1.72635 0.00000
1.72735 0.00000
1.72835 0.00000
1.72935 0.00000
1.73035 0.00000
1.73135 0.00000
1.73235 0.00000
1.73335 0.00000
1.73435 0.00000
1.73535 0.00000
1.73635 0.00000
1.73735 0.00000
1.73835 0.00000
1.73935 0.00000
1.74035 0.00000
1.74135 0.00000
1.74235 0.00000
1.74335 0.00000
1.74435 0.00000
1.74535 0.00000
1.74635 0.00000
1.74735 0.00000
1.74835 0.00000
1.74935 0.00000
1.75035 0.00000
1.75135 0.00000
1.75235 0.00000
1.75335 0.00000
1.75435 0.00000
1.75535 0.00000
1.75635 0.00000
1.75735 0.00000
1.75835 0.00000
1.75935 0.00000
1.76035 0.00000
1.76135 0.00000
1.76235 0.00000
1.76335 0.00000
1.76435 0.00000
1.76535 0.00000
1.76635 0.00000
1.76735 0.00000
1.76835 0.00000
1.76935 0.00000
1.77035 0.00000
1.77135 0.00000
1.77235 0.00000
1.77335 0.00000
1.77435 0.00000
1.77536 0.00000
1.77636 0.00000
1.77736 0.00000
1.77836 0.00000
1.77936 0.00000
1.78036 0.00000
1.78136 0.00000
1.78236 0.00000
1.78336 0.00000
1.78436 0.00000
1.78536 0.00000
1.78636 0.00000
1.78736 0.00000
1.78836 0.00000
1.78936 0.00000
1.79036 0.00000
1.79136 0.00000
1.79236 0.00000
1.79336 0.00000
1.79436 0.00000
1.79536 0.00000
1.79636 0.00000
1.79736 0.00000
1.79836 0.00000
1.79936 0.00000
1.80036 0.00000
1.80136 0.00000
1.80236 0.00000
1.80336 0.00000
1.80436 0.00000
1.80536 0.00000
1.80636 0.00000
1.80736 0.00000
1.80836 0.00000
1.80936 0.00000
1.81036 0.00000
1.81136 0.00000
1.81236 0.00000
1.81336 0.00000
1.81436 0.00000
1.81536 0.00000
1.81636 0.00000
1.81736 0.00000
1.81836 0.00000
1.81936 0.00000
1.82036 0.00000
1.82136 0.00000
1.82236 0.00000
1.82336 0.00000
1.82436 0.00000
1.82537 0.00000
1.82637 0.00000
1.82737 0.00000
1.82837 0.00000
1.82937 0.00000
1.83037 0.00000
1.83137 0.00000
1.83237 0.00000
1.83337 0.00000
1.83437 0.00000
1.83537 0.00000
1.83637 0.00000
1.83737 0.00000
1.83837 0.00000
1.83937 0.00000
1.84037 0.00000
1.84137 0.00000
1.84237 0.00000
1.84337 0.00000
1.84437 0.00000
1.84537 0.00000
1.84637 0.00000
1.84737 0.00000
1.84837 0.00000
1.84937 0.00000
1.85037 0.00000
1.85137 0.00000
1.85237 0.00000
1.85337 0.00000
1.85437 0.00000
1.85537 0.00000
1.85637 0.00000
1.85737 0.00000
1.85837 0.00000
1.85937 0.00000
1.86037 0.00000
1.86137 0.00000
1.86237 0.00000
1.86337 0.00000
1.86437 0.00000
1.86537 0.00000
1.86637 0.00000
1.86737 0.00000
1.86837 0.00000
1.86937 0.00000
1.87037 0.00000
1.87137 0.00000
1.87237 0.00000
1.87337 0.00000
1.87437 0.00000
1.87538 0.00000
1.87638 0.00000
1.87738 0.00000
1.87838 0.00000
1.87938 0.00000
1.88038 0.00000
1.88138 0.00000
1.88238 0.00000
1.88338 0.00000
1.88438 0.00000
1.88538 0.00000
1.88638 0.00000
1.88738 0.00000
1.88838 0.00000
1.88938 0.00000
1.89038 0.00000
1.89138 0.00000
1.89238 0.00000
1.89338 0.00000
1.89438 0.00000
1.89538 0.00000
1.89638 0.00000
1.89738 0.00000
1.89838 0.00000
1.89938 0.00000
1.90038 0.00000
1.90138 0.00000
1.90238 0.00000
1.90338 0.00000
1.90438 0.00000
1.90538 0.00000
1.90638 0.00000
1.90738 0.00000
1.90838 0.00000
1.90938 0.00000
1.91038 0.00000
1.91138 0.00000
1.91238 0.00000
1.91338 0.00000
1.91438 0.00000
1.91538 0.00000
1.91638 0.00000
1.91738 0.00000
1.91838 0.00000
1.91938 0.00000
1.92038 0.00000
1.92138 0.00000
1.92238 0.00000
1.92338 0.00000
1.92438 0.00000
1.92539 0.00000
1.92639 0.00000
1.92739 0.00000
1.92839 0.00000
1.92939 0.00000
1.93039 0.00000
1.93139 0.00000
1.93239 0.00000
1.93339 0.00000
1.93439 0.00000
1.93539 0.00000
1.93639 0.00000
1.93739 0.00000
1.93839 0.00000
1.93939 0.00000
1.94039 0.00000
1.94139 0.00000
1.94239 0.00000
1.94339 0.00000
1.94439 0.00000
1.94539 0.00000
1.94639 0.00000
1.94739 0.00000
1.94839 0.00000
1.94939 0.00000
1.95039 0.00000
1.95139 0.00000
1.95239 0.00000
1.95339 0.00000
1.95439 0.00000
1.95539 0.00000
1.95639 0.00000
1.95739 0.00000
1.95839 0.00000
1.95939 0.00000
1.96039 0.00000
1.96139 0.00000
1.96239 0.00000
1.96339 0.00000
1.96439 0.00000
1.96539 0.00000
1.96639 0.00000
1.96739 0.00000
1.96839 0.00000
1.96939 0.00000
1.97039 0.00000
1.97139 0.00000
1.97239 0.00000
1.97339 0.00000
1.97439 0.00000
1.97540 0.00000
1.97640 0.00000
1.97740 0.00000
1.97840 0.00000
1.97940 0.00000
1.98040 0.00000
1.98140 0.00000
1.98240 0.00000
1.98340 0.00000
1.98440 0.00000
1.98540 0.00000
1.98640 0.00000
1.98740 0.00000
1.98840 0.00000
1.98940 0.00000
1.99040 0.00000
1.99140 0.00000
1.99240 0.00000
1.99340 0.00000
1.99440 0.00000
1.99540 0.00000
1.99640 0.00000
1.99740 0.00000
1.99840 0.00000
1.99940 0.00000
2.00040 0.00000
2.00140 0.00000
2.00240 0.00000
2.00340 0.00000
2.00440 0.00000
2.00540 0.00000
2.00640 0.00000
2.00740 0.00000
2.00840 0.00000
2.00940 0.00000
2.01040 0.00000
2.01140 0.00000
2.01240 0.00000
2.01340 0.00000
2.01440 0.00000
2.01540 0.00000
2.01640 0.00000
2.01740 0.00000
2.01840 0.00000
2.01940 0.00000
2.02040 0.00000
2.02140 0.00000
2.02240 0.00000
2.02340 0.00000
2.02440 0.00000
2.02541 0.00000
2.02641 0.00000
2.02741 0.00000
2.02841 0.00000
2.02941 0.00000
2.03041 0.00000
2.03141 0.00000
2.03241 0.00000
2.03341 0.00000
2.03441 0.00000
2.03541 0.00000
2.03641 0.00000
2.03741 0.00000
2.03841 0.00000
2.03941 0.00000
2.04041 0.00000
2.04141 0.00000
2.04241 0.00000
2.04341 0.00000
2.04441 0.00000
2.04541 0.00000
2.04641 0.00000
2.04741 0.00000
2.04841 0.00000
2.04941 0.00000
2.05041 0.00000
2.05141 0.00000
2.05241 0.00000
2.05341 0.00000
2.05441 0.00000
2.05541 0.00000
2.05641 0.00000
2.05741 0.00000
2.05841 0.00000
2.05941 0.00000
2.06041 0.00000
2.06141 0.00000
2.06241 0.00000
2.06341 0.00000
2.06441 0.00000
2.06541 0.00000
2.06641 0.00000
2.06741 0.00000
2.06841 0.00000
2.06941 0.00000
2.07041 0.00000
2.07141 0.00000
2.07241 0.00000
2.07341 0.00000
2.07441 0.00000
2.07542 0.00000
2.07642 0.00000
2.07742 0.00000
2.07842 0.00000
2.07942 0.00000
2.08042 0.00000
2.08142 0.00000
2.08242 0.00000
2.08342 0.00000
2.08442 0.00000
2.08542 0.00000
2.08642 0.00000
2.08742 0.00000
2.08842 0.00000
2.08942 0.00000
2.09042 0.00000
2.09142 0.00000
2.09242 0.00000
2.09342 0.00000
2.09442 0.00000
2.09542 0.00000
2.09642 0.00000
2.09742 0.00000
2.09842 0.00000
2.09942 0.00000
2.10042 0.00000
2.10142 0.00000
2.10242 0.00000
2.10342 0.00000
2.10442 0.00000
2.10542 0.00000
2.10642 0.00000
2.10742 0.00000
2.10842 0.00000
2.10942 0.00000
2.11042 0.00000
2.11142 0.00000
2.11242 0.00000
2.11342 0.00000
2.11442 0.00000
2.11542 0.00000
2.11642 0.00000
2.11742 0.00000
2.11842 0.00000
2.11942 0.00000
2.12042 0.00000
2.12142 0.00000
2.12242 0.00000
2.12342 0.00000
2.12442 0.00000
2.12543 0.00000
2.12643 0.00000
2.12743 0.00000
2.12843 0.00000
2.12943 0.00000
2.13043 0.00000
2.13143 0.00000
2.13243 0.00000
2.13343 0.00000
2.13443 0.00000
2.13543 0.00000
2.13643 0.00000
2.13743 0.00000
2.13843 0.00000
2.13943 0.00000
2.14043 0.00000
2.14143 0.00000
2.14243 0.00000
2.14343 0.00000
2.14443 0.00000
2.14543 0.00000
2.14643 0.00000
2.14743 0.00000
2.14843 0.00000
2.14943 0.00000
2.15043 0.00000
2.15143 0.00000
2.15243 0.00000
2.15343 0.00000
2.15443 0.00000
2.15543 0.00000
2.15643 0.00000
2.15743 0.00000
2.15843 0.00000
2.15943 0.00000
2.16043 0.00000
2.16143 0.00000
2.16243 0.00000
2.16343 0.00000
2.16443 0.00000
2.16543 0.00000
2.16643 0.00000
2.16743 0.00000
2.16843 0.00000
2.16943 0.00000
2.17043 0.00000
2.17143 0.00000
2.17243 0.00000
2.17343 0.00000
2.17443 0.00000
2.17544 0.00000
2.17644 0.00000
2.17744 0.00000
2.17844 0.00000
2.17944 0.00000
2.18044 0.00000
2.18144 0.00000
2.18244 0.00000
2.18344 0.00000
2.18444 0.00000
2.18544 0.00000
2.18644 0.00000
2.18744 0.00000
2.18844 0.00000
2.18944 0.00000
2.19044 0.00000
2.19144 0.00000
2.19244 0.00000
2.19344 0.00000
2.19444 0.00000
2.19544 0.00000
2.19644 0.00000
2.19744 0.00000
2.19844 0.00000
2.19944 0.00000
2.20044 0.05999
2.20144 0.47881
2.20244 0.43790
2.20344 0.12315
2.20444 0.54046
2.20544 0.67222
2.20644 0.15317
2.20744 0.41835
2.20844 0.03751
2.20944 0.44072
2.21044 -0.08702
2.21144 0.15542
2.21244 -0.34010
2.21344 -0.45290
2.21444 -0.77473
2.21544 -0.51279
2.21644 -0.42975
2.21744 -0.47136
2.21844 -0.07412
2.21944 -0.14089
2.22044 -0.01883
2.22144 0.13495
2.22244 0.27736
2.22344 0.36127
2.22444 0.62412
2.22545 0.49015
2.22645 0.32288
2.22745 0.33599
2.22845 0.05992
2.22945 0.57124
2.23045 0.02533
2.23145 -0.05486
2.23245 -0.23876
2.23345 -0.56563
2.23445 -0.42260
2.23545 -0.45767
2.23645 -0.45963
2.23745 -0.47926
2.23845 -0.09907
2.23945 0.31862
2.24045 -0.06728
2.24145 0.11243
2.24245 0.38367
2.24345 0.39136
2.24445 0.61403
2.24545 0.21253
2.24645 0.71028
2.24745 0.55517
2.24845 0.34762
2.24945 -0.09587
2.25045 0.28528
2.25145 -0.22622
2.25245 -0.38342
2.25345 -0.23351
2.25445 -0.47476
2.25545 -0.58316
2.25645 -0.34902
2.25745 -0.23259
2.25845 -0.22772
2.25945 -0.36290
2.26045 -0.07557
2.26145 0.10766
2.26245 0.66377
2.26345 0.45845
2.26445 0.58307
2.26545 0.63288
2.26645 -0.09008
2.26745 0.34392
2.26845 0.08364
2.26945 0.26603
2.27045 -0.14095
2.27145 -0.41664
2.27245 -0.34483
2.27345 -0.25340
2.27445 -0.62984
2.27546 -0.24967
2.27646 -0.67586
2.27746 -0.32711
2.27846 0.10222
2.27946 -0.32078
2.28046 -0.11389
2.28146 0.14230
2.28246 0.66992
2.28346 0.27975
2.28446 0.38270
2.28546 0.43778
2.28646 0.36408
2.28746 0.36238
2.28846 -0.03485
2.28946 0.08367
2.29046 -0.22848
2.29146 0.00131
2.29246 -0.37329
2.29346 -0.45130
2.29446 -0.46123
2.29546 -0.26727
2.29646 -0.46295
2.29746 -0.51935
2.29846 -0.39073
2.29946 -0.19861
2.30046 -0.05167
2.30146 0.31279
2.30246 0.08443
2.30346 0.67045
2.30446 0.45747
2.30546 0.60972
2.30646 0.80613
2.30746 0.78821
2.30846 0.14775
2.30946 0.11406
2.31046 0.12909
2.31146 -0.34096
2.31246 -0.35127
2.31346 -0.48791
2.31446 -0.25102
2.31546 -0.65721
2.31646 -0.56863
2.31746 -0.48648
2.31846 -0.23879
2.31946 -0.01082
2.32046 0.16260
2.32146 0.21061
2.32246 0.29110
2.32346 0.14696
2.32446 0.26273
2.32547 0.64657
2.32647 0.46326
2.32747 0.16681
2.32847 -0.03904
2.32947 0.27500
2.33047 -0.16030
2.33147 -0.46966
2.33247 -0.08100
2.33347 -0.79529
2.33447 -0.56811
2.33547 -0.73864
2.33647 -0.35001
2.33747 -0.28122
2.33847 -0.04837
2.33947 -0.36612
2.34047 0.20867
2.34147 0.31778
2.34247 0.32411
2.34347 0.54396
2.34447 0.23634
2.34547 0.74197
2.34647 0.41862
2.34747 0.41890
2.34847 0.18633
2.34947 0.30361
2.35047 0.14256
2.35147 -0.17805
2.35247 -0.35287
2.35347 -0.18845
2.35447 -0.76919
2.35547 -0.58635
2.35647 -0.55340
2.35747 -0.47098
2.35847 0.23581
2.35947 -0.07893
2.36047 -0.17974
2.36147 0.14498
2.36247 0.43259
2.36347 0.14807
2.36447 0.65475
2.36547 0.49474
2.36647 0.30599
2.36747 0.29209
2.36847 0.11790
2.36947 0.28713
2.37047 -0.17657
2.37147 -0.21031
2.37247 -0.38765
2.37347 -0.70868
2.37447 -0.46676
2.37548 -0.25351
2.37648 -0.70572
2.37748 -0.23751
2.37848 -0.17018
2.37948 -0.19210
2.38048 0.06440
2.38148 -0.20989
2.38248 0.31762
2.38348 0.61124
2.38448 0.50466
2.38548 0.48647
2.38648 0.22090
2.38748 0.54305
2.38848 0.28661
2.38948 0.04029
2.39048 0.04414
2.39148 -0.02810
2.39248 -0.23723
2.39348 -0.43441
2.39448 -0.79613
2.39548 -0.29482
2.39648 -0.39122
2.39748 -0.59593
2.39848 -0.23825
2.39948 -0.23785
2.40048 -0.28067
2.40148 0.10672
2.40248 0.00917
2.40348 0.25034
2.40448 0.49089
2.40548 0.35425
2.40648 0.49073
2.40748 0.43626
2.40848 0.69529
2.40948 -0.11953
2.41048 -0.19577
2.41148 -0.21366
2.41248 -0.49332
2.41348 -0.30916
2.41448 -0.35951
2.41548 -0.21005
2.41648 -0.36020
2.41748 -0.28475
2.41848 -0.15174
2.41948 -0.41208
2.42048 0.25723
2.42148 0.11145
2.42248 0.67394
2.42348 0.85924
2.42448 0.56089
2.42549 0.29378
2.42649 0.30115
2.42749 0.43252
2.42849 0.21577
2.42949 -0.02570
2.43049 -0.05044
2.43149 -0.09386
2.43249 -0.37246
2.43349 -0.42708
2.43449 -0.43232
2.43549 -0.55365
2.43649 -0.36559
2.43749 -0.20828
2.43849 -0.10882
2.43949 -0.56219
2.44049 -0.00911
2.44149 0.37827
2.44249 0.20036
2.44349 0.27757
2.44449 0.48125
2.44549 0.39049
2.44649 0.03602
2.44749 0.31558
2.44849 0.39356
2.44949 0.24775
2.45049 0.06446
2.45149 -0.45114
2.45249 -0.59454
2.45349 -0.41685
2.45449 -0.59951
2.45549 -0.58877
2.45649 -0.48981
2.45749 -0.21495
2.45849 -0.41729
2.45949 -0.28049
2.46049 -0.12900
2.46149 0.04921
2.46249 0.53241
2.46349 0.70586
2.46449 0.40762
2.46549 0.55469
2.46649 0.57467
2.46749 0.48133
2.46849 0.52107
2.46949 0.12540
2.47049 0.07058
2.47149 -0.48171
2.47249 -0.18975
2.47349 -0.52095
2.47449 -0.54412
2.47550 -0.21199
2.47650 -0.69618
2.47750 -0.22775
2.47850 0.00815
2.47950 -0.22848
2.48050 -0.22593
2.48150 0.36625
2.48250 0.26058
2.48350 0.40479
2.48450 0.47051
2.48550 0.22550
2.48650 0.23063
2.48750 0.00441
2.48850 0.38959
2.48950 0.17421
2.49050 -0.21160
2.49150 -0.20744
2.49250 -0.62049
2.49350 -0.76518
2.49450 -0.47081
2.49550 -0.60134
2.49650 -0.58338
2.49750 -0.41566
2.49850 -0.15643
2.49950 -0.24305
2.50050 0.00000
2.50150 0.00000
2.50250 0.00000
2.50350 0.00000
2.50450 0.00000
2.50550 0.00000
2.50650 0.00000
2.50750 0.00000
2.50850 0.00000
2.50950 0.00000
2.51050 0.00000
2.51150 0.00000
2.51250 0.00000
2.51350 0.00000
2.51450 0.00000
2.51550 0.00000
2.51650 0.00000
2.51750 0.00000
2.51850 0.00000
2.51950 0.00000
2.52050 0.00000
2.52150 0.00000
2.52250 0.00000
2.52350 0.00000
2.52450 0.00000
2.52551 0.00000
2.52651 0.00000
2.52751 0.00000
2.52851 0.00000
2.52951 0.00000
2.53051 0.00000
2.53151 0.00000
2.53251 0.00000
2.53351 0.00000
2.53451 0.00000
2.53551 0.00000
2.53651 0.00000
2.53751 0.00000
2.53851 0.00000
2.53951 0.00000
2.54051 0.00000
2.54151 0.00000
2.54251 0.00000
2.54351 0.00000
2.54451 0.00000
2.54551 0.00000
2.54651 0.00000
2.54751 0.00000
2.54851 0.00000
2.54951 0.00000
2.55051 0.00000
2.55151 0.00000
2.55251 0.00000
2.55351 0.00000
2.55451 0.00000
2.55551 0.00000
2.55651 0.00000
2.55751 0.00000
2.55851 0.00000
2.55951 0.00000
2.56051 0.00000
2.56151 0.00000
2.56251 0.00000
2.56351 0.00000
2.56451 0.00000
2.56551 0.00000
2.56651 0.00000
2.56751 0.00000
2.56851 0.00000
2.56951 0.00000
2.57051 0.00000
2.57151 0.00000
2.57251 0.00000
2.57351 0.00000
2.57451 0.00000
2.57552 0.00000
2.57652 0.00000
2.57752 0.00000
2.57852 0.00000
2.57952 0.00000
2.58052 0.00000
2.58152 0.00000
2.58252 0.00000
2.58352 0.00000
2.58452 0.00000
2.58552 0.00000
2.58652 0.00000
2.58752 0.00000
2.58852 0.00000
2.58952 0.00000
2.59052 0.00000
2.59152 0.00000
2.59252 0.00000
2.59352 0.00000
2.59452 0.00000
2.59552 0.00000
2.59652 0.00000
2.59752 0.00000
2.59852 0.00000
2.59952 0.00000
2.60052 0.00000
2.60152 0.00000
2.60252 0.00000
2.60352 0.00000
2.60452 0.00000
2.60552 0.00000
2.60652 0.00000
2.60752 0.00000
2.60852 0.00000
2.60952 0.00000
2.61052 0.00000
2.61152 0.00000
2.61252 0.00000
2.61352 0.00000
2.61452 0.00000
2.61552 0.00000
2.61652 0.00000
2.61752 0.00000
2.61852 0.00000
2.61952 0.00000
2.62052 0.00000
2.62152 0.00000
2.62252 0.00000
2.62352 0.00000
2.62452 0.00000
2.62553 0.00000
2.62653 0.00000
2.62753 0.00000
2.62853 0.00000
2.62953 0.00000
2.63053 0.00000
2.63153 0.00000
2.63253 0.00000
2.63353 0.00000
2.63453 0.00000
2.63553 0.00000
2.63653 0.00000
2.63753 0.00000
2.63853 0.00000
2.63953 0.00000
2.64053 0.00000
2.64153 0.00000
2.64253 0.00000
2.64353 0.00000
2.64453 0.00000
2.64553 0.00000
2.64653 0.00000
2.64753 0.00000
2.64853 0.00000
2.64953 0.00000
2.65053 0.00000
2.65153 0.00000
2.65253 0.00000
2.65353 0.00000
2.65453 0.00000
2.65553 0.00000
2.65653 0.00000
2.65753 0.00000
2.65853 0.00000
2.65953 0.00000
2.66053 0.00000
2.66153 0.00000
2.66253 0.00000
2.66353 0.00000
2.66453 0.00000
2.66553 0.00000
2.66653 0.00000
2.66753 0.00000
2.66853 0.00000
2.66953 0.00000
2.67053 0.00000
2.67153 0.00000
2.67253 0.00000
2.67353 0.00000
2.67453 0.00000
2.67554 0.00000
2.67654 0.00000
2.67754 0.00000
2.67854 0.00000
2.67954 0.00000
2.68054 0.00000
2.68154 0.00000
2.68254 0.00000
2.68354 0.00000
2.68454 0.00000
2.68554 0.00000
2.68654 0.00000
2.68754 0.00000
2.68854 0.00000
2.68954 0.00000
2.69054 0.00000
2.69154 0.00000
2.69254 0.00000
2.69354 0.00000
2.69454 0.00000
2.69554 0.00000
2.69654 0.00000
2.69754 0.00000
2.69854 0.00000
2.69954 0.00000
2.70054 0.00000
2.70154 0.00000
2.70254 0.00000
2.70354 0.00000
2.70454 0.00000
2.70554 0.00000
2.70654 0.00000
2.70754 0.00000
2.70854 0.00000
2.70954 0.00000
2.71054 0.00000
2.71154 0.00000
2.71254 0.00000
2.71354 0.00000
2.71454 0.00000
2.71554 0.00000
2.71654 0.00000
2.71754 0.00000
2.71854 0.00000
2.71954 0.00000
2.72054 0.00000
2.72154 0.00000
2.72254 0.00000
2.72354 0.00000
2.72454 0.00000
2.72555 0.00000
2.72655 0.00000
2.72755 0.00000
2.72855 0.00000
2.72955 0.00000
2.73055 0.00000
2.73155 0.00000
2.73255 0.00000
2.73355 0.00000
2.73455 0.00000
2.73555 0.00000
2.73655 0.00000
2.73755 0.00000
2.73855 0.00000
2.73955 0.00000
2.74055 0.00000
2.74155 0.00000
2.74255 0.00000
2.74355 0.00000
2.74455 0.00000
2.74555 0.00000
2.74655 0.00000
2.74755 0.00000
2.74855 0.00000
2.74955 0.00000
2.75055 0.00000
2.75155 0.00000
2.75255 0.00000
2.75355 0.00000
2.75455 0.00000
2.75555 0.00000
2.75655 0.00000
2.75755 0.00000
2.75855 0.00000
2.75955 0.00000
2.76055 0.00000
2.76155 0.00000
2.76255 0.00000
2.76355 0.00000
2.76455 0.00000
2.76555 0.00000
2.76655 0.00000
2.76755 0.00000
2.76855 0.00000
2.76955 0.00000
2.77055 0.00000
2.77155 0.00000
2.77255 0.00000
2.77355 0.00000
2.77455 0.00000
2.77556 0.00000
2.77656 0.00000
2.77756 0.00000
2.77856 0.00000
2.77956 0.00000
2.78056 0.00000
2.78156 0.00000
2.78256 0.00000
2.78356 0.00000
2.78456 0.00000
2.78556 0.00000
2.78656 0.00000
2.78756 0.00000
2.78856 0.00000
2.78956 0.00000
2.79056 0.00000
2.79156 0.00000
2.79256 0.00000
2.79356 0.00000
2.79456 0.00000
2.79556 0.00000
2.79656 0.00000
2.79756 0.00000
2.79856 0.00000
2.79956 0.00000
2.80056 0.00000
2.80156 0.00000
2.80256 0.00000
2.80356 0.00000
2.80456 0.00000
2.80556 0.00000
2.80656 0.00000
2.80756 0.00000
2.80856 0.00000
2.80956 0.00000
2.81056 0.00000
2.81156 0.00000
2.81256 0.00000
2.81356 0.00000
2.81456 0.00000
2.81556 0.00000
2.81656 0.00000
2.81756 0.00000
2.81856 0.00000
2.81956 0.00000
2.82056 0.00000
2.82156 0.00000
2.82256 0.00000
2.82356 0.00000
2.82456 0.00000
2.82557 0.00000
2.82657 0.00000
2.82757 0.00000
2.82857 0.00000
2.82957 0.00000
2.83057 0.00000
2.83157 0.00000
2.83257 0.00000
2.83357 0.00000
2.83457 0.00000
2.83557 0.00000
2.83657 0.00000
2.83757 0.00000
2.83857 0.00000
2.83957 0.00000
2.84057 0.00000
2.84157 0.00000
2.84257 0.00000
2.84357 0.00000
2.84457 0.00000
2.84557 0.00000
2.84657 0.00000
2.84757 0.00000
2.84857 0.00000
2.84957 0.00000
2.85057 0.00000
2.85157 0.00000
2.85257 0.00000
2.85357 0.00000
2.85457 0.00000
2.85557 0.00000
2.85657 0.00000
2.85757 0.00000
2.85857 0.00000
2.85957 0.00000
2.86057 0.00000
2.86157 0.00000
2.86257 0.00000
2.86357 0.00000
2.86457 0.00000
2.86557 0.00000
2.86657 0.00000
2.86757 0.00000
2.86857 0.00000
2.86957 0.00000
2.87057 0.00000
2.87157 0.00000
2.87257 0.00000
2.87357 0.00000
2.87457 0.00000
2.87558 0.00000
2.87658 0.00000
2.87758 0.00000
2.87858 0.00000
2.87958 0.00000
2.88058 0.00000
2.88158 0.00000
2.88258 0.00000
2.88358 0.00000
2.88458 0.00000
2.88558 0.00000
2.88658 0.00000
2.88758 0.00000
2.88858 0.00000
2.88958 0.00000
2.89058 0.00000
2.89158 0.00000
2.89258 0.00000
2.89358 0.00000
2.89458 0.00000
2.89558 0.00000
2.89658 0.00000
2.89758 0.00000
2.89858 0.00000
2.89958 0.00000
2.90058 0.00000
2.90158 0.00000
2.90258 0.00000
2.90358 0.00000
2.90458 0.00000
2.90558 0.00000
2.90658 0.00000
2.90758 0.00000
2.90858 0.00000
2.90958 0.00000
2.91058 0.00000
2.91158 0.00000
2.91258 0.00000
2.91358 0.00000
2.91458 0.00000
2.91558 0.00000
2.91658 0.00000
2.91758 0.00000
2.91858 0.00000
2.91958 0.00000
2.92058 0.00000
2.92158 0.00000
2.92258 0.00000
2.92358 0.00000
2.92458 0.00000
2.92559 0.00000
2.92659 0.00000
2.92759 0.00000
2.92859 0.00000
2.92959 0.00000
2.93059 0.00000
2.93159 0.00000
2.93259 0.00000
2.93359 0.00000
2.93459 0.00000
2.93559 0.00000
2.93659 0.00000
2.93759 0.00000
2.93859 0.00000
2.93959 0.00000
2.94059 0.00000
2.94159 0.00000
2.94259 0.00000
2.94359 0.00000
2.94459 0.00000
2.94559 0.00000
2.94659 0.00000
2.94759 0.00000
2.94859 0.00000
2.94959 0.00000
2.95059 0.00000
2.95159 0.00000
2.95259 0.00000
2.95359 0.00000
2.95459 0.00000
2.95559 0.00000
2.95659 0.00000
2.95759 0.00000
2.95859 0.00000
2.95959 0.00000
2.96059 0.00000
2.96159 0.00000
2.96259 0.00000
2.96359 0.00000
2.96459 0.00000
2.96559 0.00000
2.96659 0.00000
2.96759 0.00000
2.96859 0.00000
2.96959 0.00000
2.97059 0.00000
2.97159 0.00000
2.97259 0.00000
2.97359 0.00000
2.97459 0.00000
2.97560 0.00000
2.97660 0.00000
2.97760 0.00000
2.97860 0.00000
2.97960 0.00000
2.98060 0.00000
2.98160 0.00000
2.98260 0.00000
2.98360 0.00000
2.98460 0.00000
2.98560 0.00000
2.98660 0.00000
2.98760 0.00000
2.98860 0.00000
2.98960 0.00000
2.99060 0.00000
2.99160 0.00000
2.99260 0.00000
2.99360 0.00000
2.99460 0.00000
2.99560 0.00000
2.99660 0.00000
2.99760 0.00000
2.99860 0.00000
2.99960 0.00000
3.00060 0.00000
3.00160 0.00000
3.00260 0.00000
3.00360 0.00000
3.00460 0.00000
3.00560 0.00000
3.00660 0.00000
3.00760 0.00000
3.00860 0.00000
3.00960 0.00000
3.01060 0.00000
3.01160 0.00000
3.01260 0.00000
3.01360 0.00000
3.01460 0.00000
3.01560 0.00000
3.01660 0.00000
3.01760 0.00000
3.01860 0.00000
3.01960 0.00000
3.02060 0.00000
3.02160 0.00000
3.02260 0.00000
3.02360 0.00000
3.02460 0.00000
3.02561 0.00000
3.02661 0.00000
3.02761 0.00000
3.02861 0.00000
3.02961 0.00000
3.03061 0.00000
3.03161 0.00000
3.03261 0.00000
3.03361 0.00000
3.03461 0.00000
3.03561 0.00000
3.03661 0.00000
3.03761 0.00000
3.03861 0.00000
3.03961 0.00000
3.04061 0.00000
3.04161 0.00000
3.04261 0.00000
3.04361 0.00000
3.04461 0.00000
3.04561 0.00000
3.04661 0.00000
3.04761 0.00000
3.04861 0.00000
3.04961 0.00000
3.05061 0.00000
3.05161 0.00000
3.05261 0.00000
3.05361 0.00000
3.05461 0.00000
3.05561 0.00000
3.05661 0.00000
3.05761 0.00000
3.05861 0.00000
3.05961 0.00000
3.06061 0.00000
3.06161 0.00000
3.06261 0.00000
3.06361 0.00000
3.06461 0.00000
3.06561 0.00000
3.06661 0.00000
3.06761 0.00000
3.06861 0.00000
3.06961 0.00000
3.07061 0.00000
3.07161 0.00000
3.07261 0.00000
3.07361 0.00000
3.07461 0.00000
3.07562 0.00000
3.07662 0.00000
3.07762 0.00000
3.07862 0.00000
3.07962 0.00000
3.08062 0.00000
3.08162 0.00000
3.08262 0.00000
3.08362 0.00000
3.08462 0.00000
3.08562 0.00000
3.08662 0.00000
3.08762 0.00000
3.08862 0.00000
3.08962 0.00000
3.09062 0.00000
3.09162 0.00000
3.09262 0.00000
3.09362 0.00000
3.09462 0.00000
3.09562 0.00000
3.09662 0.00000
3.09762 0.00000
3.09862 0.00000
3.09962 0.00000
3.10062 0.00000
3.10162 0.00000
3.10262 0.00000
3.10362 0.00000
3.10462 0.00000
3.10562 0.00000
3.10662 0.00000
3.10762 0.00000
3.10862 0.00000
3.10962 0.00000
3.11062 0.00000
3.11162 0.00000
3.11262 0.00000
3.11362 0.00000
3.11462 0.00000
3.11562 0.00000
3.11662 0.00000
3.11762 0.00000
3.11862 0.00000
3.11962 0.00000
3.12062 0.00000
3.12162 0.00000
3.12262 0.00000
3.12362 0.00000
3.12462 0.00000
3.12563 0.00000
3.12663 0.00000
3.12763 0.00000
3.12863 0.00000
3.12963 0.00000
3.13063 0.00000
3.13163 0.00000
3.13263 0.00000
3.13363 0.00000
3.13463 0.00000
3.13563 0.00000
3.13663 0.00000
3.13763 0.00000
3.13863 0.00000
3.13963 0.00000
3.14063 0.00000
3.14163 0.00000
3.14263 0.00000
3.14363 0.00000
3.14463 0.00000
3.14563 0.00000
3.14663 0.00000
3.14763 0.00000
3.14863 0.00000
3.14963 0.00000
3.15063 0.00000
3.15163 0.00000
3.15263 0.00000
3.15363 0.00000
3.15463 0.00000
3.15563 0.00000
3.15663 0.00000
3.15763 0.00000
3.15863 0.00000
3.15963 0.00000
3.16063 0.00000
3.16163 0.00000
3.16263 0.00000
3.16363 0.00000
3.16463 0.00000
3.16563 0.00000
3.16663 0.00000
3.16763 0.00000
3.16863 0.00000
3.16963 0.00000
3.17063 0.00000
3.17163 0.00000
3.17263 0.00000
3.17363 0.00000
3.17463 0.00000
3.17564 0.00000
3.17664 0.00000
3.17764 0.00000
3.17864 0.00000
3.17964 0.00000
3.18064 0.00000
3.18164 0.00000
3.18264 0.00000
3.18364 0.00000
3.18464 0.00000
3.18564 0.00000
3.18664 0.00000
3.18764 0.00000
3.18864 0.00000
3.18964 0.00000
3.19064 0.00000
3.19164 0.00000
3.19264 0.00000
3.19364 0.00000
3.19464 0.00000
3.19564 0.00000
3.19664 0.00000
3.19764 0.00000
3.19864 0.00000
3.19964 0.00000
3.20064 -0.15613
3.20164 0.19298
3.20264 0.42376
3.20364 0.45405
3.20464 0.82108
3.20564 0.28756
3.20664 0.25461
3.20764 0.29069
3.20864 0.24452
3.20964 -0.18742
3.21064 -0.18398
3.21164 -0.54760
3.21264 -0.52938
3.21364 -0.58229
3.21464 -0.53951
3.21564 -0.38924
3.21664 -0.68400
3.21764 -0.27837
3.21864 -0.03769
3.21964 0.02984
3.22064 0.00598
3.22164 -0.11432
3.22264 0.63085
3.22364 0.06561
3.22464 0.25585
3.22565 0.56541
3.22665 0.59069
3.22765 0.21196
3.22865 0.18253
3.22965 0.30208
3.23065 -0.15828
3.23165 -0.06785
3.23265 -0.31423
3.23365 -0.46030
3.23465 -0.74789
3.23565 -0.35979
3.23665 -0.83360
3.23765 -0.34733
3.23865 -0.31511
3.23965 -0.06748
3.24065 0.43117
3.24165 0.34734
3.24265 0.25087
3.24365 0.41616
3.24465 0.41929
3.24565 0.14715
3.24665 0.65584
3.24765 0.03504
3.24865 0.66730
3.24965 -0.04153
3.25065 -0.06309
3.25165 -0.18754
3.25265 -0.25739
3.25365 -0.53398
3.25465 -0.35414
3.25565 -1.00000
3.25665 -0.33535
3.25765 -0.55404
3.25865 -0.07452
3.25965 -0.28605
3.26065 0.16487
3.26165 0.61842
3.26265 -0.01506
3.26365 0.69837
3.26465 0.66474
3.26565 0.61260
3.26665 0.39818
3.26765 0.45963
3.26865 0.11944
3.26965 0.34483
3.27065 -0.14575
3.27165 -0.34370
3.27265 -0.34467
3.27365 -0.66682
3.27465 -0.70084
3.27566 -0.34653
3.27666 -0.59640
3.27766 -0.21633
3.27866 -0.35984
3.27966 -0.19214
3.28066 0.06524
3.28166 0.05853
3.28266 0.21866
3.28366 0.22891
3.28466 0.57598
3.28566 0.61694
3.28666 0.10478
3.28766 0.41842
3.28866 0.00808
3.28966 -0.11816
3.29066 0.08661
3.29166 -0.23426
3.29266 -0.60905
3.29366 -0.61112
3.29466 -0.51714
3.29566 -0.34793
3.29666 0.17203
3.29766 -0.47776
3.29866 0.02528
3.29966 -0.27407
3.30066 0.30738
3.30166 0.05522
3.30266 0.29769
3.30366 0.63109
3.30466 0.35727
3.30566 0.63222
3.30666 0.37531
3.30766 0.57079
3.30866 0.34099
3.30966 0.17285
3.31066 -0.31701
3.31166 -0.28719
3.31266 -0.61266
3.31366 -0.24542
3.31466 -0.28404
3.31566 -0.51847
3.31666 -0.36931
3.31766 -0.28956
3.31866 -0.06669
3.31966 0.00988
3.32066 0.01505
3.32166 -0.03887
3.32266 0.44155
3.32366 0.73373
3.32466 0.53444
3.32567 0.37763
3.32667 0.20271
3.32767 0.01099
3.32867 0.23103
3.32967 0.05023
3.33067 -0.00266
3.33167 0.14789
3.33267 -0.46542
3.33367 -0.65072
3.33467 -0.51526
3.33567 -0.52418
3.33667 -0.66501
3.33767 -0.51656
3.33867 -0.05425
3.33967 -0.04866
3.34067 -0.25595
3.34167 -0.02364
3.34267 0.62498
3.34367 0.57712
3.34467 0.69177
3.34567 0.41770
3.34667 0.25766
3.34767 -0.01206
3.34867 0.22649
3.34967 0.35659
3.35067 -0.02305
3.35167 -0.29258
3.35267 -0.39664
3.35367 -0.50146
3.35467 -0.34718
3.35567 -0.42438
3.35667 -0.28424
3.35767 -0.50487
3.35867 -0.02205
3.35967 -0.29014
3.36067 0.08167
3.36167 0.19406
3.36267 0.56805
3.36367 0.62268
3.36467 0.27610
3.36567 0.39009
3.36667 0.27131
3.36767 0.17956
3.36867 0.19981
3.36967 -0.00715
3.37067 -0.42738
3.37167 0.15648
3.37267 -0.42778
3.37367 -0.64860
3.37467 -0.77989
3.37568 -0.64331
3.37668 -0.40472
3.37768 -0.41860
3.37868 -0.54969
3.37968 -0.02126
3.38068 -0.21720
3.38168 0.64587
3.38268 0.43015
3.38368 0.44558
3.38468 0.52447
3.38568 0.67178
3.38668 0.04881
3.38768 0.36865
3.38868 0.09452
3.38968 0.04254
3.39068 -0.15493
3.39168 -0.15896
3.39268 -0.41640
3.39368 -0.50321
3.39468 -0.65170
3.39568 -0.77187
3.39668 -0.31928
3.39768 -0.40669
3.39868 -0.44542
3.39968 0.03842
3.40068 0.53686
3.40168 -0.16637
3.40268 0.54811
3.40368 0.25104
3.40468 0.39224
3.40568 0.80917
3.40668 0.39458
3.40768 0.40776
3.40868 0.22701
3.40968 0.07581
3.41068 0.18182
3.41168 -0.14053
3.41268 -0.31467
3.41368 -0.39241
3.41468 -0.66004
3.41568 -0.30488
3.41668 -0.14244
3.41768 -0.27701
3.41868 -0.01098
3.41968 -0.18025
3.42068 0.09933
3.42168 0.66187
3.42268 0.48374
3.42368 0.38088
3.42468 0.27971
3.42569 0.42460
3.42669 0.59545
3.42769 0.36977
3.42869 -0.13552
3.42969 -0.17208
3.43069 0.13518
3.43169 0.10827
3.43269 -0.54612
3.43369 -0.30515
3.43469 -0.41164
3.43569 -0.39130
3.43669 -0.28568
3.43769 -0.29440
3.43869 -0.17970
3.43969 -0.42659
3.44069 0.21112
3.44169 0.46939
3.44269 0.39954
3.44369 0.29951
3.44469 0.51604
3.44569 0.82146
3.44669 0.40303
3.44769 -0.00193
3.44869 0.34793
3.44969 0.11777
3.45069 0.02365
3.45169 -0.03502
3.45269 -0.36468
3.45369 -0.14805
3.45469 -0.46579
3.45569 -0.12570
3.45669 -0.29756
3.45769 -0.20922
3.45869 -0.13497
3.45969 -0.10613
3.46069 0.31785
3.46169 0.38908
3.46269 0.43810
3.46369 0.83256
3.46469 0.48635
3.46569 0.30103
3.46669 0.52256
3.46769 0.32534
3.46869 0.47867
3.46969 0.01248
3.47069 0.12018
3.47169 -0.03982
3.47269 -0.45280
3.47369 -0.12104
3.47469 -0.64723
3.47570 -0.51532
3.47670 -0.35091
3.47770 -0.46424
3.47870 -0.04276
3.47970 0.14509
3.48070 0.50989
3.48170 0.35272
3.48270 0.31217
3.48370 0.74949
3.48470 0.57330
3.48570 0.25786
3.48670 0.31903
3.48770 0.25085
3.48870 0.09668
3.48970 -0.10192
3.49070 -0.08882
3.49170 -0.57368
3.49270 -0.36983
3.49370 0.09974
3.49470 -0.73962
3.49570 -0.34440
3.49670 -0.44493
3.49770 -0.70000
3.49870 0.07349
3.49970 -0.11456
3.50070 0.00000
3.50170 0.00000
3.50270 0.00000
3.50370 0.00000
3.50470 0.00000
3.50570 0.00000
3.50670 0.00000
3.50770 0.00000
3.50870 0.00000
3.50970 0.00000
3.51070 0.00000
3.51170 0.00000
3.51270 0.00000
3.51370 0.00000
3.51470 0.00000
3.51570 0.00000
3.51670 0.00000
3.51770 0.00000
3.51870 0.00000
3.51970 0.00000
3.52070 0.00000
3.52170 0.00000
3.52270 0.00000
3.52370 0.00000
3.52470 0.00000
3.52571 0.00000
3.52671 0.00000
3.52771 0.00000
3.52871 0.00000
3.52971 0.00000
3.53071 0.00000
3.53171 0.00000
3.53271 0.00000
3.53371 0.00000
3.53471 0.00000
3.53571 0.00000
3.53671 0.00000
3.53771 0.00000
3.53871 0.00000
3.53971 0.00000
3.54071 0.00000
3.54171 0.00000
3.54271 0.00000
3.54371 0.00000
3.54471 0.00000
3.54571 0.00000
3.54671 0.00000
3.54771 0.00000
3.54871 0.00000
3.54971 0.00000
3.55071 0.00000
3.55171 0.00000
3.55271 0.00000
3.55371 0.00000
3.55471 0.00000
3.55571 0.00000
3.55671 0.00000
3.55771 0.00000
3.55871 0.00000
3.55971 0.00000
3.56071 0.00000
3.56171 0.00000
3.56271 0.00000
3.56371 0.00000
3.56471 0.00000
3.56571 0.00000
3.56671 0.00000
3.56771 0.00000
3.56871 0.00000
3.56971 0.00000
3.57071 0.00000
3.57171 0.00000
3.57271 0.00000
3.57371 0.00000
3.57471 0.00000
3.57572 0.00000
3.57672 0.00000
3.57772 0.00000
3.57872 0.00000
3.57972 0.00000
3.58072 0.00000
3.58172 0.00000
3.58272 0.00000
3.58372 0.00000
3.58472 0.00000
3.58572 0.00000
3.58672 0.00000
3.58772 0.00000
3.58872 0.00000
3.58972 0.00000
3.59072 0.00000
3.59172 0.00000
3.59272 0.00000
3.59372 0.00000
3.59472 0.00000
3.59572 0.00000
3.59672 0.00000
3.59772 0.00000
3.59872 0.00000
3.59972 0.00000
3.60072 0.00000
3.60172 0.00000
3.60272 0.00000
3.60372 0.00000
3.60472 0.00000
3.60572 0.00000
3.60672 0.00000
3.60772 0.00000
3.60872 0.00000
3.60972 0.00000
3.61072 0.00000
3.61172 0.00000
3.61272 0.00000
3.61372 0.00000
3.61472 0.00000
3.61572 0.00000
3.61672 0.00000
3.61772 0.00000
3.61872 0.00000
3.61972 0.00000
3.62072 0.00000
3.62172 0.00000
3.62272 0.00000
3.62372 0.00000
3.62472 0.00000
3.62573 0.00000
3.62673 0.00000
3.62773 0.00000
3.62873 0.00000
3.62973 0.00000
3.63073 0.00000
3.63173 0.00000
3.63273 0.00000
3.63373 0.00000
3.63473 0.00000
3.63573 0.00000
3.63673 0.00000
3.63773 0.00000
3.63873 0.00000
3.63973 0.00000
3.64073 0.00000
3.64173 0.00000
3.64273 0.00000
3.64373 0.00000
3.64473 0.00000
3.64573 0.00000
3.64673 0.00000
3.64773 0.00000
3.64873 0.00000
3.64973 0.00000
3.65073 0.00000
3.65173 0.00000
3.65273 0.00000
3.65373 0.00000
3.65473 0.00000
3.65573 0.00000
3.65673 0.00000
3.65773 0.00000
3.65873 0.00000
3.65973 0.00000
3.66073 0.00000
3.66173 0.00000
3.66273 0.00000
3.66373 0.00000
3.66473 0.00000
3.66573 0.00000
3.66673 0.00000
3.66773 0.00000
3.66873 0.00000
3.66973 0.00000
3.67073 0.00000
3.67173 0.00000
3.67273 0.00000
3.67373 0.00000
3.67473 0.00000
3.67574 0.00000
3.67674 0.00000
3.67774 0.00000
3.67874 0.00000
3.67974 0.00000
3.68074 0.00000
3.68174 0.00000
3.68274 0.00000
3.68374 0.00000
3.68474 0.00000
3.68574 0.00000
3.68674 0.00000
3.68774 0.00000
3.68874 0.00000
3.68974 0.00000
3.69074 0.00000
3.69174 0.00000
3.69274 0.00000
3.69374 0.00000
3.69474 0.00000
3.69574 0.00000
3.69674 0.00000
3.69774 0.00000
3.69874 0.00000
3.69974 0.00000
3.70074 0.00000
3.70174 0.00000
3.70274 0.00000
3.70374 0.00000
3.70474 0.00000
3.70574 0.00000
3.70674 0.00000
3.70774 0.00000
3.70874 0.00000
3.70974 0.00000
3.71074 0.00000
3.71174 0.00000
3.71274 0.00000
3.71374 0.00000
3.71474 0.00000
3.71574 0.00000
3.71674 0.00000
3.71774 0.00000
3.71874 0.00000
3.71974 0.00000
3.72074 0.00000
3.72174 0.00000
3.72274 0.00000
3.72374 0.00000
3.72474 0.00000
3.72575 0.00000
3.72675 0.00000
3.72775 0.00000
3.72875 0.00000
3.72975 0.00000
3.73075 0.00000
3.73175 0.00000
3.73275 0.00000
3.73375 0.00000
3.73475 0.00000
3.73575 0.00000
3.73675 0.00000
3.73775 0.00000
3.73875 0.00000
3.73975 0.00000
3.74075 0.00000
3.74175 0.00000
3.74275 0.00000
3.74375 0.00000
3.74475 0.00000
3.74575 0.00000
3.74675 0.00000
3.74775 0.00000
3.74875 0.00000
3.74975 0.00000
3.75075 0.00000
3.75175 0.00000
3.75275 0.00000
3.75375 0.00000
3.75475 0.00000
3.75575 0.00000
3.75675 0.00000
3.75775 0.00000
3.75875 0.00000
3.75975 0.00000
3.76075 0.00000
3.76175 0.00000
3.76275 0.00000
3.76375 0.00000
3.76475 0.00000
3.76575 0.00000
3.76675 0.00000
3.76775 0.00000
3.76875 0.00000
3.76975 0.00000
3.77075 0.00000
3.77175 0.00000
3.77275 0.00000
3.77375 0.00000
3.77475 0.00000
3.77576 0.00000
3.77676 0.00000
3.77776 0.00000
3.77876 0.00000
3.77976 0.00000
3.78076 0.00000
3.78176 0.00000
3.78276 0.00000
3.78376 0.00000
3.78476 0.00000
3.78576 0.00000
3.78676 0.00000
3.78776 0.00000
3.78876 0.00000
3.78976 0.00000
3.79076 0.00000
3.79176 0.00000
3.79276 0.00000
3.79376 0.00000
3.79476 0.00000
3.79576 0.00000
3.79676 0.00000
3.79776 0.00000
3.79876 0.00000
3.79976 0.00000
3.80076 0.00000
3.80176 0.00000
3.80276 0.00000
3.80376 0.00000
3.80476 0.00000
3.80576 0.00000
3.80676 0.00000
3.80776 0.00000
3.80876 0.00000
3.80976 0.00000
3.81076 0.00000
3.81176 0.00000
3.81276 0.00000
3.81376 0.00000
3.81476 0.00000
3.81576 0.00000
3.81676 0.00000
3.81776 0.00000
3.81876 0.00000
3.81976 0.00000
3.82076 0.00000
3.82176 0.00000
3.82276 0.00000
3.82376 0.00000
3.82476 0.00000
3.82577 0.00000
3.82677 0.00000
3.82777 0.00000
3.82877 0.00000
3.82977 0.00000
3.83077 0.00000
3.83177 0.00000
3.83277 0.00000
3.83377 0.00000
3.83477 0.00000
3.83577 0.00000
3.83677 0.00000
3.83777 0.00000
3.83877 0.00000
3.83977 0.00000
3.84077 0.00000
3.84177 0.00000
3.84277 0.00000
3.84377 0.00000
3.84477 0.00000
3.84577 0.00000
3.84677 0.00000
3.84777 0.00000
3.84877 0.00000
3.84977 0.00000
3.85077 0.00000
3.85177 0.00000
3.85277 0.00000
3.85377 0.00000
3.85477 0.00000
3.85577 0.00000
3.85677 0.00000
3.85777 0.00000
3.85877 0.00000
3.85977 0.00000
3.86077 0.00000
3.86177 0.00000
3.86277 0.00000
3.86377 0.00000
3.86477 0.00000
3.86577 0.00000
3.86677 0.00000
3.86777 0.00000
3.86877 0.00000
3.86977 0.00000
3.87077 0.00000
3.87177 0.00000
3.87277 0.00000
3.87377 0.00000
3.87477 0.00000
3.87578 0.00000
3.87678 0.00000
3.87778 0.00000
3.87878 0.00000
3.87978 0.00000
3.88078 0.00000
3.88178 0.00000
3.88278 0.00000
3.88378 0.00000
3.88478 0.00000
3.88578 0.00000
3.88678 0.00000
3.88778 0.00000
3.88878 0.00000
3.88978 0.00000
3.89078 0.00000
3.89178 0.00000
3.89278 0.00000
3.89378 0.00000
3.89478 0.00000
3.89578 0.00000
3.89678 0.00000
3.89778 0.00000
3.89878 0.00000
3.89978 0.00000
3.90078 0.00000
3.90178 0.00000
3.90278 0.00000
3.90378 0.00000
3.90478 0.00000
3.90578 0.00000
3.90678 0.00000
3.90778 0.00000
3.90878 0.00000
3.90978 0.00000
3.91078 0.00000
3.91178 0.00000
3.91278 0.00000
3.91378 0.00000
3.91478 0.00000
3.91578 0.00000
3.91678 0.00000
3.91778 0.00000
3.91878 0.00000
3.91978 0.00000
3.92078 0.00000
3.92178 0.00000
3.92278 0.00000
3.92378 0.00000
3.92478 0.00000
3.92579 0.00000
3.92679 0.00000
3.92779 0.00000
3.92879 0.00000
3.92979 0.00000
3.93079 0.00000
3.93179 0.00000
3.93279 0.00000
3.93379 0.00000
3.93479 0.00000
3.93579 0.00000
3.93679 0.00000
3.93779 0.00000
3.93879 0.00000
3.93979 0.00000
3.94079 0.00000
3.94179 0.00000
3.94279 0.00000
3.94379 0.00000
3.94479 0.00000
3.94579 0.00000
3.94679 0.00000
3.94779 0.00000
3.94879 0.00000
3.94979 0.00000
3.95079 0.00000
3.95179 0.00000
3.95279 0.00000
3.95379 0.00000
3.95479 0.00000
3.95579 0.00000
3.95679 0.00000
3.95779 0.00000
3.95879 0.00000
3.95979 0.00000
3.96079 0.00000
3.96179 0.00000
3.96279 0.00000
3.96379 0.00000
3.96479 0.00000
3.96579 0.00000
3.96679 0.00000
3.96779 0.00000
3.96879 0.00000
3.96979 0.00000
3.97079 0.00000
3.97179 0.00000
3.97279 0.00000
3.97379 0.00000
3.97479 0.00000
3.97580 0.00000
3.97680 0.00000
3.97780 0.00000
3.97880 0.00000
3.97980 0.00000
3.98080 0.00000
3.98180 0.00000
3.98280 0.00000
3.98380 0.00000
3.98480 0.00000
3.98580 0.00000
3.98680 0.00000
3.98780 0.00000
3.98880 0.00000
3.98980 0.00000
3.99080 0.00000
3.99180 0.00000
3.99280 0.00000
3.99380 0.00000
3.99480 0.00000
3.99580 0.00000
3.99680 0.00000
3.99780 0.00000
3.99880 0.00000
3.99980 0.00000
4.00080 0.00000
4.00180 0.00000
4.00280 0.00000
4.00380 0.00000
4.00480 0.00000
4.00580 0.00000
4.00680 0.00000
4.00780 0.00000
4.00880 0.00000
4.00980 0.00000
4.01080 0.00000
4.01180 0.00000
4.01280 0.00000
4.01380 0.00000
4.01480 0.00000
4.01580 0.00000
4.01680 0.00000
4.01780 0.00000
4.01880 0.00000
4.01980 0.00000
4.02080 0.00000
4.02180 0.00000
4.02280 0.00000
4.02380 0.00000
4.02480 0.00000
4.02581 0.00000
4.02681 0.00000
4.02781 0.00000
4.02881 0.00000
4.02981 0.00000
4.03081 0.00000
4.03181 0.00000
4.03281 0.00000
4.03381 0.00000
4.03481 0.00000
4.03581 0.00000
4.03681 0.00000
4.03781 0.00000
4.03881 0.00000
4.03981 0.00000
4.04081 0.00000
4.04181 0.00000
4.04281 0.00000
4.04381 0.00000
4.04481 0.00000
4.04581 0.00000
4.04681 0.00000
4.04781 0.00000
4.04881 0.00000
4.04981 0.00000
4.05081 0.00000
4.05181 0.00000
4.05281 0.00000
4.05381 0.00000
4.05481 0.00000
4.05581 0.00000
4.05681 0.00000
4.05781 0.00000
4.05881 0.00000
4.05981 0.00000
4.06081 0.00000
4.06181 0.00000
4.06281 0.00000
4.06381 0.00000
4.06481 0.00000
4.06581 0.00000
4.06681 0.00000
4.06781 0.00000
4.06881 0.00000
4.06981 0.00000
4.07081 0.00000
4.07181 0.00000
4.07281 0.00000
4.07381 0.00000
4.07481 0.00000
4.07582 0.00000
4.07682 0.00000
4.07782 0.00000
4.07882 0.00000
4.07982 0.00000
4.08082 0.00000
4.08182 0.00000
4.08282 0.00000
4.08382 0.00000
4.08482 0.00000
4.08582 0.00000
4.08682 0.00000
4.08782 0.00000
4.08882 0.00000
4.08982 0.00000
4.09082 0.00000
4.09182 0.00000
4.09282 0.00000
4.09382 0.00000
4.09482 0.00000
4.09582 0.00000
4.09682 0.00000
4.09782 0.00000
4.09882 0.00000
4.09982 0.00000
4.10082 0.00000
4.10182 0.00000
4.10282 0.00000
4.10382 0.00000
4.10482 0.00000
4.10582 0.00000
4.10682 0.00000
4.10782 0.00000
4.10882 0.00000
4.10982 0.00000
4.11082 0.00000
4.11182 0.00000
4.11282 0.00000
4.11382 0.00000
4.11482 0.00000
4.11582 0.00000
4.11682 0.00000
4.11782 0.00000
4.11882 0.00000
4.11982 0.00000
4.12082 0.00000
4.12182 0.00000
4.12282 0.00000
4.12382 0.00000
4.12482 0.00000
4.12583 0.00000
4.12683 0.00000
4.12783 0.00000
4.12883 0.00000
4.12983 0.00000
4.13083 0.00000
4.13183 0.00000
4.13283 0.00000
4.13383 0.00000
4.13483 0.00000
4.13583 0.00000
4.13683 0.00000
4.13783 0.00000
4.13883 0.00000
4.13983 0.00000
4.14083 0.00000
4.14183 0.00000
4.14283 0.00000
4.14383 0.00000
4.14483 0.00000
4.14583 0.00000
4.14683 0.00000
4.14783 0.00000
4.14883 0.00000
4.14983 0.00000
4.15083 0.00000
4.15183 0.00000
4.15283 0.00000
4.15383 0.00000
4.15483 0.00000
4.15583 0.00000
4.15683 0.00000
4.15783 0.00000
4.15883 0.00000
4.15983 0.00000
4.16083 0.00000
4.16183 0.00000
4.16283 0.00000
4.16383 0.00000
4.16483 0.00000
4.16583 0.00000
4.16683 0.00000
4.16783 0.00000
4.16883 0.00000
4.16983 0.00000
4.17083 0.00000
4.17183 0.00000
4.17283 0.00000
4.17383 0.00000
4.17483 0.00000
4.17584 0.00000
4.17684 0.00000
4.17784 0.00000
4.17884 0.00000
4.17984 0.00000
4.18084 0.00000
4.18184 0.00000
4.18284 0.00000
4.18384 0.00000
4.18484 0.00000
4.18584 0.00000
4.18684 0.00000
4.18784 0.00000
4.18884 0.00000
4.18984 0.00000
4.19084 0.00000
4.19184 0.00000
4.19284 0.00000
4.19384 0.00000
4.19484 0.00000
4.19584 0.00000
4.19684 0.00000
4.19784 0.00000
4.19884 0.00000
4.19984 0.00000
4.20084 0.15328
4.20184 0.14289
4.20284 0.46610
4.20384 0.59248
4.20484 0.55837
4.20584 0.33458
4.20684 0.44225
4.20784 0.28770
4.20884 -0.02523
4.20984 -0.25116
4.21084 0.10032
4.21184 -0.46300
4.21284 -0.12456
4.21384 -0.61525
4.21484 -0.63303
4.21584 -0.44869
4.21684 -0.60486
4.21784 -0.17153
4.21884 -0.21308
4.21984 -0.02277
4.22084 0.33979
4.22184 0.19392
4.22284 0.26091
4.22384 0.19053
4.22484 0.29387
4.22585 0.69692
4.22685 0.13182
4.22785 0.34489
4.22885 0.26076
4.22985 0.37843
4.23085 -0.33833
4.23185 -0.10706
4.23285 -0.44245
4.23385 -0.46074
4.23485 -0.02867
4.23585 -0.20193
4.23685 -0.20407
4.23785 -0.12497
4.23885 -0.13239
4.23985 0.28077
4.24085 0.24489
4.24185 0.51468
4.24285 0.52270
4.24385 0.45597
4.24485 0.29518
4.24585 0.44416
4.24685 0.74498
4.24785 0.41472
4.24885 0.02705
4.24985 -0.21581
4.25085 -0.03655
4.25185 -0.01482
4.25285 -0.29418
4.25385 -0.77079
4.25485 -0.66350
4.25585 -0.39199
4.25685 -0.81202
4.25785 -0.23504
4.25885 -0.11224
4.25985 -0.15232
4.26085 -0.21541
4.26185 0.07879
4.26285 0.21450
4.26385 0.61169
4.26485 0.28154
4.26585 0.27463
4.26685 0.38990
4.26785 0.41743
4.26885 0.36536
4.26985 -0.21507
4.27085 -0.28353
4.27185 -0.19319
4.27285 -0.34865
4.27385 -0.64643
4.27485 -0.32899
4.27586 -0.62990
4.27686 -0.89429
4.27786 -0.42350
4.27886 -0.32227
4.27986 -0.04008
4.28086 0.43513
4.28186 0.22758
4.28286 0.41680
4.28386 0.72482
4.28486 0.58258
4.28586 0.36594
4.28686 0.52608
4.28786 0.87270
4.28886 0.42158
4.28986 -0.30724
4.29086 0.06763
4.29186 -0.50011
4.29286 -0.43445
4.29386 -0.55811
4.29486 -0.24829
4.29586 -0.45775
4.29686 -0.75503
4.29786 -0.06175
4.29886 -0.02558
4.29986 -0.13108
4.30086 -0.02657
4.30186 0.24957
4.30286 0.24177
4.30386 0.60368
4.30486 0.32892
4.30586 0.50528
4.30686 0.41757
4.30786 0.54338
4.30886 0.30184
4.30986 -0.11003
4.31086 0.24837
4.31186 -0.35428
4.31286 -0.89812
4.31386 -0.54741
4.31486 -0.46999
4.31586 -0.41359
4.31686 -0.74389
4.31786 -0.34582
4.31886 0.24306
4.31986 -0.01705
4.32086 0.16113
4.32186 0.30940
4.32286 0.29158
4.32386 0.30929
4.32486 0.44317
4.32587 0.39436
4.32687 0.72846
4.32787 0.15895
4.32887 0.38359
4.32987 -0.04549
4.33087 -0.14342
4.33187 -0.35368
4.33287 -0.20692
4.33387 -0.67154
4.33487 -0.37134
4.33587 -0.48063
4.33687 -0.78788
4.33787 -0.12428
4.33887 -0.04397
4.33987 -0.05516
4.34087 -0.04013
4.34187 0.47098
4.34287 0.28384
4.34387 0.82391
4.34487 0.43639
4.34587 0.56014
4.34687 0.17379
4.34787 0.20217
4.34887 0.45041
4.34987 0.00037
4.35087 -0.27081
4.35187 -0.36078
4.35287 -0.31660
4.35387 -0.46455
4.35487 -0.61969
4.35587 -0.52322
4.35687 -0.16616
4.35787 -0.04623
4.35887 -0.10474
4.35987 -0.55135
4.36087 0.24809
4.36187 0.33081
4.36287 0.43579
4.36387 0.22675
4.36487 0.55915
4.36587 0.12598
4.36687 0.16150
4.36787 0.06533
4.36887 0.30988
4.36987 -0.11512
4.37087 0.18879
4.37187 -0.52366
4.37287 -0.59638
4.37387 -0.52988
4.37487 -0.33972
4.37588 -0.69714
4.37688 -0.33115
4.37788 -0.34157
4.37888 -0.17038
4.37988 -0.23223
4.38088 0.38493
4.38188 0.32910
4.38288 0.32328
4.38388 0.47078
4.38488 0.52532
4.38588 0.70508
4.38688 0.08856
4.38788 -0.21589
4.38888 0.32729
4.38988 0.32912
4.39088 -0.33356
4.39188 -0.28133
4.39288 -0.31479
4.39388 -0.49406
4.39488 -0.63934
4.39588 -0.19171
4.39688 -0.29111
4.39788 -0.09798
4.39888 -0.34997
4.39988 -0.01680
4.40088 0.37695
4.40188 0.29360
4.40288 0.26940
4.40388 0.81424
4.40488 0.62856
4.40588 0.48087
4.40688 0.48887
4.40788 0.42538
4.40888 0.22830
4.40988 0.19392
4.41088 -0.13444
4.41188 -0.48636
4.41288 -0.53936
4.41388 -0.52036
4.41488 -0.49127
4.41588 -0.43220
4.41688 -0.37555
4.41788 -0.43248
4.41888 -0.19386
4.41988 0.11195
4.42088 0.16873
4.42188 0.55467
4.42288 0.38405
4.42388 0.48602
4.42488 0.77850
4.42589 0.39881
4.42689 0.17299
4.42789 0.42991
4.42889 0.35595
4.42989 0.17122
4.43089 -0.08217
4.43189 -0.16041
4.43289 -0.44752
4.43389 -0.77676
4.43489 -0.58783
4.43589 -0.02510
4.43689 -0.28770
4.43789 -0.51487
4.43889 -0.34772
4.43989 -0.20544
4.44089 0.45961
4.44189 0.40601
4.44289 0.56690
4.44389 0.29209
4.44489 0.67367
4.44589 0.02898
4.44689 0.61645
4.44789 0.47870
4.44889 0.27848
4.44989 -0.12565
4.45089 -0.19197
4.45189 -0.35831
4.45289 -0.26625
4.45389 -0.15677
4.45489 -0.34588
4.45589 -0.36309
4.45689 -0.40638
4.45789 -0.10933
4.45889 -0.03147
4.45989 0.03686
4.46089 -0.00900
4.46189 -0.04909
4.46289 0.16641
4.46389 0.57312
4.46489 0.11321
4.46589 0.44672
4.46689 0.57978
4.46789 0.29555
4.46889 0.08837
4.46989 -0.03748
4.47089 -0.24798
4.47189 -0.49875
4.47289 -0.13373
4.47389 -0.22384
4.47489 -0.69390
4.47590 -0.61881
4.47690 -0.20475
4.47790 -0.24661
4.47890 -0.34977
4.47990 0.21302
4.48090 0.05545
4.48190 0.16594
4.48290 0.47236
4.48390 0.53461
4.48490 0.77208
4.48590 0.75872
4.48690 0.51588
4.48790 0.17101
4.48890 -0.05181
4.48990 0.01534
4.49090 -0.17081
4.49190 -0.64736
4.49290 -0.59534
4.49390 -0.78290
4.49490 -0.10067
4.49590 -0.57544
4.49690 -0.31040
4.49790 -0.51272
4.49890 -0.07633
4.49990 0.13828
4.50090 0.00000
4.50190 0.00000
4.50290 0.00000
4.50390 0.00000
4.50490 0.00000
4.50590 0.00000
4.50690 0.00000
4.50790 0.00000
4.50890 0.00000
4.50990 0.00000
4.51090 0.00000
4.51190 0.00000
4.51290 0.00000
4.51390 0.00000
4.51490 0.00000
4.51590 0.00000
4.51690 0.00000
4.51790 0.00000
4.51890 0.00000
4.51990 0.00000
4.52090 0.00000
4.52190 0.00000
4.52290 0.00000
4.52390 0.00000
4.52490 0.00000
4.52591 0.00000
4.52691 0.00000
4.52791 0.00000
4.52891 0.00000
4.52991 0.00000
4.53091 0.00000
4.53191 0.00000
4.53291 0.00000
4.53391 0.00000
4.53491 0.00000
4.53591 0.00000
4.53691 0.00000
4.53791 0.00000
4.53891 0.00000
4.53991 0.00000
4.54091 0.00000
4.54191 0.00000
4.54291 0.00000
4.54391 0.00000
4.54491 0.00000
4.54591 0.00000
4.54691 0.00000
4.54791 0.00000
4.54891 0.00000
4.54991 0.00000
4.55091 0.00000
4.55191 0.00000
4.55291 0.00000
4.55391 0.00000
4.55491 0.00000
4.55591 0.00000
4.55691 0.00000
4.55791 0.00000
4.55891 0.00000
4.55991 0.00000
4.56091 0.00000
4.56191 0.00000
4.56291 0.00000
4.56391 0.00000
4.56491 0.00000
4.56591 0.00000
4.56691 0.00000
4.56791 0.00000
4.56891 0.00000
4.56991 0.00000
4.57091 0.00000
4.57191 0.00000
4.57291 0.00000
4.57391 0.00000
4.57491 0.00000
4.57592 0.00000
4.57692 0.00000
4.57792 0.00000
4.57892 0.00000
4.57992 0.00000
4.58092 0.00000
4.58192 0.00000
4.58292 0.00000
4.58392 0.00000
4.58492 0.00000
4.58592 0.00000
4.58692 0.00000
4.58792 0.00000
4.58892 0.00000
4.58992 0.00000
4.59092 0.00000
4.59192 0.00000
4.59292 0.00000
4.59392 0.00000
4.59492 0.00000
4.59592 0.00000
4.59692 0.00000
4.59792 0.00000
4.59892 0.00000
4.59992 0.00000
4.60092 0.00000
4.60192 0.00000
4.60292 0.00000
4.60392 0.00000
4.60492 0.00000
4.60592 0.00000
4.60692 0.00000
4.60792 0.00000
4.60892 0.00000
4.60992 0.00000
4.61092 0.00000
4.61192 0.00000
4.61292 0.00000
4.61392 0.00000
4.61492 0.00000
4.61592 0.00000
4.61692 0.00000
4.61792 0.00000
4.61892 0.00000
4.61992 0.00000
4.62092 0.00000
4.62192 0.00000
4.62292 0.00000
4.62392 0.00000
4.62492 0.00000
4.62593 0.00000
4.62693 0.00000
4.62793 0.00000
4.62893 0.00000
4.62993 0.00000
4.63093 0.00000
4.63193 0.00000
4.63293 0.00000
4.63393 0.00000
4.63493 0.00000
4.63593 0.00000
4.63693 0.00000
4.63793 0.00000
4.63893 0.00000
4.63993 0.00000
4.64093 0.00000
4.64193 0.00000
4.64293 0.00000
4.64393 0.00000
4.64493 0.00000
4.64593 0.00000
4.64693 0.00000
4.64793 0.00000
4.64893 0.00000
4.64993 0.00000
4.65093 0.00000
4.65193 0.00000
4.65293 0.00000
4.65393 0.00000
4.65493 0.00000
4.65593 0.00000
4.65693 0.00000
4.65793 0.00000
4.65893 0.00000
4.65993 0.00000
4.66093 0.00000
4.66193 0.00000
4.66293 0.00000
4.66393 0.00000
4.66493 0.00000
4.66593 0.00000
4.66693 0.00000
4.66793 0.00000
4.66893 0.00000
4.66993 0.00000
4.67093 0.00000
4.67193 0.00000
4.67293 0.00000
4.67393 0.00000
4.67493 0.00000
4.67594 0.00000
4.67694 0.00000
4.67794 0.00000
4.67894 0.00000
4.67994 0.00000
4.68094 0.00000
4.68194 0.00000
4.68294 0.00000
4.68394 0.00000
4.68494 0.00000
4.68594 0.00000
4.68694 0.00000
4.68794 0.00000
4.68894 0.00000
4.68994 0.00000
4.69094 0.00000
4.69194 0.00000
4.69294 0.00000
4.69394 0.00000
4.69494 0.00000
4.69594 0.00000
4.69694 0.00000
4.69794 0.00000
4.69894 0.00000
4.69994 0.00000
4.70094 0.00000
4.70194 0.00000
4.70294 0.00000
4.70394 0.00000
4.70494 0.00000
4.70594 0.00000
4.70694 0.00000
4.70794 0.00000
4.70894 0.00000
4.70994 0.00000
4.71094 0.00000
4.71194 0.00000
4.71294 0.00000
4.71394 0.00000
4.71494 0.00000
4.71594 0.00000
4.71694 0.00000
4.71794 0.00000
4.71894 0.00000
4.71994 0.00000
4.72094 0.00000
4.72194 0.00000
4.72294 0.00000
4.72394 0.00000
4.72494 0.00000
4.72595 0.00000
4.72695 0.00000
4.72795 0.00000
4.72895 0.00000
4.72995 0.00000
4.73095 0.00000
4.73195 0.00000
4.73295 0.00000
4.73395 0.00000
4.73495 0.00000
4.73595 0.00000
4.73695 0.00000
4.73795 0.00000
4.73895 0.00000
4.73995 0.00000
4.74095 0.00000
4.74195 0.00000
4.74295 0.00000
4.74395 0.00000
4.74495 0.00000
4.74595 0.00000
4.74695 0.00000
4.74795 0.00000
4.74895 0.00000
4.74995 0.00000
4.75095 0.00000
4.75195 0.00000
4.75295 0.00000
4.75395 0.00000
4.75495 0.00000
4.75595 0.00000
4.75695 0.00000
4.75795 0.00000
4.75895 0.00000
4.75995 0.00000
4.76095 0.00000
4.76195 0.00000
4.76295 0.00000
4.76395 0.00000
4.76495 0.00000
4.76595 0.00000
4.76695 0.00000
4.76795 0.00000
4.76895 0.00000
4.76995 0.00000
4.77095 0.00000
4.77195 0.00000
4.77295 0.00000
4.77395 0.00000
4.77495 0.00000
4.77596 0.00000
4.77696 0.00000
4.77796 0.00000
4.77896 0.00000
4.77996 0.00000
4.78096 0.00000
4.78196 0.00000
4.78296 0.00000
4.78396 0.00000
4.78496 0.00000
4.78596 0.00000
4.78696 0.00000
4.78796 0.00000
4.78896 0.00000
4.78996 0.00000
4.79096 0.00000
4.79196 0.00000
4.79296 0.00000
4.79396 0.00000
4.79496 0.00000
4.79596 0.00000
4.79696 0.00000
4.79796 0.00000
4.79896 0.00000
4.79996 0.00000
4.80096 0.00000
4.80196 0.00000
4.80296 0.00000
4.80396 0.00000
4.80496 0.00000
4.80596 0.00000
4.80696 0.00000
4.80796 0.00000
4.80896 0.00000
4.80996 0.00000
4.81096 0.00000
4.81196 0.00000
4.81296 0.00000
4.81396 0.00000
4.81496 0.00000
4.81596 0.00000
4.81696 0.00000
4.81796 0.00000
4.81896 0.00000
4.81996 0.00000
4.82096 0.00000
4.82196 0.00000
4.82296 0.00000
4.82396 0.00000
4.82496 0.00000
4.82597 0.00000
4.82697 0.00000
4.82797 0.00000
4.82897 0.00000
4.82997 0.00000
4.83097 0.00000
4.83197 0.00000
4.83297 0.00000
4.83397 0.00000
4.83497 0.00000
4.83597 0.00000
4.83697 0.00000
4.83797 0.00000
4.83897 0.00000
4.83997 0.00000
4.84097 0.00000
4.84197 0.00000
4.84297 0.00000
4.84397 0.00000
4.84497 0.00000
4.84597 0.00000
4.84697 0.00000
4.84797 0.00000
4.84897 0.00000
4.84997 0.00000
4.85097 0.00000
4.85197 0.00000
4.85297 0.00000
4.85397 0.00000
4.85497 0.00000
4.85597 0.00000
4.85697 0.00000
4.85797 0.00000
4.85897 0.00000
4.85997 0.00000
4.86097 0.00000
4.86197 0.00000
4.86297 0.00000
4.86397 0.00000
4.86497 0.00000
4.86597 0.00000
4.86697 0.00000
4.86797 0.00000
4.86897 0.00000
4.86997 0.00000
4.87097 0.00000
4.87197 0.00000
4.87297 0.00000
4.87397 0.00000
4.87497 0.00000
4.87598 0.00000
4.87698 0.00000
4.87798 0.00000
4.87898 0.00000
4.87998 0.00000
4.88098 0.00000
4.88198 0.00000
4.88298 0.00000
4.88398 0.00000
4.88498 0.00000
4.88598 0.00000
4.88698 0.00000
4.88798 0.00000
4.88898 0.00000
4.88998 0.00000
4.89098 0.00000
4.89198 0.00000
4.89298 0.00000
4.89398 0.00000
4.89498 0.00000
4.89598 0.00000
4.89698 0.00000
4.89798 0.00000
4.89898 0.00000
4.89998 0.00000
4.90098 0.00000
4.90198 0.00000
4.90298 0.00000
4.90398 0.00000
4.90498 0.00000
4.90598 0.00000
4.90698 0.00000
4.90798 0.00000
4.90898 0.00000
4.90998 0.00000
4.91098 0.00000
4.91198 0.00000
4.91298 0.00000
4.91398 0.00000
4.91498 0.00000
4.91598 0.00000
4.91698 0.00000
4.91798 0.00000
4.91898 0.00000
4.91998 0.00000
4.92098 0.00000
4.92198 0.00000
4.92298 0.00000
4.92398 0.00000
4.92498 0.00000
4.92599 0.00000
4.92699 0.00000
4.92799 0.00000
4.92899 0.00000
4.92999 0.00000
4.93099 0.00000
4.93199 0.00000
4.93299 0.00000
4.93399 0.00000
4.93499 0.00000
4.93599 0.00000
4.93699 0.00000
4.93799 0.00000
4.93899 0.00000
4.93999 0.00000
4.94099 0.00000
4.94199 0.00000
4.94299 0.00000
4.94399 0.00000
4.94499 0.00000
4.94599 0.00000
4.94699 0.00000
4.94799 0.00000
4.94899 0.00000
4.94999 0.00000
4.95099 0.00000
4.95199 0.00000
4.95299 0.00000
4.95399 0.00000
4.95499 0.00000
4.95599 0.00000
4.95699 0.00000
4.95799 0.00000
4.95899 0.00000
4.95999 0.00000
4.96099 0.00000
4.96199 0.00000
4.96299 0.00000
4.96399 0.00000
4.96499 0.00000
4.96599 0.00000
4.96699 0.00000
4.96799 0.00000
4.96899 0.00000
4.96999 0.00000
4.97099 0.00000
4.97199 0.00000
4.97299 0.00000
4.97399 0.00000
4.97499 0.00000
4.97600 0.00000
4.97700 0.00000
4.97800 0.00000
4.97900 0.00000
4.98000 0.00000
4.98100 0.00000
4.98200 0.00000
4.98300 0.00000
4.98400 0.00000
4.98500 0.00000
4.98600 0.00000
4.98700 0.00000
4.98800 0.00000
4.98900 0.00000
4.99000 0.00000
4.99100 0.00000
4.99200 0.00000
4.99300 0.00000
4.99400 0.00000
4.99500 0.00000
4.99600 0.00000
4.99700 0.00000
4.99800 0.00000
4.99900 0.00000
5.00000 0.00000