Teste de posicionamento 1(EMG ao centro do bíceps (Vermelho A, Verde B) + Ref no pulso) - 16/09/2024 - teste4 - 5 contrações
long frequencia = 1000;                 //frequência de aquisição do sinal, neste caso, 1000 sinais por segundo
float fator1 = 0.02, fator2 = 0.01;
float incerteza = 0.13;
float pico_basal = 130; // Mínimo para ser considerado um pico de contração
int filtro_horizontal=200000; //intervalo de 200ms valores não pode ter mais de 1 contração


Biceps_D,mediaMovel_1,mediaMovel_2,Contracao
98,1.96,0.98,0
96,3.84,1.93,0
96,5.68,2.87,0
98,7.53,3.82,0
97,9.32,4.75,0
97,11.07,5.68,0
99,12.83,6.61,0
96,14.50,7.50,0
97,16.15,8.40,0
97,17.76,9.28,0
95,19.31,10.14,0
97,20.86,11.01,0
98,22.40,11.88,0
97,23.90,12.73,0
95,25.32,13.55,0
96,26.73,14.38,0
96,28.12,15.19,0
98,29.51,16.02,0
96,30.84,16.82,0
96,32.15,17.61,0
97,33.44,18.41,0
95,34.68,19.17,0
96,35.90,19.94,0
96,37.10,20.70,0
97,38.30,21.47,0
95,39.44,22.20,0
96,40.57,22.94,0
96,41.68,23.67,0
95,42.74,24.38,0
95,43.79,25.09,0
94,44.79,25.78,0
94,45.78,26.46,0
96,46.78,27.16,0
96,47.76,27.84,0
96,48.73,28.53,0
95,49.65,29.19,0
94,50.54,29.84,0
95,51.43,30.49,0
94,52.28,31.13,0
96,53.16,31.77,0
96,54.01,32.42,0
95,54.83,33.04,0
94,55.62,33.65,0
96,56.42,34.28,0
96,57.22,34.89,0
95,57.97,35.49,0
94,58.69,36.08,0
94,59.40,36.66,0
95,60.11,37.24,0
94,60.79,37.81,0
96,61.49,38.39,0
94,62.14,38.95,0
95,62.80,39.51,0
96,63.46,40.07,0
94,64.07,40.61,0
94,64.67,41.15,0
94,65.26,41.67,0
94,65.83,42.20,0
94,66.40,42.72,0
94,66.95,43.23,0
94,67.49,43.74,0
94,68.02,44.24,0
94,68.54,44.74,0
94,69.05,45.23,0
93,69.53,45.71,0
94,70.02,46.19,0
94,70.50,46.67,0
94,70.97,47.14,0
94,71.43,47.61,0
92,71.84,48.05,0
94,72.28,48.51,0
94,72.72,48.97,0
93,73.12,49.41,0
94,73.54,49.85,0
93,73.93,50.29,0
94,74.33,50.72,0
93,74.70,51.15,0
94,75.09,51.57,0
93,75.45,51.99,0
93,75.80,52.40,0
93,76.14,52.80,0
95,76.52,53.23,0
94,76.87,53.63,0
94,77.21,54.04,0
93,77.53,54.43,0
92,77.82,54.80,0
92,78.10,55.18,0
92,78.38,55.54,0
94,78.69,55.93,0
93,78.98,56.30,0
92,79.24,56.66,0
92,79.49,57.01,0
92,79.74,57.36,0
95,80.05,57.74,0
92,80.29,58.08,0
92,80.52,58.42,0
92,80.75,58.75,0
92,80.98,59.09,0
93,81.22,59.42,0
92,81.43,59.75,0
93,81.66,60.08,0
93,81.89,60.41,0
92,82.09,60.73,0
92,82.29,61.04,0
92,82.49,61.35,0
93,82.70,61.67,0
93,82.90,61.98,0
92,83.08,62.28,0
93,83.28,62.59,0
92,83.46,62.88,0
92,83.63,63.17,0
90,83.75,63.44,0
90,83.88,63.71,0
91,84.02,63.98,0
92,84.18,64.26,0
91,84.32,64.53,0
92,84.47,64.80,0
93,84.64,65.08,0
91,84.77,65.34,0
90,84.87,65.59,0
92,85.02,65.85,0
92,85.16,66.12,0
91,85.27,66.36,0
91,85.39,66.61,0
93,85.54,66.87,0
91,85.65,67.12,0
92,85.78,67.36,0
92,85.90,67.61,0
92,86.02,67.85,0
92,86.14,68.10,0
91,86.24,68.33,0
92,86.35,68.56,0
92,86.47,68.80,0
91,86.56,69.02,0
91,86.65,69.24,0
90,86.71,69.45,0
92,86.82,69.67,0
92,86.92,69.89,0
90,86.98,70.10,0
90,87.05,70.29,0
92,87.14,70.51,0
91,87.22,70.72,0
91,87.30,70.92,0
92,87.39,71.13,0
91,87.46,71.33,0
91,87.53,71.53,0
90,87.58,71.71,0
91,87.65,71.90,0
91,87.72,72.09,0
91,87.78,72.28,0
91,87.85,72.47,0
90,87.89,72.65,0
91,87.95,72.83,0
92,88.03,73.02,0
90,88.07,73.19,0
90,88.11,73.36,0
92,88.19,73.55,0
90,88.23,73.71,0
90,88.26,73.87,0
90,88.30,74.03,0
91,88.35,74.20,0
90,88.38,74.36,0
90,88.42,74.52,0
90,88.45,74.67,0
90,88.48,74.83,0
92,88.55,75.00,0
90,88.58,75.15,0
90,88.61,75.30,0
90,88.63,75.44,0
90,88.66,75.59,0
92,88.73,75.75,0
90,88.75,75.90,0
89,88.76,76.03,0
89,88.76,76.16,0
90,88.79,76.29,0
90,88.81,76.43,0
89,88.82,76.56,0
89,88.82,76.68,0
90,88.84,76.82,0
89,88.85,76.94,0
90,88.87,77.07,0
89,88.87,77.19,0
90,88.90,77.32,0
89,88.90,77.43,0
88,88.88,77.54,0
88,88.86,77.64,0
88,88.84,77.75,0
89,88.85,77.86,0
89,88.85,77.97,0
89,88.85,78.08,0
88,88.84,78.18,0
89,88.84,78.29,0
90,88.86,78.40,0
88,88.85,78.50,0
88,88.83,78.60,0
88,88.81,78.69,0
89,88.82,78.79,0
89,88.82,78.89,0
88,88.80,78.99,0
88,88.79,79.08,0
88,88.77,79.17,0
89,88.78,79.26,0
88,88.76,79.35,0
88,88.75,79.44,0
89,88.75,79.53,0
89,88.76,79.63,0
88,88.74,79.71,0
88,88.73,79.79,0
89,88.73,79.89,0
88,88.72,79.97,0
87,88.68,80.04,0
87,88.65,80.11,0
89,88.66,80.20,0
89,88.66,80.28,0
88,88.65,80.36,0
86,88.60,80.42,0
86,88.54,80.47,0
86,88.49,80.53,0
86,88.44,80.58,0
86,88.39,80.64,0
88,88.39,80.71,0
88,88.38,80.78,0
86,88.33,80.84,0
86,88.28,80.89,0
87,88.26,80.95,0
88,88.25,81.02,0
86,88.21,81.07,0
86,88.16,81.12,0
88,88.16,81.19,0
87,88.14,81.25,0
90,88.18,81.33,0
86,88.13,81.38,0
87,88.11,81.44,0
86,88.07,81.48,0
86,88.03,81.53,0
86,87.99,81.57,0
86,87.95,81.62,0
86,87.91,81.66,0
86,87.87,81.70,0
86,87.83,81.75,0
88,87.83,81.81,0
86,87.80,81.85,0
86,87.76,81.89,0
88,87.77,81.95,0
87,87.75,82.00,0
86,87.72,82.04,0
83,87.62,82.05,0
86,87.59,82.09,0
87,87.58,82.14,0
85,87.53,82.17,0
86,87.50,82.21,0
86,87.47,82.25,0
87,87.46,82.29,0
86,87.43,82.33,0
86,87.40,82.37,0
86,87.37,82.40,0
86,87.34,82.44,0
87,87.34,82.49,0
86,87.31,82.52,0
86,87.28,82.56,0
85,87.24,82.58,0
86,87.21,82.61,0
88,87.23,82.67,0
86,87.20,82.70,0
85,87.16,82.72,0
86,87.14,82.76,0
85,87.09,82.78,0
86,87.07,82.81,0
86,87.05,82.84,0
84,86.99,82.86,0
87,86.99,82.90,0
86,86.97,82.93,0
86,86.95,82.96,0
87,86.95,83.00,0
85,86.91,83.02,0
84,86.85,83.03,0
86,86.84,83.06,0
85,86.80,83.08,0
86,86.78,83.11,0
85,86.75,83.13,0
86,86.73,83.15,0
85,86.70,83.17,0
85,86.67,83.19,0
85,86.63,83.21,0
85,86.60,83.23,0
86,86.59,83.26,0
86,86.58,83.28,0
84,86.52,83.29,0
86,86.51,83.32,0
87,86.52,83.35,0
85,86.49,83.37,0
85,86.46,83.39,0
86,86.45,83.41,0
85,86.42,83.43,0
86,86.42,83.45,0
85,86.39,83.47,0
86,86.38,83.50,0
85,86.35,83.51,0
84,86.31,83.52,0
84,86.26,83.52,0
86,86.25,83.54,0
85,86.23,83.56,0
85,86.20,83.57,0
84,86.16,83.58,0
84,86.12,83.58,0
84,86.07,83.59,0
84,86.03,83.59,0
84,85.99,83.59,0
84,85.95,83.60,0
85,85.93,83.61,0
84,85.90,83.62,0
84,85.86,83.62,0
84,85.82,83.62,0
84,85.78,83.63,0
84,85.75,83.63,0
84,85.71,83.64,0
84,85.68,83.64,0
85,85.67,83.65,0
83,85.61,83.65,0
82,85.54,83.63,0
84,85.51,83.63,0
84,85.48,83.64,0
84,85.45,83.64,0
84,85.42,83.64,0
84,85.39,83.65,0
84,85.36,83.65,0
83,85.32,83.64,0
82,85.25,83.63,0
83,85.21,83.62,0
84,85.18,83.63,0
82,85.12,83.61,0
84,85.10,83.61,0
85,85.09,83.63,0
86,85.11,83.65,0
83,85.07,83.64,0
84,85.05,83.65,0
85,85.05,83.66,0
84,85.03,83.66,0
84,85.01,83.67,0
84,84.99,83.67,0
84,84.97,83.67,0
83,84.93,83.67,0
82,84.87,83.65,0
84,84.85,83.65,0
84,84.83,83.66,0
88,84.90,83.70,0
82,84.84,83.68,0
84,84.82,83.69,0
83,84.79,83.68,0
83,84.75,83.67,0
83,84.71,83.67,0
82,84.66,83.65,0
85,84.67,83.66,0
83,84.63,83.66,0
86,84.66,83.68,0
86,84.69,83.70,0
88,84.75,83.75,0
84,84.74,83.75,0
83,84.70,83.74,0
84,84.69,83.74,0
85,84.70,83.76,0
83,84.66,83.75,0
86,84.69,83.77,0
84,84.68,83.77,0
84,84.66,83.78,0
84,84.65,83.78,0
86,84.68,83.80,0
84,84.66,83.80,0
84,84.65,83.81,0
84,84.64,83.81,0
85,84.64,83.82,0
84,84.63,83.82,0
84,84.62,83.82,0
85,84.63,83.83,0
85,84.63,83.85,0
85,84.64,83.86,0
85,84.65,83.87,0
86,84.67,83.89,0
84,84.66,83.89,0
85,84.67,83.90,0
84,84.65,83.90,0
84,84.64,83.90,0
85,84.65,83.92,0
84,84.64,83.92,0
84,84.62,83.92,0
85,84.63,83.93,0
84,84.62,83.93,0
85,84.63,83.94,0
84,84.61,83.94,0
85,84.62,83.95,0
84,84.61,83.95,0
84,84.60,83.95,0
86,84.62,83.97,0
85,84.63,83.98,0
84,84.62,83.98,0
84,84.61,83.98,0
84,84.59,83.98,0
84,84.58,83.98,0
85,84.59,83.99,0
84,84.58,83.99,0
83,84.55,83.98,0
85,84.56,83.99,0
84,84.55,83.99,0
83,84.51,83.98,0
85,84.52,83.99,0
84,84.51,83.99,0
84,84.50,83.99,0
83,84.47,83.98,0
85,84.48,83.99,0
84,84.47,83.99,0
84,84.46,83.99,0
83,84.44,83.98,0
85,84.45,83.99,0
84,84.44,83.99,0
84,84.43,83.99,0
84,84.42,83.99,0
84,84.41,83.99,0
84,84.40,83.99,0
84,84.40,83.99,0
82,84.35,83.97,0
83,84.32,83.97,0
84,84.31,83.97,0
84,84.31,83.97,0
84,84.30,83.97,0
84,84.30,83.97,0
84,84.29,83.97,0
84,84.28,83.97,0
84,84.28,83.97,0
84,84.27,83.97,0
85,84.29,83.98,0
84,84.28,83.98,0
86,84.32,84.00,0
84,84.31,84.00,0
86,84.34,84.02,0
84,84.34,84.02,0
84,84.33,84.02,0
85,84.34,84.03,0
85,84.36,84.04,0
84,84.35,84.04,0
84,84.34,84.04,0
86,84.38,84.06,0
85,84.39,84.07,0
86,84.42,84.09,0
86,84.45,84.10,0
83,84.42,84.09,0
86,84.45,84.11,0
84,84.45,84.11,0
86,84.48,84.13,0
86,84.51,84.15,0
86,84.54,84.17,0
86,84.57,84.19,0
86,84.59,84.20,0
86,84.62,84.22,0
86,84.65,84.24,0
86,84.68,84.26,0
86,84.70,84.27,0
85,84.71,84.28,0
86,84.74,84.30,0
88,84.80,84.34,0
86,84.82,84.35,0
90,84.93,84.41,0
87,84.97,84.44,0
85,84.97,84.44,0
85,84.97,84.45,0
86,84.99,84.46,0
86,85.01,84.48,0
85,85.01,84.48,0
86,85.03,84.50,0
83,84.99,84.48,0
86,85.01,84.50,0
85,85.01,84.50,0
84,84.99,84.50,0
86,85.01,84.51,0
87,85.05,84.54,0
88,85.11,84.57,0
87,85.15,84.60,0
83,85.10,84.58,0
86,85.12,84.59,0
86,85.14,84.61,0
86,85.16,84.62,0
87,85.19,84.65,0
86,85.21,84.66,0
86,85.23,84.67,0
86,85.24,84.69,0
86,85.26,84.70,0
88,85.31,84.73,0
88,85.37,84.77,0
87,85.40,84.79,0
86,85.41,84.80,0
88,85.46,84.83,0
86,85.47,84.84,0
86,85.48,84.86,0
86,85.49,84.87,0
86,85.50,84.88,0
88,85.55,84.91,0
86,85.56,84.92,0
89,85.63,84.96,0
87,85.66,84.98,0
86,85.67,84.99,0
86,85.67,85.00,0
88,85.72,85.03,0
87,85.74,85.05,0
87,85.77,85.07,0
86,85.77,85.08,0
88,85.82,85.11,0
87,85.84,85.13,0
88,85.89,85.16,0
86,85.89,85.17,0
86,85.89,85.17,0
88,85.93,85.20,0
86,85.93,85.21,0
87,85.95,85.23,0
89,86.02,85.27,0
90,86.10,85.31,0
88,86.13,85.34,0
88,86.17,85.37,0
89,86.23,85.40,0
88,86.26,85.43,0
88,86.30,85.45,0
88,86.33,85.48,0
88,86.36,85.51,0
88,86.40,85.53,0
88,86.43,85.55,0
88,86.46,85.58,0
89,86.51,85.61,0
88,86.54,85.64,0
88,86.57,85.66,0
88,86.60,85.68,0
89,86.65,85.72,0
89,86.69,85.75,0
90,86.76,85.79,0
90,86.83,85.83,0
91,86.91,85.89,0
91,86.99,85.94,0
90,87.05,85.98,0
90,87.11,86.02,0
90,87.17,86.06,0
90,87.22,86.10,0
90,87.28,86.14,0
90,87.33,86.18,0
90,87.39,86.21,0
90,87.44,86.25,0
90,87.49,86.29,0
91,87.56,86.34,0
90,87.61,86.37,0
92,87.70,86.43,0
92,87.78,86.48,0
91,87.85,86.53,0
91,87.91,86.57,0
91,87.97,86.62,0
94,88.09,86.69,0
92,88.17,86.75,0
91,88.23,86.79,0
92,88.30,86.84,0
92,88.38,86.89,0
92,88.45,86.94,0
92,88.52,86.99,0
92,88.59,87.04,0
94,88.70,87.11,0
92,88.76,87.16,0
91,88.81,87.20,0
94,88.91,87.27,0
92,88.98,87.32,0
92,89.04,87.36,0
92,89.09,87.41,0
92,89.15,87.46,0
94,89.25,87.52,0
96,89.38,87.61,0
94,89.48,87.67,0
94,89.57,87.73,0
92,89.62,87.78,0
92,89.66,87.82,0
94,89.75,87.88,0
94,89.84,87.94,0
93,89.90,87.99,0
96,90.02,88.07,0
94,90.10,88.13,0
93,90.16,88.18,0
94,90.24,88.24,0
94,90.31,88.29,0
94,90.38,88.35,0
94,90.46,88.41,0
94,90.53,88.46,0
95,90.62,88.53,0
96,90.72,88.60,0
96,90.83,88.68,0
96,90.93,88.75,0
95,91.01,88.81,0
95,91.09,88.88,0
96,91.19,88.95,0
95,91.27,89.01,0
90,91.24,89.02,0
97,91.36,89.10,0
97,91.47,89.18,0
94,91.52,89.22,0
95,91.59,89.28,0
94,91.64,89.33,0
95,91.71,89.39,0
95,91.77,89.44,0
95,91.84,89.50,0
96,91.92,89.56,0
97,92.02,89.64,0
94,92.06,89.68,0
95,92.12,89.73,0
97,92.22,89.81,0
97,92.31,89.88,0
96,92.39,89.94,0
95,92.44,89.99,0
96,92.51,90.05,0
95,92.56,90.10,0
97,92.65,90.17,0
98,92.76,90.25,0
97,92.84,90.32,0
98,92.94,90.39,0
98,93.05,90.47,0
98,93.14,90.54,0
97,93.22,90.61,0
98,93.32,90.68,0
98,93.41,90.76,0
98,93.50,90.83,0
98,93.59,90.90,0
98,93.68,90.97,0
98,93.77,91.04,0
96,93.81,91.09,0
98,93.90,91.16,0
98,93.98,91.23,0
98,94.06,91.30,0
98,94.14,91.36,0
100,94.25,91.45,0
99,94.35,91.52,0
99,94.44,91.60,0
99,94.53,91.67,0
98,94.60,91.74,0
98,94.67,91.80,0
98,94.74,91.86,0
98,94.80,91.92,0
98,94.87,91.98,0
100,94.97,92.06,0
101,95.09,92.15,0
102,95.23,92.25,0
99,95.30,92.32,0
100,95.40,92.40,0
101,95.51,92.48,0
101,95.62,92.57,0
101,95.73,92.65,0
100,95.81,92.72,0
101,95.92,92.81,0
100,96.00,92.88,0
99,96.06,92.94,0
102,96.18,93.03,0
102,96.29,93.12,0
100,96.37,93.19,0
99,96.42,93.25,0
102,96.53,93.34,0
101,96.62,93.41,0
101,96.71,93.49,0
100,96.77,93.55,0
101,96.86,93.63,0
105,97.02,93.74,0
103,97.14,93.83,0
104,97.28,93.94,0
102,97.37,94.02,0
107,97.57,94.15,0
103,97.67,94.23,0
102,97.76,94.31,0
103,97.87,94.40,0
103,97.97,94.48,0
100,98.01,94.54,0
103,98.11,94.62,0
103,98.21,94.71,0
104,98.32,94.80,0
103,98.42,94.88,0
103,98.51,94.96,0
103,98.60,95.04,0
103,98.69,95.12,0
103,98.77,95.20,0
104,98.88,95.29,0
106,99.02,95.40,0
104,99.12,95.48,0
103,99.20,95.56,0
104,99.29,95.64,0
104,99.39,95.73,0
105,99.50,95.82,0
104,99.59,95.90,0
104,99.68,95.98,0
105,99.78,96.07,0
105,99.89,96.16,0
105,99.99,96.25,0
105,100.09,96.34,0
104,100.17,96.41,0
105,100.26,96.50,0
104,100.34,96.58,0
106,100.45,96.67,0
106,100.56,96.76,0
106,100.67,96.86,0
107,100.80,96.96,0
105,100.88,97.04,0
108,101.03,97.15,0
108,101.16,97.26,0
106,101.26,97.34,0
106,101.36,97.43,0
108,101.49,97.54,0
108,101.62,97.64,0
107,101.73,97.73,0
108,101.85,97.84,0
108,101.98,97.94,0
106,102.06,98.02,0
109,102.19,98.13,0
110,102.35,98.25,0
112,102.54,98.38,0
108,102.65,98.48,0
109,102.78,98.59,0
108,102.88,98.68,0
110,103.03,98.79,0
108,103.13,98.89,0
114,103.34,99.04,0
112,103.52,99.17,0
112,103.69,99.29,0
111,103.83,99.41,0
111,103.98,99.53,0
112,104.14,99.65,0
112,104.29,99.78,0
110,104.41,99.88,0
113,104.58,100.01,0
111,104.71,100.12,0
112,104.85,100.24,0
113,105.02,100.37,0
111,105.14,100.47,0
111,105.25,100.58,0
111,105.37,100.68,0
113,105.52,100.80,0
111,105.63,100.91,0
116,105.84,101.06,0
113,105.98,101.18,0
115,106.16,101.31,0
119,106.42,101.49,0
116,106.61,101.64,0
115,106.78,101.77,0
115,106.94,101.90,0
115,107.10,102.03,0
117,107.30,102.18,0
116,107.48,102.32,0
117,107.67,102.47,0
116,107.83,102.60,0
116,108.00,102.74,0
120,108.24,102.91,0
116,108.39,103.04,0
116,108.54,103.17,0
116,108.69,103.30,0
117,108.86,103.44,0
119,109.06,103.59,0
119,109.26,103.75,0
119,109.46,103.90,0
120,109.67,104.06,0
118,109.83,104.20,0
121,110.06,104.37,0
121,110.28,104.53,0
119,110.45,104.68,0
123,110.70,104.86,0
121,110.91,105.02,0
121,111.11,105.18,0
123,111.35,105.36,0
121,111.54,105.52,0
121,111.73,105.67,0
123,111.95,105.84,0
129,112.29,106.08,0
129,112.63,106.31,0
126,112.90,106.50,0
125,113.14,106.69,0
128,113.44,106.90,0
129,113.75,107.12,0
131,114.09,107.36,0
130,114.41,107.59,0
130,114.72,107.81,0
129,115.01,108.02,0
129,115.29,108.23,0
131,115.60,108.46,0
130,115.89,108.68,0
131,116.19,108.90,0
131,116.49,109.12,0
132,116.80,109.35,0
132,117.10,109.58,0
131,117.38,109.79,0
129,117.61,109.98,0
131,117.88,110.19,0
134,118.20,110.43,0
136,118.56,110.69,0
136,118.91,110.94,0
137,119.27,111.20,0
139,119.66,111.48,0
137,120.01,111.73,0
139,120.39,112.01,0
137,120.72,112.26,0
137,121.05,112.50,0
136,121.35,112.74,0
140,121.72,113.01,0
139,122.07,113.27,0
141,122.44,113.55,0
140,122.80,113.81,0
138,123.10,114.05,0
140,123.44,114.31,0
140,123.77,114.57,0
138,124.05,114.80,0
139,124.35,115.05,0
139,124.65,115.29,0
140,124.95,115.53,0
141,125.27,115.79,0
140,125.57,116.03,0
142,125.90,116.29,0
143,126.24,116.56,0
147,126.65,116.86,0
145,127.02,117.14,0
143,127.34,117.40,0
147,127.73,117.70,0
148,128.14,118.00,0
151,128.60,118.33,0
152,129.06,118.67,0
150,129.48,118.98,0
149,129.87,119.28,0
153,130.34,119.62,0
157,130.87,119.99,0
157,131.39,120.36,0
159,131.94,120.75,0
154,132.39,121.08,0
157,132.88,121.44,0
160,133.42,121.83,0
163,134.01,122.24,0
158,134.49,122.59,0
157,134.94,122.94,0
162,135.48,123.33,0
165,136.07,123.75,0
165,136.65,124.16,0
164,137.20,124.56,0
162,137.69,124.93,0
162,138.18,125.30,0
163,138.68,125.68,0
162,139.14,126.04,0
162,139.60,126.40,0
164,140.09,126.78,0
163,140.55,127.14,0
163,141.00,127.50,0
164,141.46,127.86,0
163,141.89,128.22,0
163,142.31,128.56,0
163,142.72,128.91,0
163,143.13,129.25,0
162,143.51,129.58,0
162,143.88,129.90,0
165,144.30,130.25,0
164,144.69,130.59,0
165,145.10,130.93,0
164,145.48,131.26,0
167,145.91,131.62,0
166,146.31,131.96,0
163,146.64,132.27,0
167,147.05,132.62,0
170,147.51,133.00,0
169,147.94,133.36,0
168,148.34,133.70,0
169,148.75,134.06,0
169,149.16,134.40,0
173,149.63,134.79,0
171,150.06,135.15,0
171,150.48,135.51,0
170,150.87,135.86,0
170,151.25,136.20,0
170,151.63,136.54,0
169,151.98,136.86,0
169,152.32,137.18,0
169,152.65,137.50,0
170,153.00,137.82,0
169,153.32,138.14,0
171,153.67,138.47,0
169,153.98,138.77,0
170,154.30,139.08,0
171,154.63,139.40,0
171,154.96,139.72,0
171,155.28,140.03,0
171,155.59,140.34,0
169,155.86,140.63,0
171,156.17,140.93,0
172,156.48,141.24,0
170,156.75,141.53,0
171,157.04,141.82,0
170,157.30,142.11,0
172,157.59,142.40,0
171,157.86,142.69,0
170,158.10,142.96,0
172,158.38,143.25,0
169,158.59,143.51,0
171,158.84,143.79,0
173,159.12,144.08,0
171,159.36,144.35,0
171,159.59,144.61,0
173,159.86,144.90,0
176,160.18,145.21,0
177,160.52,145.53,0
174,160.79,145.81,0
175,161.07,146.10,0
177,161.39,146.41,0
176,161.69,146.71,0
175,161.95,146.99,0
175,162.21,147.27,0
175,162.47,147.55,0
176,162.74,147.83,0
175,162.98,148.10,0
175,163.22,148.37,0
176,163.48,148.65,0
176,163.73,148.92,0
176,163.98,149.19,0
177,164.24,149.47,0
175,164.45,149.73,0
177,164.70,150.00,0
180,165.01,150.30,0
177,165.25,150.57,0
177,165.48,150.83,0
179,165.75,151.11,0
180,166.04,151.40,0
177,166.26,151.66,0
179,166.51,151.93,0
177,166.72,152.18,0
176,166.91,152.42,0
176,167.09,152.66,0
177,167.29,152.90,0
177,167.48,153.14,0
177,167.67,153.38,0
175,167.82,153.60,0
175,167.96,153.81,0
175,168.10,154.02,0
175,168.24,154.23,0
175,168.38,154.44,0
174,168.49,154.63,0
171,168.54,154.80,0
175,168.67,155.00,0
173,168.76,155.18,0
173,168.84,155.36,0
175,168.96,155.55,0
174,169.06,155.74,0
174,169.16,155.92,0
174,169.26,156.10,0
173,169.33,156.27,0
173,169.41,156.44,0
173,169.48,156.60,0
173,169.55,156.77,0
173,169.62,156.93,0
173,169.69,157.09,0
173,169.75,157.25,0
172,169.80,157.40,0
171,169.82,157.53,0
172,169.87,157.68,0
171,169.89,157.81,0
172,169.93,157.95,0
171,169.95,158.08,0
171,169.97,158.21,0
171,169.99,158.34,0
170,169.99,158.46,0
170,169.99,158.57,0
171,170.01,158.70,0
169,169.99,158.80,0
169,169.97,158.90,0
169,169.95,159.00,0
170,169.96,159.11,0
169,169.94,159.21,0
169,169.92,159.31,0
169,169.90,159.41,0
168,169.86,159.49,0
168,169.82,159.58,0
168,169.79,159.66,0
169,169.77,159.76,0
168,169.74,159.84,0
168,169.70,159.92,0
171,169.73,160.03,0
169,169.71,160.12,0
167,169.66,160.19,0
168,169.63,160.27,0
167,169.57,160.33,0
167,169.52,160.40,0
167,169.47,160.47,0
167,169.42,160.53,0
166,169.35,160.59,0
166,169.29,160.64,0
165,169.20,160.69,0
165,169.12,160.73,0
165,169.03,160.77,0
165,168.95,160.81,0
165,168.87,160.86,0
164,168.78,160.89,0
164,168.68,160.92,0
163,168.57,160.94,0
165,168.50,160.98,0
164,168.41,161.01,0
162,168.28,161.02,0
164,168.19,161.05,0
163,168.09,161.07,0
165,168.03,161.11,0
164,167.95,161.14,0
164,167.87,161.17,0
163,167.77,161.18,0
164,167.69,161.21,0
163,167.60,161.23,0
163,167.51,161.25,0
163,167.42,161.27,0
162,167.31,161.27,0
163,167.22,161.29,0
163,167.14,161.31,0
161,167.02,161.30,0
161,166.90,161.30,0
161,166.78,161.30,0
163,166.70,161.31,0
161,166.59,161.31,0
161,166.48,161.31,0
159,166.33,161.29,0
161,166.22,161.28,0
160,166.10,161.27,0
160,165.97,161.26,0
160,165.86,161.24,0
160,165.74,161.23,0
159,165.60,161.21,0
159,165.47,161.19,0
160,165.36,161.18,0
160,165.25,161.16,0
160,165.15,161.15,0
159,165.03,161.13,0
160,164.93,161.12,0
157,164.77,161.08,0
158,164.63,161.05,0
158,164.50,161.02,0
158,164.37,160.99,0
157,164.22,160.95,0
157,164.08,160.91,0
157,163.94,160.87,0
157,163.80,160.83,0
157,163.66,160.79,0
157,163.53,160.75,0
157,163.40,160.72,0
156,163.25,160.67,0
157,163.12,160.63,0
155,162.96,160.58,0
157,162.84,160.54,0
156,162.71,160.49,0
155,162.55,160.44,0
156,162.42,160.40,0
155,162.27,160.34,0
155,162.13,160.29,0
155,161.98,160.24,0
153,161.80,160.16,0
154,161.65,160.10,0
154,161.50,160.04,0
154,161.35,159.98,0
154,161.20,159.92,0
154,161.06,159.86,0
153,160.89,159.79,0
153,160.74,159.72,0
153,160.58,159.66,0
153,160.43,159.59,0
155,160.32,159.54,0
153,160.17,159.48,0
153,160.03,159.41,0
153,159.89,159.35,0
154,159.77,159.30,0
152,159.62,159.22,0
152,159.47,159.15,0
151,159.30,159.07,0
152,159.15,159.00,0
153,159.03,158.94,1
151,158.87,158.86,1
151,158.71,158.78,2
151,158.55,158.70,2
151,158.40,158.63,2
151,158.26,158.55,2
152,158.13,158.48,2
151,157.99,158.41,2
151,157.85,158.34,2
149,157.67,158.24,2
150,157.52,158.16,2
149,157.35,158.07,2
149,157.18,157.98,2
149,157.02,157.89,2
149,156.86,157.80,2
149,156.70,157.71,2
149,156.55,157.62,2
149,156.39,157.54,2
148,156.23,157.44,2
149,156.08,157.36,2
148,155.92,157.26,2
149,155.78,157.18,2
149,155.65,157.10,2
149,155.51,157.02,2
149,155.38,156.94,2
148,155.24,156.85,2
148,155.09,156.76,2
148,154.95,156.67,2
148,154.81,156.59,2
147,154.65,156.49,2
147,154.50,156.40,2
147,154.35,156.30,2
148,154.22,156.22,2
147,154.08,156.13,2
147,153.94,156.04,2
146,153.78,155.93,2
146,153.62,155.84,2
146,153.47,155.74,2
146,153.32,155.64,2
145,153.16,155.53,2
145,152.99,155.43,2
145,152.83,155.32,2
145,152.68,155.22,2
145,152.52,155.12,2
145,152.37,155.02,2
144,152.20,154.91,2
145,152.06,154.81,2
144,151.90,154.70,2
144,151.74,154.59,2
143,151.57,154.48,2
143,151.39,154.36,2
143,151.23,154.25,2
143,151.06,154.14,2
143,150.90,154.02,2
143,150.74,153.91,2
143,150.59,153.81,2
145,150.48,153.72,2
141,150.29,153.59,2
142,150.12,153.47,2
141,149.94,153.35,2
141,149.76,153.23,2
142,149.60,153.11,2
141,149.43,152.99,2
141,149.26,152.87,2
142,149.12,152.76,2
141,148.96,152.65,2
141,148.80,152.53,2
140,148.62,152.40,2
141,148.47,152.29,2
139,148.28,152.16,2
140,148.11,152.04,2
139,147.93,151.91,2
140,147.77,151.79,2
139,147.60,151.66,2
140,147.45,151.54,2
139,147.28,151.42,2
140,147.13,151.30,2
139,146.97,151.18,2
139,146.81,151.06,2
138,146.63,150.93,2
138,146.46,150.80,2
138,146.29,150.67,2
138,146.13,150.54,2
138,145.96,150.42,2
138,145.80,150.29,2
137,145.63,150.16,2
137,145.45,150.03,2
137,145.29,149.90,2
137,145.12,149.77,2
137,144.96,149.64,2
137,144.80,149.52,2
137,144.64,149.39,2
136,144.47,149.26,2
137,144.32,149.13,2
136,144.15,149.00,2
137,144.01,148.88,2
136,143.85,148.75,2
137,143.71,148.64,2
137,143.58,148.52,2
135,143.41,148.38,2
137,143.28,148.27,2
136,143.13,148.15,2
136,142.99,148.03,2
136,142.85,147.91,2
137,142.73,147.80,2
135,142.58,147.67,2
136,142.45,147.55,2
136,142.32,147.44,2
137,142.21,147.33,2
135,142.07,147.21,2
134,141.91,147.08,2
135,141.77,146.96,2
135,141.63,146.84,2
135,141.50,146.72,2
135,141.37,146.60,2
135,141.24,146.49,2
135,141.12,146.37,2
134,140.98,146.25,2
134,140.84,146.12,2
133,140.68,145.99,2
133,140.53,145.86,2
135,140.42,145.75,2
134,140.29,145.64,2
133,140.14,145.51,2
133,140.00,145.39,2
133,139.86,145.26,2
132,139.70,145.13,2
133,139.57,145.01,2
132,139.42,144.88,2
131,139.25,144.74,2
131,139.08,144.60,2
132,138.94,144.48,2
131,138.78,144.34,2
131,138.63,144.21,2
131,138.47,144.08,2
131,138.33,143.94,2
132,138.20,143.83,2
131,138.05,143.70,2
131,137.91,143.57,2
131,137.78,143.44,2
131,137.64,143.32,2
129,137.47,143.18,2
131,137.34,143.05,2
129,137.17,142.91,2
129,137.01,142.78,2
129,136.85,142.64,2
130,136.71,142.51,2
129,136.56,142.38,2
129,136.41,142.24,2
129,136.26,142.11,2
129,136.11,141.98,2
129,135.97,141.85,2
128,135.81,141.71,2
129,135.67,141.58,2
128,135.52,141.45,2
128,135.37,141.31,2
128,135.22,141.18,2
127,135.06,141.04,2
128,134.92,140.91,2
128,134.78,140.78,2
127,134.62,140.64,2
128,134.49,140.51,2
127,134.34,140.38,2
127,134.19,140.25,2
127,134.05,140.11,2
126,133.89,139.97,2
123,133.67,139.80,2
126,133.52,139.66,2
127,133.39,139.54,2
126,133.24,139.40,2
126,133.10,139.27,2
125,132.93,139.13,2
125,132.77,138.98,2
125,132.62,138.84,2
126,132.49,138.72,2
125,132.34,138.58,2
125,132.19,138.44,2
125,132.05,138.31,2
125,131.91,138.18,2
125,131.77,138.04,2
125,131.63,137.91,2
124,131.48,137.77,2
124,131.33,137.64,2
125,131.20,137.51,2
122,131.02,137.35,2
125,130.90,137.23,2
125,130.78,137.11,2
124,130.65,136.98,2
124,130.51,136.85,2
123,130.36,136.71,2
123,130.21,136.57,2
125,130.11,136.46,2
123,129.97,136.32,2
123,129.83,136.19,2
123,129.69,136.06,2
123,129.56,135.93,2
123,129.43,135.80,2
123,129.30,135.67,2
123,129.17,135.54,2
123,129.05,135.42,2
123,128.93,135.29,2
123,128.81,135.17,2
122,128.67,135.04,2
122,128.54,134.91,2
121,128.39,134.77,2
125,128.32,134.67,2
121,128.18,134.53,2
121,128.03,134.40,2
121,127.89,134.27,2
121,127.75,134.13,2
121,127.62,134.00,2
121,127.49,133.87,2
119,127.32,133.72,2
121,127.19,133.60,2
122,127.09,133.48,2
121,126.96,133.35,2
121,126.84,133.23,2
121,126.73,133.11,2
121,126.61,132.99,2
121,126.50,132.87,2
120,126.37,132.74,2
120,126.24,132.61,2
120,126.12,132.49,2
120,126.00,132.36,2
120,125.88,132.24,2
120,125.76,132.11,2
120,125.64,131.99,2
120,125.53,131.87,2
121,125.44,131.76,2
121,125.35,131.66,2
119,125.22,131.53,2
119,125.10,131.41,2
120,125.00,131.29,2
120,124.90,131.18,2
119,124.78,131.06,2
119,124.66,130.94,2
119,124.55,130.82,2
119,124.44,130.70,2
117,124.29,130.56,2
119,124.19,130.45,2
119,124.08,130.33,2
118,123.96,130.21,2
118,123.84,130.09,2
118,123.72,129.97,2
118,123.61,129.85,2
117,123.48,129.72,2
117,123.35,129.59,2
117,123.22,129.46,2
117,123.10,129.34,2
118,122.99,129.23,2
117,122.87,129.10,2
117,122.76,128.98,2
117,122.64,128.86,2
119,122.57,128.76,2
117,122.46,128.65,2
117,122.35,128.53,2
117,122.24,128.41,2
117,122.14,128.30,2
116,122.01,128.18,2
117,121.91,128.07,2
115,121.78,127.94,2
118,121.70,127.84,2
116,121.59,127.72,2
116,121.47,127.60,2
116,121.36,127.48,2
115,121.24,127.36,2
116,121.13,127.25,2
115,121.01,127.12,2
115,120.89,127.00,2
115,120.77,126.88,2
115,120.66,126.76,2
115,120.54,126.65,2
116,120.45,126.54,2
115,120.34,126.42,2
114,120.22,126.30,2
115,120.11,126.19,2
116,120.03,126.08,2
114,119.91,125.96,2
116,119.83,125.86,2
113,119.69,125.74,2
114,119.58,125.62,2
114,119.47,125.50,2
114,119.36,125.39,2
113,119.23,125.26,2
114,119.13,125.15,2
113,119.01,125.03,2
113,118.89,124.91,2
113,118.77,124.79,2
113,118.65,124.67,2
114,118.56,124.57,2
113,118.45,124.45,2
113,118.34,124.34,2
114,118.25,124.23,2
113,118.15,124.12,2
113,118.04,124.01,2
113,117.94,123.90,2
113,117.84,123.79,2
113,117.75,123.68,2
113,117.65,123.57,2
117,117.64,123.51,2
113,117.55,123.40,2
112,117.44,123.29,2
112,117.33,123.18,2
112,117.22,123.06,2
112,117.12,122.95,2
113,117.03,122.85,2
112,116.93,122.75,2
112,116.83,122.64,2
112,116.74,122.53,2
112,116.64,122.43,2
113,116.57,122.33,2
111,116.46,122.22,2
111,116.35,122.11,2
111,116.24,122.00,2
112,116.16,121.90,2
111,116.05,121.79,2
111,115.95,121.68,2
111,115.85,121.57,2
111,115.76,121.47,2
111,115.66,121.36,2
111,115.57,121.26,2
111,115.48,121.16,2
112,115.41,121.06,2
110,115.30,120.95,2
110,115.19,120.84,2
111,115.11,120.75,2
110,115.01,120.64,2
109,114.89,120.52,2
109,114.77,120.41,2
110,114.67,120.30,2
109,114.56,120.19,2
110,114.47,120.09,2
110,114.38,119.99,2
109,114.27,119.88,2
109,114.17,119.77,2
109,114.06,119.66,2
109,113.96,119.55,2
109,113.86,119.45,2
109,113.77,119.34,2
109,113.67,119.24,2
109,113.58,119.14,2
107,113.45,119.02,2
109,113.36,118.92,2
108,113.25,118.81,2
108,113.15,118.70,2
109,113.06,118.60,2
109,112.98,118.51,2
108,112.88,118.40,2
108,112.78,118.30,2
108,112.69,118.19,2
109,112.61,118.10,2
108,112.52,118.00,2
108,112.43,117.90,2
108,112.34,117.80,2
108,112.26,117.70,2
108,112.17,117.61,2
107,112.07,117.50,2
108,111.99,117.41,2
107,111.89,117.30,2
107,111.79,117.20,2
108,111.71,117.11,2
107,111.62,117.01,2
107,111.53,116.91,2
109,111.48,116.83,2
107,111.39,116.73,2
107,111.30,116.63,2
107,111.21,116.54,2
106,111.11,116.43,2
108,111.05,116.35,2
107,110.97,116.25,2
104,110.83,116.13,2
106,110.73,116.03,2
105,110.61,115.92,2
106,110.52,115.82,2
107,110.45,115.73,2
105,110.34,115.62,2
105,110.24,115.52,2
105,110.13,115.41,2
104,110.01,115.30,2
105,109.91,115.19,2
106,109.83,115.10,2
105,109.73,115.00,2
105,109.64,114.90,2
105,109.55,114.80,2
105,109.46,114.70,2
105,109.37,114.61,2
104,109.26,114.50,2
104,109.15,114.40,2
105,109.07,114.30,2
105,108.99,114.21,2
105,108.91,114.12,2
105,108.83,114.03,2
105,108.75,113.94,2
105,108.68,113.85,2
105,108.61,113.76,2
105,108.53,113.67,2
105,108.46,113.58,2
105,108.39,113.50,2
105,108.33,113.41,2
104,108.24,113.32,2
104,108.15,113.23,2
104,108.07,113.13,2
104,107.99,113.04,2
105,107.93,112.96,2
105,107.87,112.88,2
104,107.79,112.79,2
103,107.70,112.70,2
105,107.64,112.62,2
104,107.57,112.53,2
101,107.44,112.42,2
105,107.39,112.34,2
103,107.30,112.25,2
104,107.24,112.17,2
103,107.15,112.08,2
103,107.07,111.98,2
101,106.95,111.87,2
103,106.87,111.79,2
104,106.81,111.71,2
103,106.74,111.62,2
103,106.66,111.53,2
103,106.59,111.45,2
103,106.52,111.36,2
102,106.43,111.27,2
101,106.32,111.17,2
103,106.25,111.09,2
103,106.19,111.01,2
102,106.10,110.92,2
103,106.04,110.84,2
101,105.94,110.74,2
103,105.88,110.66,2
103,105.82,110.58,2
101,105.73,110.49,2
101,105.63,110.39,2
102,105.56,110.31,2
102,105.49,110.23,2
101,105.40,110.13,2
101,105.31,110.04,2
101,105.22,109.95,2
101,105.14,109.86,2
101,105.06,109.77,2
101,104.98,109.69,2
101,104.90,109.60,2
100,104.80,109.50,2
101,104.72,109.42,2
101,104.65,109.33,2
101,104.57,109.25,2
101,104.50,109.17,2
101,104.43,109.09,2
101,104.36,109.01,2
101,104.30,108.93,2
99,104.19,108.83,2
100,104.11,108.74,2
100,104.03,108.65,2
99,103.92,108.55,2
99,103.83,108.46,2
101,103.77,108.38,2
100,103.69,108.30,2
99,103.60,108.21,2
99,103.51,108.12,2
100,103.44,108.03,2
99,103.35,107.94,2
99,103.26,107.85,2
99,103.18,107.77,2
98,103.07,107.67,2
98,102.97,107.57,2
100,102.91,107.50,2
100,102.85,107.42,2
99,102.78,107.34,2
98,102.68,107.24,2
99,102.61,107.16,2
98,102.52,107.07,2
100,102.47,107.00,2
99,102.40,106.92,2
100,102.35,106.85,2
98,102.26,106.76,2
99,102.20,106.68,2
100,102.15,106.62,2
99,102.09,106.54,2
99,102.03,106.47,2
99,101.97,106.39,2
98,101.89,106.31,2
98,101.81,106.22,2
98,101.73,106.14,2
98,101.66,106.06,2
99,101.61,105.99,2
98,101.53,105.91,2
98,101.46,105.83,2
98,101.39,105.75,2
99,101.35,105.68,2
97,101.26,105.60,2
97,101.17,105.51,2
97,101.09,105.43,2
98,101.03,105.35,2
96,100.93,105.26,2
96,100.83,105.17,2
96,100.73,105.07,2
97,100.66,104.99,2
96,100.57,104.90,2
96,100.47,104.81,2
96,100.38,104.73,2
99,100.36,104.67,2
96,100.27,104.58,2
96,100.18,104.50,2
96,100.10,104.41,2
96,100.02,104.33,2
96,99.94,104.24,2
97,99.88,104.17,2
96,99.80,104.09,2
97,99.75,104.02,2
96,99.67,103.94,2
96,99.60,103.86,2
97,99.55,103.79,2
97,99.49,103.72,2
96,99.42,103.65,2
95,99.34,103.56,2
96,99.27,103.48,2
96,99.20,103.41,2
96,99.14,103.34,2
95,99.06,103.25,2
96,99.00,103.18,2
95,98.92,103.10,2
96,98.86,103.03,2
95,98.78,102.95,2
96,98.73,102.88,2
96,98.67,102.81,2
96,98.62,102.74,2
95,98.54,102.66,2
95,98.47,102.59,2
95,98.40,102.51,2
93,98.30,102.41,2
93,98.19,102.32,2
95,98.13,102.25,2
95,98.06,102.18,2
93,97.96,102.08,2
94,97.88,102.00,2
94,97.81,101.92,2
93,97.71,101.83,2
93,97.62,101.74,2
93,97.52,101.66,2
93,97.43,101.57,2
93,97.34,101.49,2
95,97.30,101.42,2
95,97.25,101.36,2
94,97.19,101.28,2
93,97.10,101.20,2
93,97.02,101.12,2
94,96.96,101.05,2
94,96.90,100.98,2
95,96.86,100.92,2
93,96.79,100.84,2
93,96.71,100.76,2
94,96.66,100.69,2
93,96.58,100.61,2
93,96.51,100.54,2
95,96.48,100.48,2
93,96.41,100.41,2
93,96.34,100.33,2
95,96.32,100.28,2
93,96.25,100.21,2
94,96.20,100.15,2
94,96.16,100.08,2
94,96.12,100.02,2
93,96.06,99.95,2
93,95.99,99.88,2
94,95.95,99.82,2
93,95.90,99.76,2
93,95.84,99.69,2
94,95.80,99.63,2
94,95.76,99.58,2
94,95.73,99.52,2
94,95.69,99.46,2
93,95.64,99.40,2
93,95.59,99.34,2
93,95.54,99.27,2
94,95.51,99.22,2
94,95.48,99.17,2
95,95.47,99.13,2
94,95.44,99.07,2
94,95.41,99.02,2
94,95.38,98.97,2
92,95.31,98.90,2
93,95.27,98.85,2
92,95.20,98.78,2
92,95.14,98.71,2
93,95.09,98.65,2
93,95.05,98.60,2
92,94.99,98.53,2
92,94.93,98.46,2
93,94.89,98.41,2
93,94.85,98.36,2
92,94.80,98.29,2
93,94.76,98.24,2
95,94.77,98.21,2
93,94.73,98.15,2
94,94.72,98.11,2
92,94.66,98.05,2
93,94.63,98.00,2
93,94.60,97.95,2
92,94.54,97.89,2
93,94.51,97.84,2
94,94.50,97.80,2
93,94.47,97.76,2
92,94.42,97.70,2
92,94.38,97.64,2
93,94.35,97.60,2
92,94.30,97.54,2
92,94.25,97.48,2
92,94.21,97.43,2
92,94.17,97.37,2
91,94.10,97.31,2
90,94.02,97.24,2
92,93.98,97.19,2
92,93.94,97.13,2
91,93.88,97.07,2
90,93.80,97.00,2
93,93.79,96.96,2
91,93.73,96.90,2
92,93.70,96.85,2
92,93.66,96.80,2
90,93.59,96.74,2
91,93.54,96.68,2
90,93.47,96.61,2
90,93.40,96.55,2
90,93.33,96.48,2
91,93.28,96.43,2
87,93.16,96.33,2
92,93.13,96.29,2
90,93.07,96.23,2
90,93.01,96.16,2
90,92.95,96.10,2
90,92.89,96.04,2
91,92.85,95.99,2
90,92.80,95.93,2
90,92.74,95.87,2
90,92.69,95.81,2
90,92.63,95.75,2
90,92.58,95.70,2
90,92.53,95.64,2
89,92.46,95.57,2
90,92.41,95.52,2
90,92.36,95.46,2
90,92.31,95.41,2
90,92.27,95.35,2
89,92.20,95.29,2
89,92.14,95.23,2
90,92.09,95.17,2
90,92.05,95.12,2
89,91.99,95.06,2
89,91.93,95.00,2
90,91.89,94.95,2
89,91.84,94.89,2
89,91.78,94.83,2
90,91.74,94.78,2
90,91.71,94.74,2
90,91.67,94.69,2
89,91.62,94.63,2
90,91.59,94.59,2
90,91.56,94.54,2
90,91.53,94.49,2
89,91.47,94.44,2
90,91.45,94.40,2
89,91.40,94.34,2
88,91.33,94.28,2
88,91.26,94.22,2
90,91.24,94.17,2
89,91.19,94.12,2
89,91.15,94.07,2
88,91.08,94.01,2
88,91.02,93.95,2
90,91.00,93.91,2
88,90.94,93.85,2
88,90.88,93.79,2
87,90.81,93.72,2
88,90.75,93.67,2
88,90.70,93.61,2
88,90.64,93.55,2
88,90.59,93.50,2
88,90.54,93.44,2
87,90.47,93.38,2
88,90.42,93.33,2
90,90.41,93.29,2
87,90.34,93.23,2
87,90.27,93.17,2
86,90.19,93.10,2
87,90.12,93.03,2
88,90.08,92.98,2
87,90.02,92.92,2
88,89.98,92.88,2
89,89.96,92.84,2
88,89.92,92.79,2
86,89.84,92.72,2
87,89.79,92.66,2
87,89.73,92.61,2
87,89.68,92.55,2
88,89.64,92.50,2
88,89.61,92.46,2
88,89.58,92.42,2
88,89.55,92.37,2
88,89.51,92.33,2
88,89.48,92.28,2
89,89.47,92.25,2
87,89.42,92.20,2
86,89.36,92.14,2
86,89.29,92.08,2
87,89.24,92.02,2
87,89.20,91.97,2
86,89.13,91.91,2
86,89.07,91.86,2
87,89.03,91.81,2
86,88.97,91.75,2
86,88.91,91.69,2
86,88.85,91.63,2
88,88.84,91.60,2
86,88.78,91.54,2
86,88.72,91.49,2
87,88.69,91.44,2
90,88.71,91.43,2
87,88.68,91.38,2
86,88.63,91.33,2
87,88.59,91.29,2
88,88.58,91.25,2
88,88.57,91.22,2
86,88.52,91.17,2
86,88.47,91.12,2
88,88.46,91.09,2
86,88.41,91.03,2
86,88.36,90.98,2
87,88.33,90.94,2
87,88.31,90.91,2
86,88.26,90.86,2
86,88.22,90.81,2
86,88.17,90.76,2
92,88.25,90.77,2
86,88.20,90.72,2
86,88.16,90.68,2
88,88.16,90.65,2
87,88.13,90.61,2
86,88.09,90.57,2
88,88.09,90.54,2
88,88.09,90.52,2
86,88.05,90.47,2
90,88.08,90.47,2
88,88.08,90.44,2
87,88.06,90.41,2
87,88.04,90.37,2
90,88.08,90.37,2
86,88.04,90.33,2
87,88.02,90.29,2
84,87.94,90.23,2
90,87.98,90.23,2
86,87.94,90.19,2
86,87.90,90.14,2
86,87.86,90.10,2
89,87.88,90.09,2
86,87.85,90.05,2
86,87.81,90.01,2
86,87.77,89.97,2
89,87.80,89.96,2
86,87.76,89.92,2
87,87.75,89.89,2
86,87.71,89.85,2
87,87.70,89.82,2
87,87.68,89.80,2
88,87.69,89.78,2
89,87.72,89.77,2
87,87.70,89.74,2
86,87.67,89.70,2
87,87.65,89.68,2
86,87.62,89.64,2
87,87.61,89.61,2
86,87.58,89.58,2
86,87.55,89.54,2
87,87.53,89.52,2
87,87.52,89.49,2
86,87.49,89.46,2
86,87.46,89.42,2
87,87.45,89.40,2
86,87.43,89.36,2
86,87.40,89.33,2
86,87.37,89.30,2
87,87.36,89.27,2
86,87.33,89.24,2
86,87.31,89.21,2
86,87.28,89.18,2
85,87.24,89.14,2
88,87.25,89.12,2
86,87.23,89.09,2
86,87.20,89.06,2
85,87.16,89.02,2
86,87.13,88.99,2
86,87.11,88.96,2
86,87.09,88.93,2
85,87.05,88.89,2
87,87.05,88.87,2
86,87.03,88.84,2
86,87.01,88.82,2
87,87.01,88.80,2
86,86.98,88.77,2
86,86.97,88.74,2
86,86.95,88.71,2
86,86.93,88.69,2
86,86.91,88.66,2
87,86.91,88.64,2
86,86.89,88.62,2
87,86.89,88.60,2
86,86.88,88.58,2
86,86.86,88.55,2
86,86.84,88.52,2
88,86.86,88.52,2
88,86.89,88.51,2
87,86.89,88.50,2
88,86.91,88.49,2
88,86.93,88.49,2
88,86.96,88.48,2
86,86.94,88.46,2
86,86.92,88.43,2
88,86.94,88.43,2
86,86.92,88.41,2
88,86.94,88.40,2
86,86.92,88.38,2
87,86.92,88.36,2
86,86.91,88.34,2
86,86.89,88.32,2
87,86.89,88.30,2
86,86.87,88.28,2
86,86.85,88.26,2
88,86.88,88.26,2
86,86.86,88.23,2
87,86.86,88.22,2
88,86.89,88.22,2
88,86.91,88.22,2
87,86.91,88.20,2
87,86.91,88.19,2
88,86.93,88.19,2
87,86.93,88.18,2
88,86.96,88.18,2
87,86.96,88.16,2
88,86.98,88.16,2
87,86.98,88.15,2
91,87.06,88.18,2
86,87.04,88.16,2
90,87.10,88.18,2
87,87.09,88.16,2
87,87.09,88.15,2
86,87.07,88.13,2
88,87.09,88.13,2
88,87.11,88.13,2
91,87.19,88.16,2
86,87.16,88.14,2
91,87.24,88.16,2
88,87.25,88.16,2
89,87.29,88.17,2
87,87.28,88.16,2
86,87.26,88.14,2
87,87.25,88.13,2
87,87.25,88.12,2
90,87.30,88.13,2
87,87.30,88.12,2
88,87.31,88.12,2
88,87.32,88.12,2
90,87.38,88.14,2
89,87.41,88.15,2
89,87.44,88.16,2
88,87.45,88.15,2
92,87.54,88.19,2
89,87.57,88.20,2
90,87.62,88.22,2
89,87.65,88.23,2
89,87.68,88.23,2
88,87.68,88.23,2
88,87.69,88.23,2
90,87.74,88.25,2
92,87.82,88.29,2
89,87.84,88.29,2
89,87.87,88.30,2
88,87.87,88.30,2
89,87.89,88.30,2
88,87.89,88.30,2
90,87.94,88.32,2
90,87.98,88.33,2
91,88.04,88.36,2
90,88.08,88.38,2
90,88.12,88.39,2
88,88.11,88.39,2
89,88.13,88.40,2
89,88.15,88.40,2
88,88.15,88.40,2
88,88.14,88.39,2
89,88.16,88.40,2
88,88.16,88.40,2
88,88.15,88.39,2
88,88.15,88.39,2
89,88.17,88.39,2
90,88.20,88.41,2
90,88.24,88.43,2
90,88.28,88.44,2
89,88.29,88.45,2
90,88.32,88.46,2
90,88.36,88.48,2
90,88.39,88.49,2
92,88.46,88.53,2
90,88.49,88.54,2
90,88.52,88.56,2
90,88.55,88.57,2
90,88.58,88.59,2
91,88.63,88.61,2
90,88.66,88.62,2
90,88.68,88.64,2
91,88.73,88.66,2
90,88.76,88.68,2
90,88.78,88.69,2
92,88.85,88.72,2
91,88.89,88.74,2
90,88.91,88.76,2
92,88.97,88.79,2
90,88.99,88.80,2
93,89.07,88.84,2
90,89.09,88.86,2
90,89.11,88.87,2
90,89.13,88.88,2
91,89.17,88.90,2
94,89.26,88.95,2
92,89.32,88.98,2
90,89.33,88.99,2
91,89.36,89.01,2
90,89.38,89.02,2
90,89.39,89.03,2
90,89.40,89.04,2
91,89.43,89.06,2
92,89.48,89.09,2
90,89.49,89.10,2
90,89.51,89.11,2
91,89.53,89.13,2
94,89.62,89.18,2
92,89.67,89.20,2
91,89.70,89.22,2
91,89.72,89.24,2
90,89.73,89.25,2
90,89.74,89.25,2
91,89.76,89.27,2
90,89.77,89.28,2
92,89.81,89.31,2
90,89.81,89.31,2
91,89.84,89.33,2
90,89.84,89.34,2
90,89.84,89.34,2
90,89.85,89.35,2
91,89.87,89.37,2
90,89.87,89.37,2
92,89.92,89.40,2
90,89.92,89.41,2
90,89.92,89.41,2
90,89.92,89.42,2
91,89.94,89.43,2
93,90.00,89.47,2
91,90.02,89.48,2
90,90.02,89.49,2
89,90.00,89.48,2
91,90.02,89.50,2
91,90.04,89.51,2
90,90.04,89.52,2
92,90.08,89.54,2
94,90.16,89.59,2
92,90.20,89.61,2
90,90.19,89.62,2
94,90.27,89.66,2
90,90.26,89.66,2
90,90.26,89.67,2
93,90.31,89.70,2
92,90.35,89.72,2
87,90.28,89.70,2
91,90.29,89.71,2
92,90.33,89.73,2
92,90.36,89.75,2
90,90.35,89.76,2
91,90.37,89.77,2
92,90.40,89.79,2
90,90.39,89.79,2
88,90.34,89.78,2
90,90.34,89.78,2
91,90.35,89.79,2
93,90.40,89.82,2
90,90.39,89.82,2
90,90.39,89.83,2
92,90.42,89.85,2
90,90.41,89.85,2
90,90.40,89.85,2
90,90.39,89.85,2
91,90.41,89.86,2
90,90.40,89.87,2
90,90.39,89.87,2
90,90.38,89.87,2
92,90.41,89.89,2
90,90.41,89.89,2
90,90.40,89.89,2
90,90.39,89.89,2
91,90.40,89.90,2
92,90.43,89.92,2
92,90.47,89.95,2
90,90.46,89.95,2
91,90.47,89.96,2
92,90.50,89.98,2
92,90.53,90.00,2
92,90.56,90.02,2
92,90.59,90.04,2
92,90.61,90.06,2
90,90.60,90.06,2
92,90.63,90.08,2
95,90.72,90.12,2
92,90.74,90.14,2
94,90.81,90.18,2
93,90.85,90.21,2
95,90.94,90.26,2
94,91.00,90.30,2
94,91.06,90.33,2
94,91.12,90.37,2
94,91.17,90.41,2
94,91.23,90.44,2
94,91.29,90.48,2
96,91.38,90.53,2
94,91.43,90.57,2
94,91.48,90.60,2
94,91.53,90.64,2
94,91.58,90.67,2
95,91.65,90.71,2
94,91.70,90.75,2
95,91.76,90.79,2
96,91.85,90.84,2
96,91.93,90.89,2
96,92.01,90.94,2
94,92.05,90.97,2
98,92.17,91.04,2
98,92.29,91.11,2
96,92.36,91.16,2
98,92.48,91.23,2
99,92.61,91.31,2
99,92.73,91.38,2
98,92.84,91.45,2
98,92.94,91.52,2
97,93.02,91.57,2
98,93.12,91.64,2
98,93.22,91.70,2
100,93.36,91.78,2
98,93.45,91.84,2
100,93.58,91.93,2
102,93.75,92.03,2
100,93.87,92.11,2
97,93.94,92.16,2
100,94.06,92.23,2
101,94.20,92.32,2
101,94.33,92.41,2
99,94.43,92.47,2
99,94.52,92.54,2
99,94.61,92.60,2
100,94.71,92.68,2
101,94.84,92.76,2
100,94.94,92.83,2
97,94.98,92.88,2
100,95.09,92.95,2
101,95.20,93.03,2
101,95.32,93.11,2
100,95.41,93.18,2
103,95.56,93.27,2
102,95.69,93.36,2
103,95.84,93.46,2
101,95.94,93.53,2
101,96.04,93.61,2
101,96.14,93.68,2
102,96.26,93.76,2
103,96.39,93.86,2
102,96.51,93.94,2
101,96.60,94.01,2
104,96.74,94.11,2
102,96.85,94.19,2
103,96.97,94.28,2
106,97.15,94.39,2
105,97.31,94.50,2
107,97.50,94.62,2
103,97.61,94.71,2
108,97.82,94.84,2
106,97.99,94.95,2
105,98.13,95.05,2
106,98.28,95.16,2
106,98.44,95.27,2
105,98.57,95.37,2
107,98.74,95.48,2
106,98.88,95.59,2
106,99.03,95.69,2
107,99.18,95.81,2
106,99.32,95.91,2
107,99.47,96.02,2
106,99.61,96.12,2
107,99.75,96.23,2
106,99.88,96.33,2
108,100.04,96.44,2
108,100.20,96.56,2
109,100.38,96.68,2
107,100.51,96.79,2
107,100.64,96.89,2
108,100.79,97.00,2
108,100.93,97.11,2
108,101.07,97.22,2
108,101.21,97.33,2
110,101.39,97.45,2
110,101.56,97.58,2
107,101.67,97.67,2
109,101.81,97.79,2
109,101.96,97.90,2
110,102.12,98.02,2
108,102.24,98.12,2
110,102.39,98.24,2
108,102.50,98.34,2
108,102.61,98.43,2
110,102.76,98.55,2
111,102.93,98.67,2
112,103.11,98.81,2
110,103.24,98.92,2
111,103.40,99.04,2
110,103.53,99.15,2
112,103.70,99.28,2
111,103.85,99.39,2
111,103.99,99.51,2
111,104.13,99.62,2
111,104.27,99.74,2
114,104.46,99.88,2
111,104.59,99.99,2
113,104.76,100.12,2
113,104.93,100.25,2
112,105.07,100.37,2
113,105.23,100.49,2
111,105.34,100.60,2
113,105.49,100.72,2
113,105.64,100.85,2
113,105.79,100.97,2
113,105.94,101.09,2
113,106.08,101.21,2
113,106.22,101.33,2
115,106.39,101.46,2
114,106.54,101.59,2
114,106.69,101.71,2
118,106.92,101.87,2
117,107.12,102.03,2
115,107.28,102.16,2
117,107.47,102.30,2
115,107.62,102.43,2
117,107.81,102.58,2
119,108.03,102.74,2
117,108.21,102.88,2
118,108.41,103.03,2
117,108.58,103.17,2
119,108.79,103.33,2
117,108.95,103.47,2
117,109.11,103.60,2
121,109.35,103.78,2
118,109.53,103.92,2
118,109.70,104.06,2
120,109.90,104.22,2
120,110.10,104.38,2
119,110.28,104.52,2
123,110.54,104.71,2
117,110.66,104.83,2
119,110.83,104.97,2
119,110.99,105.11,2
119,111.15,105.25,2
121,111.35,105.41,2
119,111.50,105.55,2
121,111.69,105.70,2
123,111.92,105.87,2
125,112.18,106.07,2
127,112.48,106.27,2
125,112.73,106.46,2
126,112.99,106.66,2
125,113.23,106.84,2
126,113.49,107.03,2
127,113.76,107.23,2
124,113.96,107.40,2
125,114.19,107.58,2
129,114.48,107.79,2
127,114.73,107.98,2
127,114.98,108.17,2
130,115.28,108.39,2
132,115.61,108.63,2
133,115.96,108.87,2
132,116.28,109.10,2
132,116.60,109.33,2
132,116.90,109.56,2
131,117.19,109.77,2
138,117.60,110.05,2
139,118.03,110.34,2
136,118.39,110.60,2
135,118.72,110.84,2
137,119.09,111.11,2
137,119.45,111.36,2
141,119.88,111.66,2
143,120.34,111.97,2
140,120.73,112.25,2
143,121.18,112.56,2
140,121.55,112.84,2
140,121.92,113.11,2
141,122.30,113.39,2
141,122.68,113.66,2
141,123.04,113.94,2
141,123.40,114.21,2
141,123.76,114.48,2
141,124.10,114.74,2
142,124.46,115.01,2
140,124.77,115.26,2
141,125.09,115.52,2
141,125.41,115.78,2
140,125.70,116.02,2
142,126.03,116.28,2
141,126.33,116.52,2
143,126.66,116.79,2
145,127.03,117.07,2
143,127.35,117.33,2
143,127.66,117.59,2
143,127.97,117.84,2
143,128.27,118.09,2
143,128.56,118.34,2
146,128.91,118.62,2
145,129.23,118.88,2
143,129.51,119.12,2
147,129.86,119.40,2
148,130.22,119.69,2
145,130.52,119.94,2
145,130.81,120.19,2
145,131.09,120.44,2
145,131.37,120.69,2
145,131.64,120.93,2
149,131.99,121.21,2
145,132.25,121.45,2
145,132.50,121.68,2
148,132.81,121.95,2
145,133.06,122.18,2
147,133.34,122.42,2
147,133.61,122.67,2
151,133.96,122.95,2
152,134.32,123.24,2
149,134.61,123.50,2
148,134.88,123.75,2
151,135.20,124.02,2
151,135.52,124.29,2
156,135.93,124.61,2
153,136.27,124.89,2
152,136.58,125.16,2
153,136.91,125.44,2
153,137.23,125.72,2
153,137.55,125.99,2
154,137.88,126.27,2
155,138.22,126.56,2
154,138.54,126.83,2
154,138.85,127.10,2
154,139.15,127.37,2
153,139.43,127.63,2
157,139.78,127.92,2
159,140.16,128.23,2
155,140.46,128.50,2
155,140.75,128.76,2
155,141.03,129.03,2
155,141.31,129.29,2
155,141.59,129.54,2
156,141.88,129.81,2
157,142.18,130.08,2
156,142.45,130.34,2
157,142.75,130.61,2
157,143.03,130.87,2
157,143.31,131.13,2
161,143.66,131.43,2
161,144.01,131.73,2
159,144.31,132.00,2
161,144.64,132.29,2
163,145.01,132.60,2
163,145.37,132.90,2
162,145.70,133.19,2
162,146.03,133.48,2
164,146.39,133.78,2
164,146.74,134.09,2
162,147.05,134.37,2
163,147.37,134.65,2
161,147.64,134.91,2
162,147.93,135.19,2
163,148.23,135.46,2
162,148.50,135.73,2
161,148.75,135.98,2
162,149.02,136.24,2
166,149.36,136.54,2
163,149.63,136.80,2
163,149.90,137.07,2
164,150.18,137.34,2
164,150.46,137.60,2
163,150.71,137.86,2
164,150.97,138.12,2
163,151.21,138.37,2
164,151.47,138.62,2
162,151.68,138.86,2
164,151.93,139.11,2
163,152.15,139.35,2
165,152.40,139.60,2
165,152.66,139.86,2
165,152.90,140.11,2
166,153.17,140.37,2
167,153.44,140.63,2
168,153.73,140.91,2
165,153.96,141.15,2
168,154.24,141.42,2
166,154.47,141.66,2
166,154.70,141.91,2
165,154.91,142.14,2
169,155.19,142.41,2
165,155.39,142.63,2
165,155.58,142.86,2
164,155.75,143.07,2
168,155.99,143.32,2
169,156.25,143.57,2
169,156.51,143.83,2
167,156.72,144.06,2
170,156.98,144.32,2
171,157.27,144.59,2
174,157.60,144.88,2
173,157.91,145.16,2
171,158.17,145.42,2
171,158.43,145.68,2
171,158.68,145.93,2
171,158.92,146.18,2
168,159.11,146.40,2
171,159.34,146.64,2
171,159.58,146.89,2
171,159.81,147.13,2
169,159.99,147.35,2
169,160.17,147.56,2
170,160.37,147.79,2
172,160.60,148.03,2
170,160.79,148.25,2
169,160.95,148.46,2
169,161.11,148.66,2
169,161.27,148.87,2
169,161.42,149.07,2
169,161.58,149.27,2
168,161.70,149.45,2
169,161.85,149.65,2
168,161.97,149.83,2
168,162.09,150.01,2
169,162.23,150.20,2
167,162.33,150.37,2
167,162.42,150.54,2
168,162.53,150.71,2
167,162.62,150.88,2
166,162.69,151.03,2
166,162.76,151.18,2
165,162.80,151.32,2
166,162.86,151.46,2
167,162.95,151.62,2
165,162.99,151.75,2
166,163.05,151.89,2
165,163.09,152.02,2
165,163.13,152.15,2
165,163.16,152.28,2
165,163.20,152.41,2
165,163.24,152.54,2
165,163.27,152.66,2
164,163.29,152.77,2
165,163.32,152.90,2
164,163.33,153.01,2
164,163.35,153.12,2
164,163.36,153.23,2
164,163.37,153.33,2
164,163.39,153.44,2
164,163.40,153.55,2
163,163.39,153.64,2
163,163.38,153.73,2
163,163.37,153.83,2
163,163.37,153.92,2
163,163.36,154.01,2
162,163.33,154.09,2
164,163.35,154.19,2
162,163.32,154.27,2
161,163.27,154.33,2
161,163.23,154.40,2
162,163.20,154.48,2
163,163.20,154.56,2
162,163.17,154.64,2
161,163.13,154.70,2
161,163.09,154.76,2
161,163.05,154.83,2
161,163.01,154.89,2
161,162.97,154.95,2
160,162.91,155.00,2
159,162.83,155.04,2
160,162.77,155.09,2
159,162.70,155.13,2
159,162.62,155.17,2
159,162.55,155.20,2
159,162.48,155.24,2
160,162.43,155.29,2
157,162.32,155.31,2
158,162.23,155.33,2
158,162.15,155.36,2
159,162.09,155.40,2
158,162.00,155.42,2
158,161.92,155.45,2
157,161.83,155.46,2
158,161.75,155.49,2
158,161.67,155.51,2
157,161.58,155.53,2
157,161.49,155.54,2
157,161.40,155.56,2
157,161.31,155.57,2
157,161.23,155.59,2
157,161.14,155.60,2
156,161.04,155.61,2
156,160.94,155.61,2
157,160.86,155.62,2
157,160.78,155.64,2
155,160.67,155.63,2
156,160.57,155.63,2
156,160.48,155.64,2
157,160.41,155.65,2
156,160.32,155.66,2
155,160.22,155.65,2
155,160.11,155.64,2
155,160.01,155.64,2
156,159.93,155.64,2
154,159.81,155.62,2
155,159.72,155.62,2
154,159.60,155.60,2
154,159.49,155.58,2
153,159.36,155.56,2
154,159.25,155.54,2
154,159.15,155.53,2
154,159.04,155.51,2
155,158.96,155.51,2
155,158.88,155.50,2
154,158.79,155.49,2
153,158.67,155.46,2
154,158.58,155.45,2
154,158.49,155.43,2
153,158.38,155.41,2
153,158.27,155.38,2
153,158.16,155.36,2
153,158.06,155.34,2
153,157.96,155.31,2
153,157.86,155.29,2
151,157.72,155.25,2
152,157.61,155.22,2
153,157.52,155.19,2
152,157.41,155.16,2
151,157.28,155.12,2
151,157.15,155.08,2
151,157.03,155.04,2
151,156.91,155.00,2
151,156.79,154.96,2
150,156.65,154.91,2
150,156.52,154.86,2
151,156.41,154.82,2
150,156.28,154.77,2
151,156.18,154.73,2
149,156.03,154.68,2
152,155.95,154.65,2
149,155.81,154.59,2
149,155.68,154.54,2
149,155.54,154.48,2
150,155.43,154.44,2
147,155.26,154.36,2
148,155.12,154.30,2
148,154.98,154.24,2
148,154.84,154.17,2
149,154.72,154.12,2
147,154.57,154.05,2
148,154.43,153.99,2
148,154.31,153.93,2
148,154.18,153.87,2
147,154.04,153.80,2
149,153.94,153.75,2
145,153.76,153.67,3
146,153.60,153.59,3
147,153.47,153.52,4
148,153.36,153.47,4
147,153.23,153.40,4
146,153.09,153.33,4
145,152.93,153.25,4
147,152.81,153.18,4
147,152.69,153.12,4
145,152.54,153.04,4
145,152.39,152.96,4
145,152.24,152.88,4
145,152.09,152.80,4
145,151.95,152.73,4
145,151.81,152.65,4
145,151.68,152.57,4
145,151.54,152.50,4
144,151.39,152.41,4
145,151.27,152.34,4
144,151.12,152.25,4
145,151.00,152.18,4
143,150.84,152.09,4
143,150.68,152.00,4
143,150.53,151.91,4
143,150.38,151.82,4
143,150.23,151.73,4
143,150.08,151.64,4
143,149.94,151.56,4
143,149.80,151.47,4
143,149.67,151.39,4
142,149.51,151.29,4
141,149.34,151.19,4
141,149.18,151.09,4
141,149.01,150.99,4
141,148.85,150.89,4
141,148.70,150.79,4
141,148.54,150.69,4
140,148.37,150.58,4
141,148.22,150.49,4
139,148.04,150.37,4
140,147.88,150.27,4
140,147.72,150.17,4
140,147.57,150.06,4
139,147.40,149.95,4
140,147.25,149.85,4
139,147.08,149.75,4
140,146.94,149.65,4
139,146.78,149.54,4
140,146.65,149.45,4
140,146.51,149.35,4
139,146.36,149.25,4
139,146.22,149.15,4
140,146.09,149.05,4
139,145.95,148.95,4
140,145.83,148.86,4
139,145.69,148.77,4
139,145.56,148.67,4
139,145.43,148.57,4
138,145.28,148.47,4
138,145.14,148.36,4
139,145.01,148.27,4
137,144.85,148.15,4
137,144.70,148.04,4
137,144.54,147.93,4
138,144.41,147.83,4
137,144.26,147.73,4
137,144.12,147.62,4
137,143.97,147.51,4
137,143.84,147.41,4
137,143.70,147.30,4
137,143.56,147.20,4
136,143.41,147.09,4
137,143.29,146.99,4
137,143.16,146.89,4
138,143.06,146.80,4
137,142.94,146.70,4
136,142.80,146.59,4
136,142.66,146.49,4
140,142.61,146.42,4
136,142.48,146.32,4
136,142.35,146.21,4
136,142.22,146.11,4
135,142.07,146.00,4
136,141.95,145.90,4
137,141.85,145.81,4
135,141.72,145.70,4
135,141.58,145.60,4
135,141.45,145.49,4
136,141.34,145.40,4
133,141.17,145.27,4
135,141.05,145.17,4
135,140.93,145.07,4
135,140.81,144.97,4
134,140.68,144.86,4
134,140.54,144.75,4
135,140.43,144.65,4
133,140.28,144.54,4
134,140.16,144.43,4
133,140.01,144.32,4
133,139.87,144.20,4
133,139.74,144.09,4
134,139.62,143.99,4
133,139.49,143.88,4
134,139.38,143.78,4
133,139.25,143.67,4
134,139.15,143.58,4
133,139.02,143.47,4
134,138.92,143.38,4
133,138.80,143.27,4
133,138.69,143.17,4
133,138.57,143.07,4
133,138.46,142.97,4
133,138.35,142.87,4
134,138.27,142.78,4
134,138.18,142.69,4
134,138.10,142.60,4
133,138.00,142.51,4
133,137.90,142.41,4
133,137.80,142.32,4
132,137.68,142.22,4
133,137.59,142.12,4
133,137.50,142.03,4
132,137.39,141.93,4
132,137.28,141.83,4
132,137.17,141.73,4
132,137.07,141.64,4
132,136.97,141.54,4
133,136.89,141.46,4
131,136.77,141.35,4
132,136.68,141.26,4
131,136.56,141.15,4
131,136.45,141.05,4
131,136.34,140.95,4
135,136.32,140.89,4
130,136.19,140.78,4
131,136.09,140.69,4
129,135.94,140.57,4
129,135.80,140.45,4
130,135.69,140.35,4
132,135.61,140.27,4
131,135.52,140.17,4
129,135.39,140.06,4
129,135.26,139.95,4
129,135.14,139.84,4
129,135.02,139.73,4
129,134.90,139.63,4
130,134.80,139.53,4
129,134.68,139.42,4
129,134.57,139.32,4
128,134.44,139.21,4
129,134.33,139.10,4
129,134.22,139.00,4
129,134.12,138.90,4
129,134.02,138.80,4
130,133.93,138.72,4
129,133.84,138.62,4
129,133.74,138.52,4
129,133.64,138.43,4
129,133.55,138.33,4
129,133.46,138.24,4
128,133.35,138.14,4
128,133.24,138.04,4
128,133.14,137.94,4
129,133.06,137.85,4
128,132.96,137.75,4
129,132.88,137.66,4
127,132.76,137.55,4
127,132.64,137.45,4
127,132.53,137.34,4
127,132.42,137.24,4
127,132.31,137.14,4
127,132.21,137.04,4
128,132.12,136.95,4
126,132.00,136.84,4
127,131.90,136.74,4
127,131.80,136.64,4
127,131.71,136.54,4
127,131.61,136.45,4
127,131.52,136.35,4
126,131.41,136.25,4
127,131.32,136.16,4
126,131.21,136.06,4
125,131.09,135.95,4
125,130.97,135.84,4
125,130.85,135.73,4
125,130.73,135.62,4
126,130.64,135.53,4
125,130.52,135.42,4
125,130.41,135.32,4
125,130.31,135.21,4
126,130.22,135.12,4
125,130.11,135.02,4
125,130.01,134.92,4
125,129.91,134.82,4
124,129.79,134.71,4
125,129.70,134.61,4
125,129.60,134.52,4
125,129.51,134.42,4
125,129.42,134.33,4
125,129.33,134.24,4
125,129.25,134.14,4
124,129.14,134.04,4
124,129.04,133.94,4
125,128.96,133.85,4
125,128.88,133.76,4
126,128.82,133.69,4
125,128.75,133.60,4
124,128.65,133.50,4
123,128.54,133.40,4
125,128.47,133.31,4
125,128.40,133.23,4
124,128.31,133.14,4
125,128.24,133.06,4
125,128.18,132.98,4
125,128.11,132.90,4
123,128.01,132.80,4
125,127.95,132.72,4
125,127.89,132.64,4
124,127.82,132.56,4
123,127.72,132.46,4
125,127.66,132.39,4
124,127.59,132.30,4
123,127.50,132.21,4
123,127.41,132.12,4
123,127.32,132.03,4
123,127.23,131.94,4
123,127.15,131.85,4
124,127.09,131.77,4
123,127.01,131.68,4
121,126.89,131.57,4
122,126.79,131.48,4
121,126.67,131.37,4
123,126.60,131.29,4
121,126.49,131.19,4
121,126.38,131.08,4
122,126.29,130.99,4
121,126.18,130.89,4
123,126.12,130.81,4
121,126.02,130.72,4
121,125.92,130.62,4
121,125.82,130.52,4
121,125.72,130.43,4
120,125.61,130.32,4
118,125.46,130.20,4
121,125.37,130.11,4
120,125.26,130.01,4
121,125.17,129.92,4
120,125.07,129.82,4
120,124.97,129.72,4
119,124.85,129.61,4
120,124.75,129.52,4
119,124.64,129.41,4
120,124.54,129.32,4
119,124.43,129.21,4
120,124.35,129.12,4
119,124.24,129.02,4
118,124.11,128.91,4
118,123.99,128.80,4
119,123.89,128.70,4
117,123.75,128.59,4
119,123.66,128.49,4
117,123.53,128.38,4
117,123.39,128.26,4
117,123.27,128.15,4
117,123.14,128.04,4
118,123.04,127.94,4
118,122.94,127.84,4
118,122.84,127.74,4
117,122.72,127.63,4
119,122.65,127.55,4
117,122.54,127.44,4
117,122.42,127.34,4
117,122.32,127.23,4
118,122.23,127.14,4
119,122.17,127.06,4
119,122.10,126.98,4
117,122.00,126.88,4
118,121.92,126.79,4
117,121.82,126.69,4
117,121.72,126.60,4
117,121.63,126.50,4
117,121.54,126.40,4
121,121.53,126.35,4
117,121.44,126.26,4
117,121.35,126.16,4
117,121.26,126.07,4
117,121.18,125.98,4
117,121.09,125.89,4
117,121.01,125.80,4
117,120.93,125.71,4
116,120.83,125.62,4
117,120.75,125.53,4
117,120.68,125.45,4
117,120.61,125.36,4
117,120.53,125.28,4
117,120.46,125.20,4
116,120.37,125.10,4
116,120.29,125.01,4
114,120.16,124.90,4
116,120.08,124.81,4
115,119.98,124.72,4
116,119.90,124.63,4
116,119.82,124.54,4
115,119.72,124.45,4
115,119.63,124.35,4
115,119.54,124.26,4
116,119.46,124.18,4
116,119.40,124.09,4
114,119.29,123.99,4
115,119.20,123.90,4
113,119.08,123.79,4
114,118.98,123.70,4
116,118.92,123.62,4
115,118.84,123.53,4
114,118.74,123.44,4
114,118.65,123.34,4
116,118.59,123.27,4
114,118.50,123.18,4
115,118.43,123.10,4
113,118.32,122.99,4
113,118.22,122.89,4
115,118.15,122.82,4
114,118.07,122.73,4
114,117.99,122.64,4
115,117.93,122.56,4
115,117.87,122.49,4
113,117.77,122.39,4
113,117.68,122.30,4
114,117.60,122.22,4
114,117.53,122.13,4
115,117.48,122.06,4
115,117.43,121.99,4
113,117.34,121.90,4
113,117.26,121.81,4
113,117.17,121.73,4
115,117.13,121.66,4
113,117.04,121.57,4
111,116.92,121.47,4
113,116.85,121.38,4
115,116.81,121.32,4
114,116.75,121.24,4
113,116.68,121.16,4
113,116.60,121.08,4
113,116.53,121.00,4
114,116.48,120.93,4
114,116.43,120.86,4
113,116.36,120.78,4
113,116.30,120.70,4
113,116.23,120.63,4
113,116.16,120.55,4
113,116.10,120.47,4
113,116.04,120.40,4
112,115.96,120.32,4
113,115.90,120.24,4
113,115.84,120.17,4
112,115.76,120.09,4
112,115.69,120.01,4
112,115.62,119.93,4
113,115.56,119.86,4
113,115.51,119.79,4
111,115.42,119.70,4
111,115.33,119.61,4
112,115.27,119.54,4
113,115.22,119.47,4
112,115.16,119.40,4
112,115.09,119.32,4
111,115.01,119.24,4
112,114.95,119.17,4
112,114.89,119.10,4
111,114.81,119.02,4
111,114.74,118.94,4
111,114.66,118.86,4
112,114.61,118.79,4
112,114.56,118.72,4
111,114.49,118.64,4
111,114.42,118.57,4
111,114.35,118.49,4
111,114.28,118.42,4
111,114.22,118.34,4
110,114.13,118.26,4
111,114.07,118.19,4
111,114.01,118.11,4
109,113.91,118.02,4
109,113.81,117.93,4
109,113.71,117.84,4
109,113.62,117.75,4
111,113.57,117.69,4
110,113.50,117.61,4
111,113.45,117.54,4
109,113.36,117.46,4
109,113.27,117.37,4
110,113.20,117.30,4
107,113.08,117.20,4
110,113.02,117.13,4
110,112.96,117.05,4
109,112.88,116.97,4
109,112.80,116.89,4
109,112.73,116.82,4
109,112.65,116.74,4
109,112.58,116.66,4
109,112.51,116.58,4
109,112.44,116.51,4
109,112.37,116.43,4
108,112.28,116.35,4
107,112.17,116.25,4
110,112.13,116.19,4
109,112.07,116.12,4
109,112.01,116.05,4
109,111.95,115.98,4
109,111.89,115.91,4
109,111.83,115.84,4
108,111.75,115.76,4
109,111.70,115.69,4
108,111.62,115.62,4
109,111.57,115.55,4
108,111.50,115.47,4
108,111.43,115.40,4
108,111.36,115.33,4
109,111.31,115.26,4
107,111.23,115.18,4
109,111.18,115.12,4
108,111.12,115.05,4
109,111.08,114.99,4
108,111.02,114.92,4
107,110.94,114.84,4
108,110.88,114.77,4
108,110.82,114.70,4
108,110.76,114.63,4
108,110.71,114.57,4
107,110.63,114.49,4
107,110.56,114.42,4
111,110.57,114.38,4
107,110.50,114.31,4
107,110.43,114.24,4
107,110.36,114.16,4
107,110.29,114.09,4
107,110.23,114.02,4
108,110.18,113.96,4
107,110.12,113.89,4
106,110.04,113.81,4
105,109.94,113.72,4
106,109.86,113.65,4
107,109.80,113.58,4
107,109.74,113.52,4
105,109.65,113.43,4
106,109.58,113.36,4
105,109.48,113.27,4
106,109.41,113.20,4
107,109.37,113.14,4
106,109.30,113.07,4
105,109.21,112.99,4
107,109.17,112.93,4
107,109.13,112.87,4
105,109.04,112.79,4
105,108.96,112.71,4
105,108.88,112.63,4
105,108.81,112.56,4
106,108.75,112.49,4
105,108.67,112.42,4
105,108.60,112.34,4
105,108.53,112.27,4
105,108.46,112.20,4
105,108.39,112.12,4
105,108.32,112.05,4
105,108.25,111.98,4
105,108.19,111.91,4
105,108.13,111.84,4
105,108.06,111.77,4
104,107.98,111.70,4
105,107.92,111.63,4
104,107.84,111.55,4
104,107.77,111.48,4
104,107.69,111.40,4
103,107.60,111.32,4
104,107.53,111.25,4
104,107.46,111.17,4
103,107.37,111.09,4
104,107.30,111.02,4
103,107.21,110.94,4
103,107.13,110.86,4
104,107.07,110.79,4
103,106.98,110.71,4
102,106.89,110.63,4
103,106.81,110.55,4
104,106.75,110.49,4
103,106.68,110.41,4
103,106.60,110.34,4
103,106.53,110.26,4
102,106.44,110.18,4
101,106.33,110.09,4
103,106.26,110.02,4
102,106.18,109.94,4
103,106.12,109.87,4
103,106.05,109.80,4
102,105.97,109.72,4
101,105.87,109.63,4
101,105.78,109.55,4
102,105.70,109.47,4
103,105.65,109.41,4
103,105.59,109.34,4
102,105.52,109.27,4
103,105.47,109.21,4
102,105.40,109.14,4
103,105.35,109.07,4
103,105.31,109.01,4
101,105.22,108.93,4
101,105.14,108.85,4
103,105.09,108.80,4
101,105.01,108.72,4
101,104.93,108.64,4
101,104.85,108.56,4
101,104.78,108.49,4
102,104.72,108.42,4
101,104.65,108.35,4
101,104.57,108.28,4
101,104.50,108.20,4
100,104.41,108.12,4
101,104.34,108.05,4
101,104.28,107.98,4
101,104.21,107.91,4
101,104.15,107.84,4
101,104.08,107.77,4
102,104.04,107.71,4
101,103.98,107.65,4
102,103.94,107.59,4
103,103.92,107.54,4
101,103.86,107.48,4
101,103.81,107.41,4
101,103.75,107.35,4
102,103.72,107.30,4
101,103.66,107.23,4
101,103.61,107.17,4
101,103.56,107.11,4
101,103.50,107.05,4
99,103.41,106.97,4
100,103.35,106.90,4
100,103.28,106.83,4
99,103.19,106.75,4
99,103.11,106.67,4
100,103.05,106.61,4
100,102.99,106.54,4
99,102.91,106.47,4
99,102.83,106.39,4
98,102.73,106.31,4
100,102.68,106.24,4
100,102.62,106.18,4
99,102.55,106.11,4
99,102.48,106.04,4
100,102.43,105.98,4
99,102.36,105.91,4
100,102.32,105.85,4
99,102.25,105.78,4
100,102.20,105.72,4
99,102.14,105.66,4
99,102.08,105.59,4
100,102.04,105.53,4
100,101.99,105.48,4
99,101.93,105.41,4
99,101.88,105.35,4
100,101.84,105.30,4
98,101.76,105.22,4
98,101.69,105.15,4
100,101.65,105.10,4
100,101.62,105.05,4
100,101.59,105.00,4
101,101.58,104.96,4
100,101.54,104.91,4
99,101.49,104.85,4
99,101.44,104.79,4
98,101.37,104.72,4
101,101.37,104.69,4
99,101.32,104.63,4
100,101.29,104.58,4
99,101.25,104.53,4
98,101.18,104.46,4
98,101.12,104.40,4
100,101.10,104.35,4
98,101.03,104.29,4
99,100.99,104.24,4
98,100.93,104.17,4
99,100.90,104.12,4
98,100.84,104.06,4
98,100.78,104.00,4
98,100.73,103.94,4
98,100.67,103.88,4
98,100.62,103.82,4
98,100.56,103.76,4
98,100.51,103.71,4
95,100.40,103.62,4
98,100.36,103.56,4
97,100.29,103.50,4
98,100.24,103.44,4
97,100.18,103.38,4
98,100.13,103.32,4
97,100.07,103.26,4
96,99.99,103.19,4
97,99.93,103.13,4
97,99.87,103.07,4
97,99.81,103.00,4
97,99.76,102.94,4
97,99.70,102.88,4
97,99.65,102.83,4
97,99.60,102.77,4
97,99.54,102.71,4
96,99.47,102.64,4
97,99.42,102.59,4
97,99.37,102.53,4
95,99.29,102.46,4
96,99.22,102.39,4
96,99.16,102.33,4
96,99.09,102.26,4
98,99.07,102.22,4
96,99.01,102.16,4
96,98.95,102.10,4
96,98.89,102.04,4
97,98.85,101.99,4
96,98.80,101.93,4
96,98.74,101.87,4
96,98.69,101.81,4
95,98.61,101.74,4
95,98.54,101.67,4
96,98.49,101.62,4
95,98.42,101.55,4
95,98.35,101.48,4
96,98.30,101.43,4
96,98.26,101.38,4
97,98.23,101.33,4
97,98.21,101.29,4
95,98.14,101.23,4
95,98.08,101.16,4
97,98.06,101.12,4
97,98.04,101.08,4
96,98.00,101.03,4
96,97.96,100.98,4
95,97.90,100.92,4
96,97.86,100.87,4
96,97.82,100.82,4
95,97.77,100.76,4
95,97.71,100.71,4
96,97.68,100.66,4
96,97.64,100.61,4
96,97.61,100.57,4
97,97.60,100.53,4
96,97.57,100.48,4
96,97.54,100.44,4
98,97.54,100.42,4
95,97.49,100.36,4
95,97.44,100.31,4
96,97.41,100.26,4
97,97.41,100.23,4
96,97.38,100.19,4
97,97.37,100.16,4
95,97.32,100.11,4
95,97.28,100.06,4
98,97.29,100.03,4
96,97.27,99.99,4
96,97.24,99.95,4
96,97.22,99.91,4
96,97.19,99.88,4
95,97.15,99.83,4
96,97.12,99.79,4
96,97.10,99.75,4
96,97.08,99.71,4
95,97.04,99.67,4
96,97.02,99.63,4
96,97.00,99.59,4
97,97.00,99.57,4
96,96.98,99.53,4
96,96.96,99.50,4
96,96.94,99.46,4
95,96.90,99.42,4
98,96.92,99.40,4
97,96.92,99.38,4
97,96.92,99.35,4
96,96.91,99.32,4
96,96.89,99.29,4
97,96.89,99.27,4
98,96.91,99.25,4
96,96.89,99.22,4
98,96.92,99.21,4
99,96.96,99.21,4
96,96.94,99.17,4
95,96.90,99.13,4
96,96.88,99.10,4
95,96.84,99.06,4
95,96.81,99.02,4
96,96.79,98.99,4
97,96.80,98.97,4
96,96.78,98.94,4
95,96.74,98.90,4
96,96.73,98.87,4
97,96.73,98.85,4
98,96.76,98.84,4
95,96.72,98.81,4
96,96.71,98.78,4
96,96.70,98.75,4
95,96.66,98.71,4
96,96.65,98.68,4
96,96.64,98.66,4
96,96.62,98.63,4
95,96.59,98.59,4
95,96.56,98.56,4
96,96.55,98.53,4
97,96.56,98.52,4
95,96.53,98.48,4
96,96.52,98.46,4
94,96.47,98.41,4
95,96.44,98.38,4
95,96.41,98.35,4
96,96.40,98.32,4
97,96.41,98.31,4
96,96.40,98.29,4
96,96.39,98.26,4
94,96.35,98.22,4
94,96.30,98.18,4
96,96.29,98.16,4
95,96.27,98.12,4
94,96.22,98.08,4
94,96.18,98.04,4
95,96.15,98.01,4
95,96.13,97.98,4
96,96.13,97.96,4
94,96.09,97.92,4
95,96.06,97.89,4
95,96.04,97.86,4
95,96.02,97.84,4
94,95.98,97.80,4
96,95.98,97.78,4
94,95.94,97.74,4
94,95.90,97.70,4
96,95.91,97.69,4
95,95.89,97.66,4
95,95.87,97.63,4
94,95.83,97.60,4
94,95.80,97.56,4
96,95.80,97.55,4
96,95.80,97.53,4
96,95.81,97.52,4
96,95.81,97.50,4
96,95.82,97.48,4
95,95.80,97.46,4
96,95.80,97.45,4
96,95.81,97.43,4
96,95.81,97.42,4
95,95.79,97.39,4
96,95.80,97.38,4
94,95.76,97.34,4
95,95.75,97.32,4
98,95.79,97.33,4
96,95.80,97.31,4
96,95.80,97.30,4
95,95.78,97.28,4
96,95.79,97.27,4
96,95.79,97.25,4
96,95.80,97.24,4
96,95.80,97.23,4
98,95.85,97.24,4
97,95.87,97.23,4
95,95.85,97.21,4
95,95.83,97.19,4
96,95.84,97.18,4
96,95.84,97.17,4
96,95.84,97.15,4
95,95.83,97.13,4
96,95.83,97.12,4
96,95.83,97.11,4
96,95.84,97.10,4
97,95.86,97.10,4
97,95.88,97.10,4
102,96.01,97.15,4
97,96.03,97.14,4
97,96.05,97.14,4
96,96.04,97.13,4
96,96.04,97.12,4
96,96.04,97.11,4
98,96.08,97.12,4
97,96.10,97.12,4
97,96.12,97.12,4
96,96.12,97.10,4
96,96.11,97.09,4
96,96.11,97.08,4
96,96.11,97.07,4
96,96.11,97.06,4
96,96.10,97.05,4
96,96.10,97.04,4
101,96.20,97.08,4
95,96.18,97.06,4
98,96.21,97.07,4
96,96.21,97.06,4
98,96.24,97.07,4
97,96.26,97.07,4
96,96.25,97.06,4
98,96.29,97.06,4
96,96.28,97.05,4
95,96.26,97.03,4
98,96.29,97.04,4
100,96.37,97.07,4
97,96.38,97.07,4
98,96.41,97.08,4
98,96.44,97.09,4
96,96.43,97.08,4
99,96.49,97.10,4
96,96.48,97.09,4
98,96.51,97.10,4
99,96.56,97.12,4
98,96.59,97.12,4
98,96.61,97.13,4
96,96.60,97.12,4
97,96.61,97.12,4
102,96.72,97.17,4
98,96.74,97.18,4
98,96.77,97.19,4
97,96.77,97.18,4
95,96.74,97.16,4
97,96.74,97.16,4
96,96.73,97.15,4
96,96.71,97.14,4
95,96.68,97.12,4
96,96.67,97.11,4
96,96.65,97.09,4
96,96.64,97.08,4
95,96.61,97.06,4
96,96.59,97.05,4
98,96.62,97.06,4
98,96.65,97.07,4
97,96.66,97.07,4
98,96.68,97.08,4
96,96.67,97.07,4
98,96.70,97.08,4
97,96.70,97.08,4
98,96.73,97.09,4
95,96.69,97.07,4
96,96.68,97.05,4
97,96.69,97.05,4
96,96.67,97.04,4
98,96.70,97.05,4
95,96.67,97.03,4
97,96.67,97.03,4
96,96.66,97.02,4
98,96.69,97.03,4
96,96.67,97.02,4
98,96.70,97.03,4
96,96.68,97.02,4
97,96.69,97.02,4
96,96.68,97.01,4
97,96.68,97.01,4
98,96.71,97.02,4
97,96.72,97.02,4
96,96.70,97.01,4
95,96.67,96.99,4
98,96.69,97.00,4
97,96.70,97.00,4
96,96.69,96.99,4
95,96.65,96.97,4
100,96.72,97.00,4
97,96.72,97.00,4
96,96.71,96.99,4
97,96.72,96.99,4
97,96.72,96.99,4
95,96.69,96.97,4
96,96.67,96.96,4
98,96.70,96.97,4
97,96.71,96.97,4
99,96.75,96.99,4
97,96.76,96.99,4
96,96.74,96.98,4
97,96.75,96.98,4
98,96.77,96.99,4
97,96.78,96.99,4
97,96.78,96.99,4
99,96.83,97.01,4
98,96.85,97.02,4
101,96.93,97.06,4
98,96.95,97.07,4
98,96.97,97.08,4
98,96.99,97.09,4
100,97.05,97.12,4
100,97.11,97.15,4
98,97.13,97.16,4
100,97.19,97.19,4
99,97.23,97.20,4
98,97.24,97.21,4
98,97.26,97.22,4
98,97.27,97.23,4
98,97.29,97.23,4
97,97.28,97.23,4
98,97.29,97.24,4
98,97.31,97.25,4
98,97.32,97.26,4
100,97.38,97.28,4
98,97.39,97.29,4
100,97.44,97.32,4
101,97.51,97.35,4
99,97.54,97.37,4
99,97.57,97.39,4
99,97.60,97.40,4
98,97.61,97.41,4
99,97.63,97.42,4
98,97.64,97.43,4
98,97.65,97.44,4
98,97.66,97.44,4
99,97.68,97.46,4
97,97.67,97.45,4
100,97.72,97.48,4
101,97.78,97.51,4
101,97.85,97.55,4
100,97.89,97.57,4
100,97.93,97.60,4
100,97.97,97.62,4
100,98.01,97.64,4
100,98.05,97.67,4
99,98.07,97.68,4
100,98.11,97.70,4
99,98.13,97.72,4
100,98.17,97.74,4
99,98.18,97.75,4
100,98.22,97.78,4
99,98.23,97.79,4
101,98.29,97.82,4
102,98.36,97.86,4
101,98.42,97.89,4
101,98.47,97.92,4
102,98.54,97.97,4
101,98.59,98.00,4
101,98.64,98.03,4
102,98.70,98.07,4
101,98.75,98.09,4
103,98.83,98.14,4
103,98.92,98.19,4
103,99.00,98.24,4
103,99.08,98.29,4
102,99.14,98.33,4
101,99.18,98.35,4
102,99.23,98.39,4
104,99.33,98.44,4
103,99.40,98.49,4
104,99.49,98.55,4
103,99.56,98.59,4
103,99.63,98.63,4
101,99.66,98.66,4
104,99.75,98.71,4
103,99.81,98.75,4
103,99.87,98.80,4
103,99.94,98.84,4
101,99.96,98.86,4
105,100.06,98.92,4
105,100.16,98.98,4
102,100.19,99.01,4
105,100.29,99.07,4
106,100.41,99.14,4
107,100.54,99.22,4
104,100.61,99.27,4
104,100.67,99.32,4
106,100.78,99.38,4
106,100.89,99.45,4
110,101.07,99.55,4
105,101.15,99.61,4
108,101.28,99.69,4
105,101.36,99.75,4
106,101.45,99.81,4
109,101.60,99.90,4
106,101.69,99.96,4
108,101.82,100.04,4
108,101.94,100.12,4
109,102.08,100.21,4
108,102.20,100.29,4
109,102.33,100.37,4
110,102.49,100.47,4
111,102.66,100.58,4
109,102.79,100.66,4
111,102.95,100.76,4
111,103.11,100.87,4
111,103.27,100.97,4
109,103.38,101.05,4
109,103.50,101.13,4
109,103.61,101.21,4
110,103.73,101.29,4
109,103.84,101.37,4
111,103.98,101.47,4
112,104.14,101.57,4
111,104.28,101.67,4
111,104.41,101.76,4
111,104.55,101.85,4
111,104.67,101.94,4
112,104.82,102.04,4
112,104.96,102.14,4
112,105.11,102.24,4
112,105.24,102.34,4
113,105.40,102.45,4
113,105.55,102.55,4
112,105.68,102.65,4
111,105.79,102.73,4
115,105.97,102.85,4
113,106.11,102.95,4
112,106.23,103.04,4
113,106.36,103.14,4
112,106.48,103.23,4
113,106.61,103.33,4
111,106.70,103.41,4
112,106.80,103.49,4
111,106.89,103.57,4
114,107.03,103.67,4
113,107.15,103.77,4
113,107.26,103.86,4
113,107.38,103.95,4
113,107.49,104.04,4
115,107.64,104.15,4
117,107.83,104.28,4
115,107.97,104.39,4
115,108.11,104.49,4
116,108.27,104.61,4
118,108.46,104.74,4
117,108.64,104.86,4
119,108.84,105.00,4
117,109.01,105.12,4
119,109.21,105.26,4
120,109.42,105.41,4
117,109.57,105.53,4
119,109.76,105.66,4
120,109.97,105.80,4
121,110.19,105.96,4
120,110.38,106.10,4
121,110.60,106.25,4
120,110.78,106.38,4
120,110.97,106.52,4
121,111.17,106.66,4
121,111.37,106.81,4
122,111.58,106.96,4
121,111.77,107.10,4
123,111.99,107.26,4
122,112.19,107.41,4
125,112.45,107.58,4
124,112.68,107.75,4
123,112.89,107.90,4
125,113.13,108.07,4
124,113.34,108.23,4
124,113.56,108.39,4
123,113.75,108.53,4
125,113.97,108.70,4
124,114.17,108.85,4
123,114.35,108.99,4
127,114.60,109.17,4
125,114.81,109.33,4
124,114.99,109.48,4
125,115.19,109.63,4
125,115.39,109.79,4
126,115.60,109.95,4
123,115.75,110.08,4
125,115.94,110.23,4
125,116.12,110.38,4
127,116.33,110.54,4
127,116.55,110.71,4
127,116.76,110.87,4
127,116.96,111.03,4
127,117.16,111.19,4
126,117.34,111.34,4
130,117.59,111.53,4
133,117.90,111.74,4
131,118.16,111.93,4
130,118.40,112.11,4
129,118.61,112.28,4
130,118.84,112.46,4
131,119.08,112.65,4
131,119.32,112.83,4
133,119.59,113.03,4
131,119.82,113.21,4
131,120.05,113.39,4
130,120.24,113.55,4
133,120.50,113.75,4
131,120.71,113.92,4
134,120.98,114.12,4
132,121.20,114.30,4
133,121.43,114.49,4
133,121.66,114.67,4
135,121.93,114.88,4
135,122.19,115.08,4
135,122.45,115.28,4
133,122.66,115.45,4
133,122.87,115.63,4
133,123.07,115.80,4
135,123.31,115.99,4
133,123.50,116.16,4
133,123.69,116.33,4
133,123.88,116.50,4
135,124.10,116.68,4
136,124.34,116.88,4
137,124.59,117.08,4
135,124.80,117.26,4
136,125.02,117.45,4
137,125.26,117.64,4
137,125.50,117.84,4
137,125.73,118.03,4
137,125.95,118.22,4
137,126.17,118.40,4
137,126.39,118.59,4
138,126.62,118.78,4
138,126.85,118.98,4
135,127.01,119.14,4
137,127.21,119.32,4
137,127.41,119.49,4
136,127.58,119.66,4
138,127.79,119.84,4
137,127.97,120.01,4
140,128.21,120.21,4
138,128.41,120.39,4
141,128.66,120.60,4
145,128.99,120.84,4
145,129.31,121.08,4
143,129.58,121.30,4
143,129.85,121.52,4
142,130.09,121.72,4
143,130.35,121.94,4
144,130.62,122.16,4
143,130.87,122.36,4
143,131.11,122.57,4
143,131.35,122.78,4
144,131.61,122.99,4
143,131.83,123.19,4
142,132.04,123.38,4
141,132.22,123.55,4
143,132.43,123.75,4
145,132.68,123.96,4
145,132.93,124.17,4
147,133.21,124.40,4
144,133.43,124.59,4
146,133.68,124.81,4
148,133.96,125.04,4
149,134.26,125.28,4
148,134.54,125.51,4
147,134.79,125.72,4
148,135.05,125.94,4
147,135.29,126.15,4
147,135.53,126.36,4
152,135.86,126.62,4
151,136.16,126.86,4
150,136.44,127.09,4
149,136.69,127.31,4
149,136.93,127.53,4
149,137.17,127.75,4
150,137.43,127.97,4
154,137.76,128.23,4
157,138.15,128.52,4
154,138.46,128.77,4
153,138.75,129.01,4
154,139.06,129.26,4
156,139.40,129.53,4
155,139.71,129.79,4
155,140.02,130.04,4
155,140.32,130.29,4
156,140.63,130.54,4
159,141.00,130.83,4
160,141.38,131.12,4
159,141.73,131.40,4
159,142.07,131.68,4
163,142.49,131.99,4
167,142.98,132.34,4
167,143.46,132.69,4
163,143.85,132.99,4
165,144.28,133.31,4
167,144.73,133.65,4
167,145.18,133.98,4
167,145.61,134.31,4
168,146.06,134.65,4
169,146.52,134.99,4
173,147.05,135.37,4
169,147.49,135.71,4
170,147.94,136.05,4
169,148.36,136.38,4
170,148.79,136.71,4
172,149.26,137.07,4
171,149.69,137.41,4
171,150.12,137.74,4
169,150.50,138.06,4
169,150.87,138.36,4
169,151.23,138.67,4
169,151.58,138.97,4
169,151.93,139.27,4
171,152.31,139.59,4
172,152.71,139.92,4
171,153.07,140.23,4
172,153.45,140.54,4
173,153.84,140.87,4
170,154.17,141.16,4
173,154.54,141.48,4
176,154.97,141.82,4
176,155.39,142.17,4
173,155.74,142.47,4
181,156.25,142.86,4
179,156.70,143.22,4
181,157.19,143.60,4
177,157.59,143.93,4
177,157.98,144.26,4
177,158.36,144.59,4
180,158.79,144.94,4
179,159.19,145.29,4
180,159.61,145.63,4
177,159.96,145.95,4
179,160.34,146.28,4
179,160.71,146.60,4
179,161.08,146.93,4
180,161.46,147.26,4
181,161.85,147.60,4
180,162.21,147.92,4
179,162.54,148.23,4
181,162.91,148.56,4
178,163.22,148.85,4
177,163.49,149.13,4
180,163.82,149.44,4
180,164.15,149.75,4
178,164.42,150.03,4
178,164.69,150.31,4
179,164.98,150.60,4
179,165.26,150.88,4
179,165.54,151.16,4
178,165.78,151.43,4
178,166.03,151.70,4
177,166.25,151.95,4
177,166.46,152.20,4
179,166.71,152.47,4
178,166.94,152.72,4
179,167.18,152.99,4
179,167.42,153.25,4
177,167.61,153.48,4
179,167.84,153.74,4
177,168.02,153.97,4
179,168.24,154.22,4
178,168.43,154.46,4
178,168.63,154.70,4
179,168.83,154.94,4
179,169.04,155.18,4
177,169.20,155.40,4
178,169.37,155.62,4
177,169.52,155.84,4
177,169.67,156.05,4
177,169.82,156.26,4
180,170.02,156.50,4
177,170.16,156.70,4
175,170.26,156.88,4
175,170.36,157.06,4
176,170.47,157.25,4
175,170.56,157.43,4
176,170.67,157.62,4
175,170.75,157.79,4
175,170.84,157.96,4
176,170.94,158.14,4
175,171.02,158.31,4
175,171.10,158.48,4
175,171.18,158.64,4
175,171.26,158.81,4
175,171.33,158.97,4
175,171.41,159.13,4
175,171.48,159.29,4
174,171.53,159.44,4
175,171.60,159.59,4
174,171.65,159.74,4
173,171.67,159.87,4
174,171.72,160.01,4
175,171.78,160.16,4
173,171.81,160.29,4
176,171.89,160.45,4
173,171.92,160.57,4
173,171.94,160.69,4
173,171.96,160.82,4
173,171.98,160.94,4
174,172.02,161.07,4
173,172.04,161.19,4
173,172.06,161.31,4
172,172.06,161.41,4
172,172.06,161.52,4
171,172.03,161.62,4
172,172.03,161.72,4
171,172.01,161.81,4
171,171.99,161.90,4
171,171.97,161.99,4
171,171.95,162.08,4
170,171.91,162.16,4
170,171.88,162.24,4
171,171.86,162.33,4
171,171.84,162.42,4
172,171.84,162.51,4
170,171.81,162.59,4
171,171.79,162.67,4
171,171.78,162.75,4
169,171.72,162.82,4
169,171.67,162.88,4
169,171.61,162.94,4
169,171.56,163.00,4
169,171.51,163.06,4
169,171.46,163.12,4
170,171.43,163.19,4
168,171.36,163.24,4
170,171.33,163.30,4
169,171.29,163.36,4
169,171.24,163.42,4
168,171.18,163.46,4
168,171.11,163.51,4
169,171.07,163.56,4
168,171.01,163.61,4
168,170.95,163.65,4
168,170.89,163.70,4
168,170.83,163.74,4
167,170.76,163.77,4
167,170.68,163.80,4
167,170.61,163.84,4
167,170.54,163.87,4
166,170.44,163.89,4
167,170.38,163.92,4
166,170.29,163.94,4
167,170.22,163.97,4
165,170.12,163.98,4
165,170.02,163.99,4
166,169.94,164.01,4
166,169.86,164.03,4
165,169.76,164.04,4
165,169.66,164.05,4
164,169.55,164.05,4
165,169.46,164.06,4
165,169.37,164.07,4
163,169.24,164.06,4
164,169.14,164.06,4
164,169.04,164.06,4
164,168.94,164.06,4
163,168.82,164.05,4
164,168.72,164.05,4
163,168.61,164.04,4
163,168.49,164.03,4
161,168.34,164.00,4
163,168.24,163.99,4
163,168.13,163.98,4
162,168.01,163.96,4
163,167.91,163.95,4
161,167.77,163.92,4
161,167.64,163.89,4
161,167.50,163.86,4
162,167.39,163.84,4
161,167.26,163.81,4
161,167.14,163.78,4
161,167.02,163.76,4
161,166.90,163.73,4
160,166.76,163.69,4
161,166.64,163.66,4
159,166.49,163.62,4
160,166.36,163.58,4
160,166.23,163.55,4
159,166.09,163.50,4
159,165.95,163.45,4
159,165.81,163.41,4
159,165.67,163.37,4
158,165.52,163.31,4
159,165.39,163.27,4
157,165.22,163.21,4
158,165.08,163.15,4
159,164.95,163.11,4
157,164.80,163.05,4
157,164.64,162.99,4
157,164.49,162.93,4
157,164.34,162.87,4
157,164.19,162.81,4
156,164.03,162.75,4
156,163.87,162.68,4
155,163.69,162.60,4
157,163.55,162.55,4
156,163.40,162.48,4
156,163.26,162.41,4
156,163.11,162.35,4
154,162.93,162.27,4
156,162.79,162.20,4
155,162.63,162.13,4
155,162.48,162.06,4
154,162.31,161.98,4
155,162.17,161.91,4
153,161.98,161.82,4
155,161.84,161.75,5
153,161.67,161.67,5
153,161.49,161.58,6
153,161.32,161.49,6
153,161.16,161.41,6
153,160.99,161.32,6
153,160.83,161.24,6
153,160.68,161.16,6
153,160.52,161.08,6
153,160.37,161.00,6
152,160.21,160.91,6
153,160.06,160.83,6
155,159.96,160.77,6
152,159.80,160.68,6
151,159.62,160.58,6
151,159.45,160.49,6
151,159.28,160.39,6
153,159.16,160.32,6
151,158.99,160.23,6
151,158.83,160.13,6
150,158.66,160.03,6
151,158.50,159.94,6
150,158.33,159.84,6
150,158.17,159.74,6
149,157.98,159.64,6
149,157.80,159.53,6
149,157.63,159.43,6
150,157.48,159.33,6
147,157.27,159.21,6
149,157.10,159.11,6
149,156.94,159.01,6
149,156.78,158.91,6
149,156.62,158.81,6
149,156.47,158.71,6
149,156.32,158.61,6
150,156.20,158.52,6
148,156.03,158.42,6
148,155.87,158.32,6
149,155.73,158.22,6
148,155.58,158.12,6
148,155.43,158.02,6
148,155.28,157.92,6
148,155.13,157.82,6
148,154.99,157.72,6
147,154.83,157.61,6
147,154.67,157.51,6
147,154.52,157.40,6
147,154.37,157.30,6
147,154.22,157.20,6
146,154.06,157.08,6
147,153.92,156.98,6
146,153.76,156.87,6
145,153.58,156.75,6
146,153.43,156.65,6
145,153.26,156.53,6
146,153.12,156.43,6
145,152.96,156.31,6
145,152.80,156.20,6
145,152.64,156.09,6
145,152.49,155.97,6
143,152.30,155.85,6
145,152.15,155.74,6
144,151.99,155.62,6
144,151.83,155.50,6
145,151.69,155.40,6
143,151.52,155.27,6
143,151.35,155.15,6
143,151.18,155.03,6
143,151.02,154.91,6
143,150.86,154.79,6
143,150.70,154.67,6
142,150.53,154.55,6
143,150.38,154.43,6
141,150.19,154.30,6
142,150.03,154.17,6
142,149.86,154.05,6
143,149.73,153.94,6
141,149.55,153.81,6
142,149.40,153.69,6
141,149.23,153.57,6
141,149.07,153.44,6
141,148.91,153.32,6
141,148.75,153.19,6
140,148.57,153.06,6
141,148.42,152.94,6
141,148.27,152.82,6
141,148.13,152.70,6
141,147.99,152.59,6
140,147.83,152.46,6
140,147.67,152.34,6
140,147.52,152.21,6
139,147.35,152.08,6
140,147.20,151.96,6
139,147.04,151.83,6
139,146.87,151.70,6
139,146.72,151.57,6
139,146.56,151.45,6
138,146.39,151.31,6
139,146.24,151.19,6
138,146.08,151.06,6
138,145.92,150.93,6
138,145.76,150.80,6
138,145.60,150.67,6
137,145.43,150.53,6
137,145.26,150.40,6
137,145.10,150.27,6
138,144.96,150.14,6
137,144.80,150.01,6
138,144.66,149.89,6
136,144.49,149.75,6
137,144.34,149.62,6
137,144.19,149.50,6
137,144.05,149.37,6
139,143.95,149.27,6
136,143.79,149.14,6
137,143.65,149.02,6
136,143.50,148.89,6
136,143.35,148.76,6
136,143.20,148.63,6
137,143.08,148.51,6
137,142.96,148.40,6
135,142.80,148.26,6
133,142.60,148.11,6
135,142.45,147.98,6
134,142.28,147.84,6
135,142.13,147.71,6
134,141.97,147.57,6
134,141.81,147.44,6
135,141.68,147.31,6
134,141.52,147.18,6
135,141.39,147.06,6
133,141.22,146.92,6
133,141.06,146.78,6
133,140.90,146.64,6
133,140.74,146.51,6
133,140.59,146.37,6
133,140.43,146.24,6
133,140.29,146.10,6
133,140.14,145.97,6
133,140.00,145.84,6
133,139.86,145.72,6
133,139.72,145.59,6
133,139.59,145.46,6
132,139.43,145.33,6
133,139.31,145.20,6
132,139.16,145.07,6
131,139.00,144.93,6
132,138.86,144.80,6
133,138.74,144.68,6
133,138.62,144.57,6
132,138.49,144.44,6
133,138.38,144.33,6
131,138.23,144.19,6
131,138.09,144.06,6
131,137.95,143.93,6
130,137.79,143.79,6
131,137.65,143.66,6
132,137.54,143.55,6
131,137.41,143.42,6
132,137.30,143.31,6
131,137.17,143.18,6
134,137.11,143.09,6
131,136.99,142.97,6
130,136.85,142.84,6
130,136.71,142.71,6
130,136.58,142.59,6
130,136.45,142.46,6
130,136.32,142.34,6
130,136.19,142.21,6
129,136.05,142.08,6
129,135.91,141.95,6
132,135.83,141.85,6
130,135.71,141.73,6
129,135.58,141.60,6
129,135.45,141.48,6
131,135.36,141.37,6
130,135.25,141.26,6
128,135.11,141.13,6
129,134.98,141.01,6
130,134.88,140.90,6
130,134.79,140.79,6
129,134.67,140.67,6
129,134.56,140.55,6
129,134.45,140.44,6
129,134.34,140.32,6
129,134.23,140.21,6
129,134.13,140.10,6
128,134.00,139.98,6
128,133.88,139.86,6
128,133.77,139.74,6
128,133.65,139.62,6
127,133.52,139.49,6
127,133.39,139.37,6
127,133.26,139.25,6
127,133.13,139.12,6
128,133.03,139.01,6
127,132.91,138.89,6
127,132.79,138.77,6
128,132.70,138.67,6
128,132.60,138.56,6
127,132.49,138.44,6
127,132.38,138.33,6
127,132.27,138.22,6
127,132.17,138.10,6
127,132.06,137.99,6
127,131.96,137.88,6
127,131.86,137.77,6
126,131.75,137.66,6
127,131.65,137.55,6
127,131.56,137.44,6
126,131.45,137.33,6
126,131.34,137.22,6
126,131.23,137.10,6
127,131.15,137.00,6
126,131.04,136.89,6
125,130.92,136.77,6
126,130.82,136.67,6
125,130.71,136.55,6
125,130.59,136.43,6
125,130.48,136.32,6
125,130.37,136.21,6
125,130.26,136.09,6
125,130.16,135.98,6
124,130.04,135.86,6
125,129.94,135.75,6
123,129.80,135.63,6
125,129.70,135.52,6
124,129.59,135.41,6
124,129.48,135.29,6
124,129.37,135.18,6
123,129.24,135.06,6
124,129.13,134.95,6
125,129.05,134.85,6
123,128.93,134.73,6
125,128.85,134.63,6
123,128.73,134.52,6
124,128.64,134.41,6
123,128.53,134.30,6
124,128.44,134.19,6
123,128.33,134.08,6
123,128.22,133.97,6
123,128.12,133.86,6
123,128.01,133.75,6
123,127.91,133.64,6
123,127.82,133.54,6
123,127.72,133.43,6
122,127.61,133.32,6
123,127.51,133.21,6
122,127.40,133.10,6
121,127.27,132.98,6
122,127.17,132.87,6
123,127.09,132.77,6
121,126.96,132.66,6
121,126.84,132.54,6
121,126.73,132.42,6
121,126.61,132.31,6
121,126.50,132.20,6
121,126.39,132.08,6
121,126.28,131.97,6
121,126.18,131.86,6
121,126.07,131.76,6
121,125.97,131.65,6
120,125.85,131.53,6
120,125.74,131.42,6
121,125.64,131.31,6
120,125.53,131.20,6
121,125.44,131.10,6
120,125.33,130.99,6
119,125.20,130.87,6
120,125.10,130.76,6
121,125.02,130.66,6
119,124.90,130.54,6
120,124.80,130.44,6
117,124.64,130.30,6
120,124.55,130.20,6
119,124.44,130.09,6
118,124.31,129.97,6
118,124.18,129.85,6
119,124.08,129.74,6
119,123.98,129.63,6
119,123.88,129.53,6
119,123.78,129.42,6
119,123.69,129.32,6
120,123.61,129.22,6
120,123.54,129.13,6
119,123.45,129.03,6
119,123.36,128.93,6
121,123.31,128.85,6
119,123.23,128.75,6
119,123.14,128.65,6
117,123.02,128.54,6
119,122.94,128.44,6
118,122.84,128.34,6
119,122.76,128.24,6
119,122.69,128.15,6
119,122.61,128.06,6
119,122.54,127.97,6
119,122.47,127.88,6
120,122.42,127.80,6
119,122.35,127.71,6
119,122.29,127.63,6
120,122.24,127.55,6
119,122.18,127.46,6
118,122.09,127.37,6
117,121.99,127.27,6
117,121.89,127.16,6
118,121.81,127.07,6
117,121.72,126.97,6
118,121.64,126.88,6
117,121.55,126.78,6
121,121.54,126.72,6
117,121.45,126.63,6
117,121.36,126.53,6
117,121.27,126.44,6
117,121.19,126.34,6
117,121.10,126.25,6
118,121.04,126.17,6
117,120.96,126.07,6
117,120.88,125.98,6
117,120.80,125.89,6
116,120.71,125.79,6
117,120.63,125.71,6
117,120.56,125.62,6
116,120.47,125.52,6
116,120.38,125.43,6
117,120.31,125.34,6
116,120.23,125.25,6
116,120.14,125.16,6
116,120.06,125.07,6
117,120.00,124.99,6
116,119.92,124.90,6
115,119.82,124.80,6
117,119.76,124.72,6
115,119.67,124.62,6
115,119.57,124.53,6
115,119.48,124.43,6
115,119.39,124.34,6
113,119.26,124.22,6
113,119.14,124.11,6
113,119.02,124.00,6
114,118.92,123.90,6
113,118.80,123.79,6
114,118.70,123.69,6
113,118.59,123.59,6
113,118.48,123.48,6
113,118.37,123.37,6
113,118.26,123.27,6
111,118.11,123.15,6
113,118.01,123.05,6
113,117.91,122.95,6
113,117.81,122.85,6
111,117.68,122.73,6
112,117.56,122.62,6
113,117.47,122.52,6
113,117.38,122.43,6
111,117.26,122.32,6
112,117.15,122.21,6
113,117.07,122.12,6
112,116.97,122.02,6
112,116.87,121.92,6
112,116.77,121.82,6
111,116.65,121.71,6
111,116.54,121.60,6
111,116.43,121.50,6
111,116.32,121.39,6
111,116.21,121.29,6
111,116.11,121.19,6
112,116.03,121.09,6
112,115.95,121.00,6
111,115.85,120.90,6
111,115.75,120.80,6
111,115.66,120.71,6
111,115.56,120.61,6
111,115.47,120.51,6
112,115.40,120.43,6
111,115.31,120.33,6
111,115.23,120.24,6
111,115.14,120.15,6
110,115.04,120.05,6
110,114.94,119.95,6
110,114.84,119.85,6
111,114.76,119.76,6
110,114.67,119.66,6
109,114.56,119.55,6
110,114.46,119.46,6
109,114.36,119.35,6
109,114.25,119.25,6
110,114.16,119.16,6
110,114.08,119.07,6
111,114.02,118.99,6
111,113.96,118.91,6
110,113.88,118.82,6
109,113.78,118.72,6
109,113.69,118.62,6
109,113.59,118.53,6
110,113.52,118.44,6
110,113.45,118.36,6
109,113.36,118.26,6
109,113.27,118.17,6
109,113.19,118.08,6
109,113.10,117.99,6
109,113.02,117.90,6
109,112.94,117.81,6
109,112.86,117.72,6
109,112.79,117.63,6
107,112.67,117.53,6
110,112.62,117.45,6
108,112.52,117.36,6
108,112.43,117.26,6
109,112.37,117.18,6
108,112.28,117.09,6
108,112.19,117.00,6
108,112.11,116.91,6
108,112.03,116.82,6
108,111.95,116.73,6
109,111.89,116.65,6
107,111.79,116.56,6
109,111.73,116.48,6
108,111.66,116.40,6
108,111.59,116.31,6
105,111.45,116.20,6
109,111.40,116.13,6
108,111.34,116.05,6
109,111.29,115.98,6
108,111.22,115.90,6
107,111.14,115.81,6
105,111.02,115.70,6
107,110.94,115.61,6
108,110.88,115.54,6
107,110.80,115.45,6
108,110.74,115.38,6
107,110.67,115.29,6
108,110.62,115.22,6
106,110.52,115.13,6
107,110.45,115.05,6
107,110.38,114.97,6
107,110.32,114.89,6
107,110.25,114.81,6
108,110.21,114.74,6
106,110.12,114.65,6
107,110.06,114.57,6
105,109.96,114.48,6
107,109.90,114.40,6
105,109.80,114.31,6
106,109.72,114.23,6
106,109.65,114.14,6
106,109.58,114.06,6
107,109.53,113.99,6
105,109.43,113.90,6
105,109.35,113.81,6
105,109.26,113.73,6
107,109.21,113.66,6
106,109.15,113.58,6
105,109.07,113.50,6
105,108.99,113.41,6
107,108.95,113.35,6
105,108.87,113.26,6
105,108.79,113.18,6
105,108.71,113.10,6
108,108.70,113.05,6
106,108.65,112.98,6
105,108.57,112.90,6
105,108.50,112.82,6
105,108.43,112.74,6
105,108.36,112.66,6
105,108.30,112.59,6
105,108.23,112.51,6
105,108.16,112.44,6
105,108.10,112.36,6
104,108.02,112.28,6
105,107.96,112.20,6
105,107.90,112.13,6
105,107.84,112.06,6
103,107.74,111.97,6
105,107.69,111.90,6
104,107.62,111.82,6
103,107.52,111.73,6
104,107.45,111.66,6
103,107.36,111.57,6
104,107.30,111.49,6
103,107.21,111.41,6
104,107.15,111.34,6
103,107.06,111.25,6
103,106.98,111.17,6
103,106.90,111.09,6
104,106.85,111.02,6
103,106.77,110.94,6
103,106.69,110.86,6
103,106.62,110.78,6
103,106.55,110.70,6
101,106.44,110.60,6
102,106.35,110.52,6
103,106.28,110.44,6
103,106.21,110.37,6
103,106.15,110.29,6
103,106.09,110.22,6
103,106.03,110.15,6
103,105.96,110.08,6
103,105.91,110.01,6
103,105.85,109.94,6
102,105.77,109.86,6
102,105.70,109.78,6
103,105.64,109.71,6
103,105.59,109.64,6
103,105.54,109.58,6
102,105.47,109.50,6
102,105.40,109.43,6
101,105.31,109.34,6
102,105.24,109.27,6
101,105.16,109.19,6
101,105.07,109.10,6
101,104.99,109.02,6
101,104.91,108.94,6
101,104.83,108.86,6
102,104.78,108.80,6
102,104.72,108.73,6
102,104.67,108.66,6
101,104.59,108.58,6
101,104.52,108.51,6
101,104.45,108.43,6
101,104.38,108.36,6
102,104.34,108.29,6
101,104.27,108.22,6
101,104.20,108.15,6
101,104.14,108.08,6
102,104.10,108.02,6
101,104.03,107.95,6
101,103.97,107.88,6
101,103.91,107.81,6
101,103.86,107.74,6
101,103.80,107.67,6
101,103.74,107.61,6
100,103.67,107.53,6
101,103.61,107.47,6
101,103.56,107.40,6
99,103.47,107.32,6
99,103.38,107.23,6
99,103.29,107.15,6
99,103.21,107.07,6
98,103.10,106.98,6
98,103.00,106.89,6
100,102.94,106.82,6
99,102.86,106.74,6
99,102.79,106.66,6
98,102.69,106.58,6
98,102.60,106.49,6
98,102.50,106.41,6
98,102.41,106.32,6
98,102.33,106.24,6
98,102.24,106.16,6
98,102.15,106.08,6
100,102.11,106.02,6
98,102.03,105.94,6
97,101.93,105.85,6
98,101.85,105.77,6
96,101.73,105.67,6
98,101.66,105.59,6
98,101.59,105.52,6
99,101.53,105.45,6
97,101.44,105.37,6
100,101.41,105.31,6
98,101.35,105.24,6
97,101.26,105.16,6
97,101.17,105.08,6
98,101.11,105.01,6
96,101.01,104.92,6
96,100.91,104.83,6
100,100.89,104.78,6
97,100.81,104.70,6
97,100.74,104.62,6
97,100.66,104.55,6
95,100.55,104.45,6
96,100.46,104.37,6
98,100.41,104.30,6
98,100.36,104.24,6
96,100.27,104.16,6
96,100.19,104.08,6
96,100.10,104.00,6
97,100.04,103.93,6
98,100.00,103.87,6
97,99.94,103.80,6
98,99.90,103.74,6
98,99.86,103.68,6
97,99.81,103.62,6
96,99.73,103.54,6
96,99.66,103.46,6
97,99.60,103.40,6
96,99.53,103.33,6
97,99.48,103.26,6
97,99.43,103.20,6
98,99.40,103.15,6
97,99.35,103.09,6
97,99.31,103.03,6
97,99.26,102.97,6
95,99.18,102.89,6
97,99.13,102.83,6
96,99.07,102.76,6
97,99.03,102.70,6
96,98.97,102.63,6
96,98.91,102.57,6
95,98.83,102.49,6
96,98.77,102.43,6
96,98.72,102.36,6
96,98.66,102.30,6
97,98.63,102.25,6
95,98.56,102.17,6
95,98.49,102.10,6
97,98.46,102.05,6
95,98.39,101.98,6
95,98.32,101.91,6
95,98.25,101.84,6
95,98.19,101.77,6
95,98.12,101.71,6
95,98.06,101.64,6
95,98.00,101.57,6
96,97.96,101.52,6
94,97.88,101.44,6
95,97.82,101.38,6
93,97.73,101.29,6
96,97.69,101.24,6
95,97.64,101.18,6
95,97.59,101.12,6
95,97.53,101.05,6
94,97.46,100.98,6
93,97.37,100.90,6
93,97.29,100.82,6
93,97.20,100.75,6
93,97.12,100.67,6
95,97.07,100.61,6
94,97.01,100.55,6
93,96.93,100.47,6
93,96.85,100.40,6
93,96.78,100.32,6
93,96.70,100.25,6
93,96.63,100.18,6
92,96.54,100.09,6
93,96.46,100.02,6
93,96.40,99.95,6
93,96.33,99.88,6
93,96.26,99.82,6
91,96.16,99.73,6
94,96.11,99.67,6
92,96.03,99.59,6
92,95.95,99.52,6
92,95.87,99.44,6
92,95.79,99.37,6
92,95.72,99.29,6
91,95.62,99.21,6
91,95.53,99.13,6
93,95.48,99.07,6
92,95.41,99.00,6
91,95.32,98.92,6
91,95.24,98.84,6
93,95.19,98.78,6
92,95.13,98.71,6
91,95.04,98.63,6
91,94.96,98.56,6
93,94.92,98.50,6
91,94.85,98.43,6
90,94.75,98.34,6
91,94.67,98.27,6
92,94.62,98.21,6
90,94.53,98.13,6
92,94.48,98.06,6
90,94.39,97.98,6
92,94.34,97.92,6
92,94.29,97.86,6
90,94.21,97.79,6
92,94.16,97.73,6
92,94.12,97.67,6
91,94.06,97.60,6
92,94.02,97.55,6
91,93.96,97.48,6
92,93.92,97.43,6
91,93.86,97.36,6
90,93.78,97.29,6
90,93.71,97.22,6
91,93.65,97.15,6
92,93.62,97.10,6
92,93.59,97.05,6
92,93.55,97.00,6
91,93.50,96.94,6
90,93.43,96.87,6
90,93.36,96.80,6
94,93.38,96.78,6
91,93.33,96.72,6
90,93.26,96.65,6
90,93.20,96.58,6
92,93.17,96.54,6
90,93.11,96.47,6
90,93.05,96.41,6
92,93.03,96.36,6
95,93.07,96.35,6
90,93.01,96.29,6
90,92.95,96.22,6
92,92.93,96.18,6
92,92.91,96.14,6
91,92.87,96.09,6
90,92.81,96.03,6
90,92.76,95.97,6
91,92.72,95.92,6
91,92.69,95.87,6
90,92.63,95.81,6
92,92.62,95.77,6
91,92.59,95.72,6
92,92.58,95.69,6
90,92.52,95.63,6
90,92.47,95.57,6
92,92.46,95.54,6
92,92.46,95.50,6
90,92.41,95.45,6
91,92.38,95.40,6
91,92.35,95.36,6
90,92.30,95.31,6
90,92.26,95.25,6
90,92.21,95.20,6
91,92.19,95.16,6
91,92.16,95.12,6
92,92.16,95.08,6
90,92.12,95.03,6
91,92.10,94.99,6
90,92.05,94.94,6
89,91.99,94.88,6
90,91.95,94.84,6
90,91.91,94.79,6
90,91.88,94.74,6
90,91.84,94.69,6
90,91.80,94.64,6
91,91.79,94.61,6
90,91.75,94.56,6
90,91.71,94.52,6
89,91.66,94.46,6
90,91.63,94.42,6
90,91.59,94.37,6
90,91.56,94.33,6
90,91.53,94.29,6
89,91.48,94.23,6
92,91.49,94.21,6
90,91.46,94.17,6
90,91.43,94.13,6
91,91.42,94.10,6
92,91.43,94.07,6
89,91.39,94.02,6
88,91.32,93.96,6
89,91.27,93.91,6
89,91.23,93.86,6
92,91.24,93.85,6
90,91.22,93.81,6
90,91.19,93.77,6
91,91.19,93.74,6
90,91.17,93.70,6
90,91.14,93.67,6
90,91.12,93.63,6
92,91.14,93.61,6
89,91.09,93.57,6
90,91.07,93.53,6
88,91.01,93.48,6
89,90.97,93.43,6
89,90.93,93.39,6
88,90.87,93.33,6
89,90.84,93.29,6
90,90.82,93.26,6
90,90.80,93.23,6
89,90.77,93.18,6
89,90.73,93.14,6
92,90.76,93.13,6
90,90.74,93.10,6
90,90.73,93.07,6
89,90.69,93.03,6
90,90.68,93.00,6
89,90.64,92.96,6
88,90.59,92.91,6
90,90.58,92.88,6
90,90.57,92.85,6
88,90.52,92.80,6
90,90.51,92.77,6
90,90.50,92.75,6
88,90.45,92.70,6
88,90.40,92.65,6
88,90.35,92.60,6
88,90.30,92.56,6
88,90.26,92.51,6
88,90.21,92.47,6
89,90.19,92.43,6
88,90.14,92.39,6
88,90.10,92.34,6
88,90.06,92.30,6
88,90.02,92.26,6
89,90.00,92.23,6
88,89.96,92.18,6
88,89.92,92.14,6
88,89.88,92.10,6
88,89.84,92.06,6
88,89.81,92.02,6
88,89.77,91.98,6
89,89.75,91.95,6
89,89.74,91.92,6
88,89.70,91.88,6
88,89.67,91.84,6
90,89.68,91.82,6
88,89.64,91.78,6
87,89.59,91.74,6
88,89.56,91.70,6
88,89.53,91.66,6
88,89.50,91.63,6
88,89.47,91.59,6
86,89.40,91.53,6
92,89.45,91.54,6
87,89.40,91.49,6
86,89.33,91.44,6
86,89.27,91.38,6
88,89.24,91.35,6
87,89.20,91.31,6
86,89.13,91.25,6
86,89.07,91.20,6
85,88.99,91.14,6
87,88.95,91.10,6
86,88.89,91.05,6
85,88.81,90.99,6
88,88.79,90.96,6
88,88.78,90.93,6
90,88.80,90.92,6
86,88.75,90.87,6
84,88.65,90.80,6
87,88.62,90.76,6
88,88.61,90.73,6
86,88.55,90.69,6
86,88.50,90.64,6
86,88.45,90.59,6
86,88.40,90.55,6
86,88.36,90.50,6
86,88.31,90.46,6
87,88.28,90.42,6
86,88.24,90.38,6
86,88.19,90.33,6
85,88.13,90.28,6
86,88.09,90.24,6
85,88.02,90.19,6
87,88.00,90.15,6
86,87.96,90.11,6
86,87.92,90.07,6
85,87.87,90.02,6
86,87.83,89.98,6
86,87.79,89.94,6
86,87.76,89.90,6
85,87.70,89.85,6
85,87.65,89.80,6
86,87.61,89.77,6
87,87.60,89.74,6
87,87.59,89.71,6
86,87.56,89.67,6
86,87.53,89.64,6
86,87.50,89.60,6
89,87.53,89.59,6
86,87.50,89.56,6
86,87.47,89.52,6
86,87.44,89.49,6
86,87.41,89.45,6
86,87.38,89.42,6
86,87.35,89.38,6
86,87.33,89.35,6
86,87.30,89.32,6
86,87.27,89.28,6
86,87.25,89.25,6
86,87.22,89.22,6
87,87.22,89.20,6
86,87.19,89.16,6
86,87.17,89.13,6
86,87.15,89.10,6
87,87.14,89.08,6
86,87.12,89.05,6
86,87.10,89.02,6
86,87.08,88.99,6
86,87.05,88.96,6
86,87.03,88.93,6
86,87.01,88.90,6
87,87.01,88.88,6
85,86.97,88.84,6
86,86.95,88.81,6
84,86.89,88.77,6
85,86.86,88.73,6
85,86.82,88.69,6
86,86.80,88.66,6
84,86.75,88.62,6
85,86.71,88.58,6
85,86.68,88.54,6
86,86.66,88.52,6
86,86.65,88.49,6
85,86.62,88.46,6
86,86.61,88.43,6
84,86.55,88.39,6
84,86.50,88.35,6
84,86.45,88.30,6
85,86.42,88.27,6
84,86.37,88.23,6
86,86.37,88.20,6
84,86.32,88.16,6
84,86.27,88.12,6
84,86.23,88.08,6
84,86.18,88.04,6
85,86.16,88.01,6
84,86.12,87.97,6
84,86.07,87.93,6
86,86.07,87.91,6
84,86.03,87.87,6
84,85.99,87.83,6
83,85.93,87.78,6
84,85.89,87.75,6
85,85.87,87.72,6
86,85.88,87.70,6
84,85.84,87.66,6
84,85.80,87.63,6
85,85.79,87.60,6
86,85.79,87.59,6
86,85.79,87.57,6
84,85.76,87.53,6
84,85.72,87.50,6
85,85.71,87.47,6
85,85.70,87.45,6
84,85.66,87.41,6
85,85.65,87.39,6
86,85.66,87.38,6
86,85.66,87.36,6
84,85.63,87.33,6
86,85.64,87.32,6
84,85.60,87.28,6
85,85.59,87.26,6
84,85.56,87.23,6
84,85.53,87.19,6
84,85.50,87.16,6
83,85.45,87.12,6
85,85.44,87.10,6
86,85.45,87.09,6
86,85.46,87.08,6
84,85.43,87.05,6
85,85.42,87.03,6
85,85.41,87.01,6
85,85.41,86.99,6
84,85.38,86.96,6
84,85.35,86.93,6
85,85.34,86.91,6
86,85.36,86.90,6
85,85.35,86.88,6
85,85.34,86.86,6
85,85.34,86.84,6
85,85.33,86.82,6
85,85.32,86.81,6
86,85.34,86.80,6
85,85.33,86.78,6
86,85.34,86.77,6
84,85.32,86.74,6
86,85.33,86.74,6
87,85.36,86.74,6
85,85.36,86.72,6
85,85.35,86.70,6
86,85.36,86.70,6
85,85.35,86.68,6
86,85.37,86.67,6
86,85.38,86.67,6
86,85.39,86.66,6
86,85.40,86.65,6
85,85.40,86.64,6
85,85.39,86.62,6
86,85.40,86.61,6
85,85.39,86.60,6
85,85.38,86.58,6
86,85.40,86.58,6
84,85.37,86.55,6
85,85.36,86.54,6
85,85.35,86.52,6
84,85.33,86.49,6
84,85.30,86.47,6
85,85.29,86.46,6
84,85.27,86.43,6
86,85.28,86.43,6
86,85.30,86.42,6
84,85.27,86.40,6
86,85.29,86.39,6
86,85.30,86.39,6
86,85.31,86.39,6
85,85.31,86.37,6
90,85.40,86.41,6
86,85.41,86.40,6
86,85.43,86.40,6
86,85.44,86.40,6
86,85.45,86.39,6
86,85.46,86.39,6
86,85.47,86.38,6
86,85.48,86.38,6
86,85.49,86.38,6
86,85.50,86.37,6
86,85.51,86.37,6
85,85.50,86.36,6
88,85.55,86.37,6
86,85.56,86.37,6
86,85.57,86.36,6
86,85.58,86.36,6
86,85.59,86.36,6
86,85.59,86.35,6
87,85.62,86.36,6
90,85.71,86.40,6
87,85.74,86.40,6
88,85.78,86.42,6
86,85.79,86.41,6
87,85.81,86.42,6
86,85.81,86.42,6
90,85.90,86.45,6
86,85.90,86.45,6
87,85.92,86.45,6
86,85.92,86.45,6
88,85.96,86.46,6
86,85.97,86.46,6
87,85.99,86.46,6
88,86.03,86.48,6
88,86.07,86.50,6
87,86.08,86.50,6
88,86.12,86.52,6
86,86.12,86.51,6
88,86.16,86.53,6
86,86.15,86.52,6
87,86.17,86.52,6
88,86.21,86.54,6
88,86.24,86.55,6
87,86.26,86.56,6
87,86.27,86.56,6
88,86.31,86.58,6
86,86.30,86.57,6
86,86.30,86.57,6
87,86.31,86.57,6
87,86.32,86.57,6
86,86.32,86.57,6
86,86.31,86.56,6
88,86.35,86.58,6
87,86.36,86.58,6
88,86.39,86.60,6
88,86.42,86.61,6
90,86.49,86.64,6
92,86.60,86.70,6
90,86.67,86.73,6
87,86.68,86.73,6
88,86.71,86.75,6
89,86.75,86.77,6
88,86.78,86.78,6
88,86.80,86.79,6
88,86.83,86.80,6
88,86.85,86.82,6
88,86.87,86.83,6
88,86.89,86.84,6
88,86.92,86.85,6
88,86.94,86.86,6
88,86.96,86.87,6
88,86.98,86.89,6
89,87.02,86.91,6
88,87.04,86.92,6
89,87.08,86.94,6
88,87.10,86.95,6
89,87.14,86.97,6
88,87.15,86.98,6
88,87.17,86.99,6
88,87.19,87.00,6
89,87.22,87.02,6
89,87.26,87.04,6
88,87.27,87.05,6
88,87.29,87.06,6
89,87.32,87.08,6
90,87.38,87.11,6
89,87.41,87.13,6
88,87.42,87.14,6
91,87.49,87.17,6
90,87.54,87.20,6
88,87.55,87.21,6
88,87.56,87.22,6
90,87.61,87.25,6
89,87.64,87.26,6
89,87.66,87.28,6
90,87.71,87.31,6
89,87.74,87.33,6
89,87.76,87.34,6
88,87.77,87.35,6
90,87.81,87.38,6
90,87.85,87.40,6
91,87.92,87.44,6
90,87.96,87.46,6
91,88.02,87.50,6
89,88.04,87.51,6
90,88.08,87.54,6
90,88.12,87.56,6
90,88.16,87.59,6
89,88.17,87.60,6
91,88.23,87.64,6
90,88.26,87.66,6
90,88.30,87.68,6
90,88.33,87.71,6
90,88.37,87.73,6
90,88.40,87.75,6
92,88.47,87.79,6
92,88.54,87.84,6
90,88.57,87.86,6
92,88.64,87.90,6
92,88.71,87.94,6
92,88.77,87.98,6
91,88.82,88.01,6
92,88.88,88.05,6
92,88.94,88.09,6
91,88.98,88.12,6
92,89.04,88.16,6
96,89.18,88.24,6
92,89.24,88.27,6
93,89.31,88.32,6
92,89.37,88.36,6
94,89.46,88.41,6
92,89.51,88.45,6
92,89.56,88.49,6
92,89.61,88.52,6
92,89.66,88.56,6
90,89.67,88.57,6
92,89.71,88.60,6
93,89.78,88.65,6
92,89.82,88.68,6
92,89.87,88.72,6
92,89.91,88.75,6
94,89.99,88.80,6
94,90.07,88.85,6
94,90.15,88.90,6
96,90.27,88.98,6
96,90.38,89.05,6
95,90.47,89.10,6
95,90.56,89.16,6
98,90.71,89.25,6
99,90.88,89.35,6
96,90.98,89.42,6
97,91.10,89.49,6
98,91.24,89.58,6
100,91.41,89.68,6
96,91.51,89.74,6
97,91.62,89.82,6
97,91.72,89.89,6
97,91.83,89.96,6
98,91.95,90.04,6
97,92.05,90.11,6
98,92.17,90.19,6
97,92.27,90.26,6
98,92.38,90.33,6
98,92.50,90.41,6
98,92.61,90.49,6
97,92.69,90.55,6
100,92.84,90.65,6
99,92.96,90.73,6
98,93.06,90.80,6
99,93.18,90.88,6
100,93.32,90.98,6
101,93.47,91.08,6
102,93.64,91.19,6
101,93.79,91.28,6
102,93.95,91.39,6
102,94.12,91.50,6
102,94.27,91.60,6
102,94.43,91.71,6
99,94.52,91.78,6
102,94.67,91.88,6
100,94.78,91.96,6
101,94.90,92.05,6
101,95.02,92.14,6
101,95.14,92.23,6
101,95.26,92.32,6
102,95.39,92.42,6
101,95.51,92.50,6
99,95.58,92.57,6
105,95.76,92.69,6
104,95.93,92.80,6
103,96.07,92.91,6
101,96.17,92.99,6
103,96.31,93.09,6
102,96.42,93.18,6
101,96.51,93.25,6
101,96.60,93.33,6
105,96.77,93.45,6
105,96.93,93.56,6
107,97.13,93.70,6
105,97.29,93.81,6
105,97.45,93.92,6
105,97.60,94.03,6
109,97.83,94.18,6
111,98.09,94.35,6
111,98.35,94.52,6
110,98.58,94.67,6
111,98.83,94.84,6
111,99.07,95.00,6
111,99.31,95.16,6
109,99.50,95.30,6
110,99.71,95.44,6
109,99.90,95.58,6
109,100.08,95.71,6
109,100.26,95.85,6
110,100.45,95.99,6
111,100.67,96.14,6
112,100.89,96.30,6
111,101.09,96.44,6
112,101.31,96.60,6
112,101.53,96.75,6
112,101.74,96.91,6
112,101.94,97.06,6
112,102.14,97.21,6
114,102.38,97.37,6
115,102.63,97.55,6
114,102.86,97.71,6
113,103.06,97.87,6
114,103.28,98.03,6
113,103.48,98.18,6
112,103.65,98.32,6
112,103.81,98.45,6
113,104.00,98.60,6
115,104.22,98.76,6
114,104.41,98.92,6
118,104.68,99.11,6
114,104.87,99.25,6
116,105.09,99.42,6
118,105.35,99.61,6
119,105.62,99.80,6
118,105.87,99.98,6
117,106.09,100.15,6
117,106.31,100.32,6
116,106.51,100.48,6
118,106.74,100.65,6
120,107.00,100.85,6
118,107.22,101.02,6
120,107.48,101.21,6
119,107.71,101.39,6
123,108.01,101.60,6
124,108.33,101.83,6
123,108.63,102.04,6
121,108.87,102.23,6
123,109.16,102.44,6
123,109.43,102.64,6
123,109.70,102.85,6
126,110.03,103.08,6
123,110.29,103.28,6
123,110.54,103.47,6
123,110.79,103.67,6
124,111.06,103.87,6
125,111.34,104.08,6
124,111.59,104.28,6
126,111.88,104.50,6
125,112.14,104.70,6
123,112.36,104.89,6
127,112.65,105.11,6
125,112.90,105.31,6
125,113.14,105.50,6
125,113.38,105.70,6
125,113.61,105.89,6
125,113.84,106.08,6
124,114.04,106.26,6
127,114.30,106.47,6
127,114.55,106.68,6
125,114.76,106.86,6
127,115.01,107.06,6
129,115.29,107.28,6
127,115.52,107.48,6
128,115.77,107.68,6
127,116.00,107.88,6
126,116.20,108.06,6
127,116.41,108.25,6
128,116.64,108.44,6
127,116.85,108.63,6
128,117.07,108.82,6
127,117.27,109.00,6
128,117.49,109.19,6
127,117.68,109.37,6
127,117.86,109.55,6
129,118.09,109.74,6
128,118.28,109.93,6
127,118.46,110.10,6
127,118.63,110.27,6
129,118.84,110.45,6
128,119.02,110.63,6
130,119.24,110.82,6
129,119.43,111.00,6
129,119.63,111.18,6
131,119.85,111.38,6
129,120.04,111.56,6
129,120.22,111.73,6
133,120.47,111.95,6
135,120.76,112.18,6
132,120.99,112.37,6
132,121.21,112.57,6
136,121.50,112.80,6
138,121.83,113.06,6
135,122.10,113.28,6
135,122.35,113.49,6
135,122.61,113.71,6
134,122.84,113.91,6
137,123.12,114.14,6
137,123.40,114.37,6
135,123.63,114.58,6
137,123.90,114.80,6
140,124.22,115.05,6
137,124.47,115.27,6
139,124.76,115.51,6
139,125.05,115.74,6
139,125.33,115.98,6
137,125.56,116.19,6
141,125.87,116.44,6
139,126.13,116.66,6
141,126.43,116.90,6
143,126.76,117.17,6
142,127.07,117.41,6
141,127.34,117.65,6
144,127.68,117.91,6
141,127.94,118.14,6
141,128.21,118.37,6
141,128.46,118.60,6
141,128.71,118.82,6
141,128.96,119.05,6
142,129.22,119.27,6
139,129.41,119.47,6
142,129.67,119.70,6
141,129.89,119.91,6
145,130.19,120.16,6
143,130.45,120.39,6
144,130.72,120.63,6
143,130.97,120.85,6
144,131.23,121.08,6
143,131.46,121.30,6
143,131.69,121.52,6
145,131.96,121.75,6
143,132.18,121.96,6
145,132.44,122.19,6
149,132.77,122.46,6
147,133.05,122.71,6
147,133.33,122.95,6
146,133.59,123.18,6
148,133.87,123.43,6
150,134.20,123.70,6
149,134.49,123.95,6
148,134.76,124.19,6
149,135.05,124.44,6
151,135.37,124.70,6
149,135.64,124.95,6
151,135.95,125.21,6
149,136.21,125.44,6
149,136.46,125.68,6
149,136.71,125.91,6
149,136.96,126.14,6
149,137.20,126.37,6
151,137.48,126.62,6
151,137.75,126.86,6
151,138.01,127.10,6
153,138.31,127.36,6
150,138.55,127.59,6
151,138.79,127.82,6
149,139.00,128.04,6
151,139.24,128.26,6
153,139.51,128.51,6
153,139.78,128.76,6
151,140.01,128.98,6
151,140.23,129.20,6
151,140.44,129.42,6
153,140.69,129.65,6
152,140.92,129.88,6
151,141.12,130.09,6
150,141.30,130.29,6
153,141.53,130.51,6
152,141.74,130.73,6
152,141.95,130.94,6
153,142.17,131.16,6
151,142.35,131.36,6
153,142.56,131.58,6
154,142.79,131.80,6
153,142.99,132.01,6
153,143.19,132.22,6
153,143.39,132.43,6
153,143.58,132.64,6
152,143.75,132.83,6
153,143.93,133.03,6
152,144.10,133.22,6
153,144.27,133.42,6
152,144.43,133.61,6
152,144.58,133.79,6
153,144.75,133.98,6
153,144.91,134.17,6
153,145.07,134.36,6
151,145.19,134.53,6
153,145.35,134.71,6
151,145.46,134.87,6
153,145.61,135.06,6
151,145.72,135.21,6
151,145.83,135.37,6
150,145.91,135.52,6
151,146.01,135.67,6
150,146.09,135.82,6
149,146.15,135.95,6
150,146.23,136.09,6
149,146.28,136.22,6
149,146.34,136.35,6
150,146.41,136.48,6
149,146.46,136.61,6
150,146.53,136.74,6
148,146.56,136.85,6
147,146.57,136.96,6
149,146.62,137.08,6
145,146.59,137.16,6
149,146.63,137.27,6
148,146.66,137.38,6
148,146.69,137.49,6
148,146.72,137.59,6
148,146.74,137.70,6
147,146.75,137.79,6
147,146.75,137.88,6
147,146.76,137.97,6
147,146.76,138.06,6
147,146.77,138.15,6
147,146.77,138.24,6
146,146.76,138.32,6
147,146.76,138.41,6
145,146.72,138.47,6
145,146.69,138.54,6
145,146.66,138.60,6
145,146.62,138.67,6
146,146.61,138.74,6
145,146.58,138.80,6
145,146.55,138.86,6
145,146.52,138.92,6
145,146.49,138.99,6
145,146.46,139.05,6
145,146.43,139.11,6
144,146.38,139.15,6
143,146.31,139.19,6
143,146.24,139.23,6
145,146.22,139.29,6
143,146.16,139.33,6
143,146.09,139.36,6
141,145.99,139.38,6
143,145.93,139.41,6
143,145.87,139.45,6
142,145.79,139.48,6
142,145.72,139.50,6
142,145.64,139.53,6
143,145.59,139.56,6
142,145.52,139.59,6
141,145.43,139.60,6
141,145.34,139.61,6
143,145.29,139.65,6
141,145.21,139.66,6
141,145.12,139.67,6
141,145.04,139.69,6
143,145.00,139.72,6
141,144.92,139.73,6
141,144.84,139.75,6
141,144.77,139.76,6
140,144.67,139.76,6
139,144.56,139.75,6
139,144.45,139.75,6
141,144.38,139.76,6
140,144.29,139.76,6
140,144.20,139.76,6
139,144.10,139.76,6
141,144.04,139.77,6
140,143.96,139.77,6
140,143.88,139.77,6
139,143.78,139.76,6
139,143.68,139.76,6
139,143.59,139.75,6
140,143.52,139.75,6
139,143.43,139.74,6
139,143.34,139.74,6
140,143.27,139.74,6
140,143.21,139.74,6
139,143.12,139.74,6
138,143.02,139.72,6
138,142.92,139.70,6
137,142.80,139.67,6
137,142.69,139.65,6
137,142.57,139.62,6
138,142.48,139.60,6
138,142.39,139.59,6
138,142.30,139.57,6
137,142.20,139.55,6
137,142.09,139.52,6
137,141.99,139.50,6
137,141.89,139.47,6
137,141.79,139.45,6
136,141.68,139.41,6
137,141.58,139.39,6
136,141.47,139.35,6
136,141.36,139.32,6
136,141.26,139.29,6
136,141.15,139.25,6
135,141.03,139.21,6
137,140.95,139.19,6
135,140.83,139.15,6
135,140.71,139.11,6
135,140.60,139.07,6
135,140.49,139.02,6
135,140.38,138.98,6
135,140.27,138.94,6
135,140.16,138.90,6
134,140.04,138.86,6
134,139.92,138.81,6
134,139.80,138.76,6
134,139.68,138.71,6
133,139.55,138.65,6
133,139.42,138.60,6
133,139.29,138.54,6
133,139.17,138.49,6
132,139.02,138.42,6
134,138.92,138.38,6
133,138.80,138.32,6
133,138.69,138.27,6
132,138.55,138.21,6
133,138.44,138.16,6
131,138.29,138.08,6
132,138.17,138.02,6
132,138.04,137.96,7
131,137.90,137.89,7
131,137.77,137.82,8
132,137.65,137.77,8
131,137.52,137.70,8
131,137.39,137.63,8
131,137.26,137.57,8
130,137.11,137.49,8
130,136.97,137.41,8
131,136.85,137.35,8
132,136.76,137.30,8
130,136.62,137.22,8
131,136.51,137.16,8
130,136.38,137.09,8
129,136.23,137.01,8
129,136.09,136.93,8
129,135.94,136.85,8
129,135.80,136.77,8
128,135.65,136.68,8
129,135.52,136.61,8
129,135.39,136.53,8
131,135.30,136.48,8
128,135.15,136.39,8
129,135.03,136.32,8
129,134.91,136.24,8
129,134.79,136.17,8
129,134.67,136.10,8
128,134.54,136.02,8
128,134.41,135.94,8
129,134.30,135.87,8
127,134.16,135.78,8
128,134.03,135.70,8
127,133.89,135.62,8
128,133.77,135.54,8
127,133.64,135.45,8
127,133.51,135.37,8
127,133.38,135.29,8
128,133.27,135.21,8
127,133.14,135.13,8
127,133.02,135.05,8
127,132.90,134.97,8
126,132.76,134.88,8
126,132.63,134.79,8
126,132.49,134.70,8
125,132.34,134.61,8
125,132.20,134.51,8
126,132.07,134.42,8
125,131.93,134.33,8
125,131.79,134.24,8
125,131.66,134.14,8
125,131.52,134.05,8
125,131.39,133.96,8
126,131.29,133.88,8
125,131.16,133.79,8
125,131.04,133.71,8
125,130.92,133.62,8
125,130.80,133.53,8
126,130.70,133.46,8
124,130.57,133.36,8
125,130.46,133.28,8
124,130.33,133.19,8
125,130.22,133.10,8
123,130.08,133.00,8
124,129.95,132.91,8
123,129.82,132.81,8
124,129.70,132.73,8
123,129.57,132.63,8
123,129.43,132.53,8
123,129.31,132.44,8
124,129.20,132.35,8
123,129.08,132.26,8
123,128.95,132.17,8
123,128.83,132.08,8
123,128.72,131.98,8
124,128.62,131.90,8
123,128.51,131.82,8
125,128.44,131.75,8
123,128.33,131.66,8
121,128.19,131.55,8
123,128.08,131.47,8
121,127.94,131.36,8
121,127.80,131.26,8
122,127.69,131.17,8
121,127.55,131.07,8
123,127.46,130.98,8
121,127.33,130.88,8
121,127.20,130.79,8
121,127.08,130.69,8
121,126.96,130.59,8
122,126.86,130.51,8
120,126.72,130.40,8
121,126.61,130.31,8
120,126.48,130.20,8
121,126.37,130.11,8
121,126.26,130.02,8
121,126.15,129.93,8
120,126.03,129.83,8
120,125.91,129.73,8
120,125.79,129.63,8
119,125.66,129.53,8
119,125.52,129.42,8
121,125.43,129.34,8
120,125.32,129.25,8
120,125.22,129.15,8
120,125.11,129.06,8
120,125.01,128.97,8
119,124.89,128.87,8
120,124.79,128.78,8
119,124.68,128.68,8
119,124.56,128.59,8
120,124.47,128.50,8
118,124.34,128.40,8
119,124.24,128.30,8
119,124.13,128.21,8
118,124.01,128.11,8
118,123.89,128.01,8
118,123.77,127.91,8
117,123.64,127.80,8
118,123.52,127.70,8
117,123.39,127.59,8
117,123.26,127.49,8
119,123.18,127.40,8
117,123.06,127.30,8
117,122.93,127.19,8
117,122.82,127.09,8
117,122.70,126.99,8
117,122.59,126.89,8
117,122.47,126.79,8
115,122.32,126.68,8
116,122.20,126.57,8
116,122.07,126.46,8
117,121.97,126.37,8
115,121.83,126.25,8
117,121.74,126.16,8
116,121.62,126.06,8
116,121.51,125.96,8
117,121.42,125.87,8
115,121.29,125.76,8
116,121.18,125.66,8
116,121.08,125.57,8
116,120.98,125.47,8
115,120.86,125.37,8
117,120.78,125.28,8
116,120.69,125.19,8
117,120.61,125.11,8
115,120.50,125.01,8
116,120.41,124.92,8
115,120.30,124.82,8
117,120.24,124.74,8
115,120.13,124.64,8
117,120.07,124.57,8
116,119.99,124.48,8
115,119.89,124.39,8
116,119.81,124.30,8
115,119.71,124.21,8
115,119.62,124.12,8
115,119.53,124.03,8
113,119.40,123.92,8
115,119.31,123.83,8
115,119.22,123.74,8
115,119.14,123.65,8
114,119.04,123.55,8
114,118.93,123.46,8
115,118.86,123.37,8
114,118.76,123.28,8
115,118.68,123.20,8
113,118.57,123.10,8
113,118.46,122.99,8
115,118.39,122.91,8
113,118.28,122.82,8
114,118.20,122.73,8
114,118.11,122.64,8
113,118.01,122.54,8
113,117.91,122.45,8
113,117.81,122.35,8
113,117.72,122.26,8
113,117.62,122.17,8
114,117.55,122.09,8
113,117.46,121.99,8
113,117.37,121.90,8
113,117.28,121.82,8
112,117.18,121.72,8
113,117.09,121.63,8
112,116.99,121.53,8
111,116.87,121.43,8
111,116.75,121.32,8
112,116.66,121.23,8
113,116.58,121.15,8
112,116.49,121.06,8
112,116.40,120.97,8
111,116.30,120.87,8
111,116.19,120.77,8
112,116.11,120.68,8
111,116.00,120.58,8
111,115.90,120.49,8
112,115.83,120.40,8
112,115.75,120.32,8
113,115.69,120.25,8
111,115.60,120.15,8
111,115.51,120.06,8
113,115.46,119.99,8
111,115.37,119.90,8
111,115.28,119.81,8
113,115.24,119.74,8
111,115.15,119.66,8
112,115.09,119.58,8
111,115.01,119.49,8
111,114.93,119.41,8
111,114.85,119.33,8
111,114.77,119.24,8
111,114.70,119.16,8
111,114.62,119.08,8
111,114.55,119.00,8
111,114.48,118.92,8
110,114.39,118.83,8
110,114.30,118.74,8
111,114.23,118.66,8
109,114.13,118.57,8
110,114.05,118.48,8
110,113.97,118.40,8
111,113.91,118.32,8
109,113.81,118.23,8
109,113.71,118.14,8
109,113.62,118.04,8
109,113.53,117.95,8
114,113.54,117.91,8
109,113.44,117.83,8
109,113.36,117.74,8
109,113.27,117.65,8
109,113.18,117.56,8
109,113.10,117.48,8
109,113.02,117.39,8
109,112.94,117.31,8
108,112.84,117.22,8
107,112.72,117.11,8
110,112.67,117.04,8
108,112.57,116.95,8
109,112.50,116.87,8
108,112.41,116.78,8
108,112.32,116.70,8
108,112.24,116.61,8
107,112.13,116.51,8
109,112.07,116.44,8
108,111.99,116.35,8
108,111.91,116.27,8
107,111.81,116.18,8
107,111.71,116.09,8
107,111.62,115.99,8
107,111.53,115.90,8
107,111.44,115.82,8
106,111.33,115.72,8
107,111.24,115.63,8
107,111.16,115.54,8
108,111.09,115.47,8
107,111.01,115.38,8
105,110.89,115.28,8
107,110.81,115.20,8
107,110.74,115.12,8
106,110.64,115.02,8
105,110.53,114.92,8
105,110.42,114.82,8
107,110.35,114.75,8
105,110.24,114.65,8
105,110.14,114.55,8
106,110.06,114.47,8
105,109.96,114.37,8
106,109.88,114.29,8
107,109.82,114.22,8
105,109.72,114.12,8
107,109.67,114.05,8
105,109.57,113.96,8
105,109.48,113.87,8
105,109.39,113.78,8
105,109.31,113.70,8
105,109.22,113.61,8
106,109.16,113.53,8
105,109.07,113.45,8
105,108.99,113.36,8
106,108.93,113.29,8
106,108.87,113.22,8
107,108.83,113.15,8
106,108.78,113.08,8
105,108.70,113.00,8
105,108.63,112.92,8
107,108.60,112.86,8
105,108.52,112.78,8
105,108.45,112.71,8
105,108.38,112.63,8
105,108.32,112.55,8
105,108.25,112.48,8
105,108.19,112.40,8
104,108.10,112.32,8
105,108.04,112.25,8
105,107.98,112.17,8
105,107.92,112.10,8
105,107.86,112.03,8
104,107.78,111.95,8
103,107.69,111.86,8
105,107.63,111.79,8
105,107.58,111.72,8
105,107.53,111.66,8
105,107.48,111.59,8
105,107.43,111.52,8
105,107.38,111.46,8
105,107.33,111.39,8
104,107.27,111.32,8
105,107.22,111.26,8
104,107.16,111.18,8
105,107.11,111.12,8
104,107.05,111.05,8
105,107.01,110.99,8
103,106.93,110.91,8
104,106.87,110.84,8
103,106.79,110.76,8
103,106.72,110.69,8
103,106.64,110.61,8
104,106.59,110.54,8
103,106.52,110.47,8
104,106.47,110.40,8
104,106.42,110.34,8
103,106.35,110.27,8
103,106.28,110.19,8
103,106.22,110.12,8
103,106.15,110.05,8
103,106.09,109.98,8
103,106.03,109.91,8
103,105.97,109.84,8
103,105.91,109.77,8
103,105.85,109.70,8
102,105.77,109.63,8
103,105.72,109.56,8
103,105.66,109.50,8
103,105.61,109.43,8
101,105.52,109.35,8
101,105.43,109.26,8
99,105.30,109.16,8
102,105.23,109.09,8
102,105.17,109.02,8
104,105.15,108.97,8
101,105.06,108.89,8
101,104.98,108.81,8
101,104.90,108.73,8
99,104.78,108.63,8
104,104.77,108.59,8
100,104.67,108.50,8
99,104.56,108.41,8
102,104.51,108.34,8
100,104.42,108.26,8
102,104.37,108.20,8
100,104.28,108.11,8
101,104.22,108.04,8
101,104.15,107.97,8
99,104.05,107.88,8
101,103.99,107.81,8
100,103.91,107.74,8
99,103.81,107.65,8
100,103.73,107.57,8
100,103.66,107.50,8
99,103.57,107.41,8
99,103.47,107.33,8
99,103.39,107.24,8
98,103.28,107.15,8
100,103.21,107.08,8
99,103.13,107.00,8
99,103.05,106.92,8
99,102.96,106.84,8
99,102.89,106.76,8
98,102.79,106.67,8
98,102.69,106.59,8
98,102.60,106.50,8
98,102.51,106.42,8
98,102.42,106.33,8
99,102.35,106.26,8
100,102.30,106.20,8
98,102.21,106.11,8
99,102.15,106.04,8
98,102.07,105.96,8
99,102.01,105.89,8
98,101.93,105.81,8
97,101.83,105.73,8
98,101.75,105.65,8
100,101.72,105.59,8
98,101.64,105.52,8
98,101.57,105.44,8
98,101.50,105.37,8
98,101.43,105.29,8
97,101.34,105.21,8
98,101.27,105.14,8
98,101.21,105.07,8
96,101.10,104.98,8
97,101.02,104.90,8
98,100.96,104.83,8
97,100.88,104.75,8
98,100.82,104.68,8
97,100.75,104.60,8
97,100.67,104.53,8
98,100.62,104.46,8
96,100.53,104.38,8
98,100.48,104.32,8
98,100.43,104.25,8
98,100.38,104.19,8
98,100.33,104.13,8
98,100.28,104.07,8
98,100.24,104.01,8
98,100.19,103.95,8
97,100.13,103.88,8
97,100.07,103.81,8
98,100.03,103.75,8
95,99.92,103.66,8
98,99.89,103.61,8
96,99.81,103.53,8
97,99.75,103.46,8
96,99.68,103.39,8
96,99.60,103.32,8
97,99.55,103.25,8
97,99.50,103.19,8
95,99.41,103.11,8
97,99.36,103.05,8
98,99.34,103.00,8
96,99.27,102.93,8
96,99.20,102.86,8
96,99.14,102.79,8
96,99.08,102.72,8
96,99.01,102.65,8
97,98.97,102.60,8
95,98.89,102.52,8
95,98.82,102.45,8
95,98.74,102.37,8
95,98.67,102.30,8
95,98.59,102.22,8
94,98.50,102.14,8
95,98.43,102.07,8
95,98.36,102.00,8
95,98.29,101.93,8
95,98.23,101.86,8
95,98.16,101.79,8
95,98.10,101.72,8
95,98.04,101.66,8
96,98.00,101.60,8
94,97.92,101.52,8
95,97.86,101.46,8
95,97.80,101.39,8
96,97.77,101.34,8
93,97.67,101.26,8
95,97.62,101.19,8
95,97.57,101.13,8
94,97.49,101.06,8
96,97.46,101.01,8
94,97.40,100.94,8
95,97.35,100.88,8
95,97.30,100.82,8
94,97.23,100.75,8
95,97.19,100.70,8
96,97.17,100.65,8
96,97.14,100.60,8
95,97.10,100.55,8
96,97.08,100.50,8
95,97.04,100.45,8
95,97.00,100.39,8
97,97.00,100.36,8
96,96.98,100.31,8
95,96.94,100.26,8
96,96.92,100.22,8
95,96.88,100.17,8
95,96.84,100.12,8
95,96.80,100.06,8
95,96.77,100.01,8
95,96.73,99.96,8
94,96.68,99.90,8
96,96.66,99.86,8
95,96.63,99.82,8
94,96.58,99.76,8
95,96.55,99.71,8
94,96.50,99.65,8
94,96.45,99.60,8
94,96.40,99.54,8
94,96.35,99.49,8
93,96.28,99.42,8
94,96.24,99.37,8
93,96.17,99.30,8
94,96.13,99.25,8
95,96.11,99.21,8
93,96.04,99.14,8
94,96.00,99.09,8
94,95.96,99.04,8
93,95.90,98.98,8
94,95.87,98.93,8
94,95.83,98.88,8
93,95.77,98.82,8
93,95.72,98.77,8
94,95.68,98.72,8
94,95.65,98.67,8
93,95.60,98.61,8
94,95.56,98.57,8
92,95.49,98.50,8
93,95.44,98.45,8
93,95.39,98.39,8
94,95.37,98.35,8
92,95.30,98.29,8
95,95.29,98.25,8
95,95.29,98.22,8
94,95.26,98.18,8
92,95.20,98.12,8
92,95.13,98.05,8
93,95.09,98.00,8
92,95.03,97.94,8
92,94.97,97.88,8
92,94.91,97.83,8
95,94.91,97.80,8
92,94.85,97.74,8
92,94.79,97.68,8
90,94.70,97.61,8
92,94.64,97.55,8
92,94.59,97.49,8
92,94.54,97.44,8
88,94.41,97.34,8
92,94.36,97.29,8
92,94.31,97.24,8
92,94.27,97.19,8
92,94.22,97.13,8
92,94.18,97.08,8
91,94.11,97.02,8
92,94.07,96.97,8
92,94.03,96.92,8
93,94.01,96.88,8
92,93.97,96.83,8
92,93.93,96.79,8
92,93.89,96.74,8
92,93.85,96.69,8
92,93.82,96.64,8
90,93.74,96.58,8
92,93.71,96.53,8
92,93.67,96.49,8
91,93.62,96.43,8
92,93.59,96.39,8
92,93.55,96.34,8
92,93.52,96.30,8
92,93.49,96.26,8
90,93.42,96.19,8
92,93.39,96.15,8
92,93.37,96.11,8
94,93.38,96.09,8
92,93.35,96.05,8
92,93.32,96.01,8
91,93.28,95.96,8
92,93.25,95.92,8
92,93.23,95.88,8
92,93.20,95.84,8
91,93.16,95.79,8
90,93.10,95.73,8
90,93.03,95.68,8
92,93.01,95.64,8
91,92.97,95.59,8
92,92.95,95.56,8
90,92.89,95.50,8
92,92.88,95.47,8
91,92.84,95.42,8
91,92.80,95.38,8
91,92.77,95.33,8
91,92.73,95.29,8
90,92.68,95.24,8
91,92.64,95.20,8
92,92.63,95.16,8
91,92.60,95.12,8
91,92.56,95.08,8
90,92.51,95.03,8
90,92.46,94.98,8
90,92.41,94.93,8
90,92.37,94.88,8
92,92.36,94.85,8
90,92.31,94.80,8
90,92.27,94.76,8
90,92.22,94.71,8
90,92.18,94.66,8
90,92.13,94.61,8
91,92.11,94.58,8
90,92.07,94.53,8
92,92.07,94.51,8
90,92.02,94.46,8
90,91.98,94.42,8
90,91.94,94.37,8
89,91.89,94.32,8
90,91.85,94.28,8
90,91.81,94.23,8
90,91.77,94.19,8
90,91.74,94.15,8
90,91.70,94.11,8
90,91.67,94.07,8
90,91.64,94.03,8
89,91.58,93.98,8
90,91.55,93.94,8
90,91.52,93.90,8
89,91.47,93.85,8
90,91.44,93.81,8
90,91.41,93.77,8
90,91.38,93.73,8
89,91.34,93.69,8
89,91.29,93.64,8
88,91.22,93.58,8
89,91.18,93.54,8
89,91.14,93.49,8
92,91.15,93.48,8
89,91.11,93.43,8
88,91.05,93.38,8
89,91.01,93.33,8
89,90.97,93.29,8
90,90.95,93.26,8
88,90.89,93.20,8
89,90.85,93.16,8
89,90.81,93.12,8
88,90.76,93.07,8
88,90.70,93.02,8
