Teste de posicionamento 1(EMG ao centro do bíceps (Vermelho A, Verde B) + Ref no pulso) - 16/09/2024 - teste3 - 5 contrações
long frequencia = 1000;                 //frequência de aquisição do sinal, neste caso, 1000 sinais por segundo
float fator1 = 0.02, fator2 = 0.01;
float incerteza = 0.13;
float pico_basal = 130; // Mínimo para ser considerado um pico de contração
int filtro_horizontal=200000; //intervalo de 200ms valores não pode ter mais de 1 contração

Biceps_D,mediaMovel_1,mediaMovel_2,Contracao
114,2.28,1.14,0
114,4.51,2.27,0
116,6.74,3.41,0
114,8.89,4.51,0
113,10.97,5.60,0
114,13.03,6.68,0
114,15.05,7.75,0
115,17.05,8.83,0
114,18.99,9.88,0
113,20.87,10.91,0
114,22.73,11.94,0
114,24.56,12.96,0
113,26.33,13.96,0
113,28.06,14.95,0
113,29.76,15.93,0
113,31.42,16.90,0
114,33.08,17.87,0
114,34.69,18.84,0
114,36.28,19.79,0
115,37.85,20.74,0
113,39.36,21.66,0
113,40.83,22.57,0
116,42.33,23.51,0
114,43.77,24.41,0
114,45.17,25.31,0
114,46.55,26.20,0
113,47.88,27.06,0
113,49.18,27.92,0
116,50.52,28.80,0
114,51.79,29.66,0
115,53.05,30.51,0
115,54.29,31.36,0
115,55.50,32.19,0
115,56.69,33.02,0
114,57.84,33.83,0
113,58.94,34.62,0
113,60.02,35.41,0
113,61.08,36.18,0
114,62.14,36.96,0
113,63.16,37.72,0
114,64.18,38.48,0
113,65.15,39.23,0
113,66.11,39.97,0
113,67.05,40.70,0
113,67.97,41.42,0
113,68.87,42.13,0
113,69.75,42.84,0
115,70.65,43.56,0
113,71.50,44.26,0
115,72.37,44.97,0
113,73.18,45.65,0
113,73.98,46.32,0
113,74.76,46.99,0
113,75.53,47.65,0
113,76.27,48.30,0
113,77.01,48.95,0
113,77.73,49.59,0
113,78.43,50.22,0
114,79.15,50.86,0
114,79.84,51.49,0
113,80.51,52.11,0
113,81.16,52.72,0
113,81.79,53.32,0
113,82.42,53.92,0
114,83.05,54.52,0
113,83.65,55.10,0
113,84.23,55.68,0
113,84.81,56.25,0
113,85.37,56.82,0
113,85.93,57.38,0
113,86.47,57.94,0
113,87.00,58.49,0
113,87.52,59.03,0
113,88.03,59.57,0
113,88.53,60.11,0
114,89.04,60.65,0
112,89.50,61.16,0
111,89.93,61.66,0
113,90.39,62.17,0
115,90.88,62.70,0
114,91.34,63.21,0
113,91.78,63.71,0
113,92.20,64.20,0
113,92.62,64.69,0
114,93.04,65.19,0
113,93.44,65.66,0
113,93.83,66.14,0
113,94.22,66.61,0
113,94.59,67.07,0
114,94.98,67.54,0
114,95.36,68.00,0
113,95.71,68.45,0
113,96.06,68.90,0
113,96.40,69.34,0
114,96.75,69.79,0
115,97.12,70.24,0
113,97.43,70.67,0
116,97.80,71.12,0
113,98.11,71.54,0
113,98.41,71.95,0
114,98.72,72.37,0
113,99.00,72.78,0
113,99.28,73.18,0
113,99.56,73.58,0
113,99.83,73.97,0
113,100.09,74.36,0
114,100.37,74.76,0
113,100.62,75.14,0
113,100.87,75.52,0
113,101.11,75.90,0
114,101.37,76.28,0
114,101.62,76.65,0
112,101.83,77.01,0
114,102.07,77.38,0
114,102.31,77.74,0
114,102.55,78.11,0
114,102.77,78.47,0
114,103.00,78.82,0
114,103.22,79.17,0
114,103.43,79.52,0
114,103.65,79.87,0
114,103.85,80.21,0
114,104.06,80.55,0
114,104.25,80.88,0
113,104.43,81.20,0
114,104.62,81.53,0
112,104.77,81.83,0
113,104.93,82.15,0
112,105.07,82.44,0
113,105.23,82.75,0
114,105.41,83.06,0
113,105.56,83.36,0
112,105.69,83.65,0
113,105.84,83.94,0
114,106.00,84.24,0
113,106.14,84.53,0
114,106.30,84.82,0
112,106.41,85.10,0
112,106.52,85.37,0
113,106.65,85.64,0
113,106.78,85.92,0
113,106.90,86.19,0
112,107.00,86.44,0
113,107.12,86.71,0
112,107.22,86.96,0
116,107.40,87.25,0
112,107.49,87.50,0
113,107.60,87.76,0
114,107.73,88.02,0
113,107.83,88.27,0
114,107.96,88.52,0
113,108.06,88.77,0
113,108.16,89.01,0
112,108.23,89.24,0
113,108.33,89.48,0
114,108.44,89.72,0
112,108.51,89.95,0
113,108.60,90.18,0
113,108.69,90.41,0
114,108.80,90.64,0
114,108.90,90.88,0
115,109.02,91.12,0
112,109.08,91.33,0
113,109.16,91.54,0
114,109.26,91.77,0
114,109.35,91.99,0
112,109.41,92.19,0
113,109.48,92.40,0
113,109.55,92.60,0
114,109.64,92.82,0
114,109.72,93.03,0
112,109.77,93.22,0
112,109.81,93.41,0
113,109.88,93.60,0
112,109.92,93.79,0
113,109.98,93.98,0
112,110.02,94.16,0
113,110.08,94.35,0
114,110.16,94.54,0
114,110.24,94.74,0
112,110.27,94.91,0
112,110.31,95.08,0
112,110.34,95.25,0
113,110.39,95.43,0
113,110.45,95.60,0
114,110.52,95.79,0
112,110.55,95.95,0
114,110.62,96.13,0
114,110.68,96.31,0
115,110.77,96.50,0
112,110.79,96.65,0
114,110.86,96.83,0
114,110.92,97.00,0
113,110.96,97.16,0
113,111.00,97.32,0
113,111.04,97.47,0
112,111.06,97.62,0
113,111.10,97.77,0
113,111.14,97.92,0
114,111.20,98.08,0
112,111.21,98.22,0
113,111.25,98.37,0
114,111.30,98.53,0
114,111.36,98.68,0
113,111.39,98.83,0
113,111.42,98.97,0
117,111.53,99.15,0
115,111.60,99.31,0
113,111.63,99.44,0
113,111.66,99.58,0
114,111.71,99.72,0
113,111.73,99.86,0
113,111.76,99.99,0
115,111.82,100.14,0
114,111.87,100.28,0
113,111.89,100.40,0
114,111.93,100.54,0
114,111.97,100.67,0
114,112.01,100.81,0
114,112.05,100.94,0
114,112.09,101.07,0
113,112.11,101.19,0
113,112.13,101.31,0
113,112.14,101.42,0
113,112.16,101.54,0
113,112.18,101.65,0
113,112.19,101.77,0
114,112.23,101.89,0
113,112.25,102.00,0
114,112.28,102.12,0
113,112.30,102.23,0
113,112.31,102.34,0
113,112.32,102.44,0
113,112.34,102.55,0
113,112.35,102.65,0
113,112.36,102.76,0
113,112.38,102.86,0
113,112.39,102.96,0
113,112.40,103.06,0
113,112.41,103.16,0
113,112.42,103.26,0
113,112.44,103.36,0
113,112.45,103.45,0
111,112.42,103.53,0
113,112.43,103.62,0
113,112.44,103.72,0
115,112.49,103.83,0
113,112.50,103.92,0
113,112.51,104.01,0
113,112.52,104.10,0
113,112.53,104.19,0
113,112.54,104.28,0
112,112.53,104.36,0
113,112.54,104.44,0
112,112.53,104.52,0
113,112.54,104.60,0
113,112.55,104.69,0
113,112.56,104.77,0
112,112.55,104.84,0
112,112.53,104.91,0
113,112.54,105.00,0
113,112.55,105.08,0
112,112.54,105.14,0
113,112.55,105.22,0
113,112.56,105.30,0
113,112.57,105.38,0
112,112.56,105.44,0
113,112.57,105.52,0
113,112.58,105.59,0
113,112.58,105.67,0
113,112.59,105.74,0
112,112.58,105.80,0
113,112.59,105.88,0
113,112.60,105.95,0
113,112.60,106.02,0
112,112.59,106.08,0
113,112.60,106.15,0
113,112.61,106.22,0
115,112.66,106.30,0
113,112.66,106.37,0
113,112.67,106.44,0
113,112.68,106.50,0
116,112.74,106.60,0
114,112.77,106.67,0
112,112.75,106.72,0
112,112.74,106.78,0
112,112.72,106.83,0
113,112.73,106.89,0
113,112.73,106.95,0
112,112.72,107.00,0
112,112.71,107.05,0
113,112.71,107.11,0
113,112.72,107.17,0
113,112.72,107.23,0
112,112.71,107.28,0
113,112.71,107.33,0
113,112.72,107.39,0
114,112.75,107.46,0
111,112.71,107.49,0
113,112.72,107.55,0
113,112.72,107.60,0
114,112.75,107.67,0
113,112.75,107.72,0
113,112.76,107.77,0
113,112.76,107.82,0
113,112.77,107.88,0
115,112.81,107.95,0
113,112.82,108.00,0
113,112.82,108.05,0
113,112.82,108.10,0
115,112.87,108.17,0
113,112.87,108.22,0
113,112.87,108.26,0
113,112.87,108.31,0
113,112.88,108.36,0
113,112.88,108.40,0
114,112.90,108.46,0
113,112.90,108.51,0
113,112.91,108.55,0
113,112.91,108.59,0
113,112.91,108.64,0
114,112.93,108.69,0
113,112.93,108.74,0
113,112.93,108.78,0
114,112.96,108.83,0
115,113.00,108.89,0
114,113.02,108.94,0
115,113.06,109.00,0
113,113.05,109.04,0
115,113.09,109.10,0
113,113.09,109.14,0
113,113.09,109.18,0
113,113.09,109.22,0
113,113.09,109.26,0
113,113.08,109.29,0
115,113.12,109.35,0
113,113.12,109.39,0
113,113.12,109.42,0
115,113.16,109.48,0
115,113.19,109.53,0
114,113.21,109.58,0
113,113.20,109.61,0
115,113.24,109.67,0
114,113.26,109.71,0
114,113.27,109.75,0
113,113.27,109.79,0
113,113.26,109.82,0
113,113.25,109.85,0
115,113.29,109.90,0
115,113.32,109.95,0
114,113.34,109.99,0
115,113.37,110.04,0
114,113.38,110.08,0
113,113.38,110.11,0
114,113.39,110.15,0
114,113.40,110.19,0
114,113.41,110.23,0
116,113.46,110.29,0
116,113.51,110.34,0
115,113.54,110.39,0
114,113.55,110.42,0
115,113.58,110.47,0
116,113.63,110.53,0
115,113.66,110.57,0
115,113.69,110.61,0
116,113.73,110.67,0
115,113.76,110.71,0
117,113.82,110.77,0
115,113.85,110.82,0
115,113.87,110.86,0
116,113.91,110.91,0
115,113.93,110.95,0
116,113.97,111.00,0
115,113.99,111.04,0
115,114.01,111.08,0
115,114.03,111.12,0
115,114.05,111.16,0
115,114.07,111.20,0
115,114.09,111.24,0
116,114.13,111.28,0
116,114.17,111.33,0
117,114.22,111.39,0
115,114.24,111.42,0
114,114.23,111.45,0
114,114.23,111.47,0
115,114.24,111.51,0
114,114.24,111.53,0
115,114.26,111.57,0
114,114.25,111.59,0
115,114.27,111.63,0
115,114.28,111.66,0
113,114.25,111.68,0
117,114.31,111.73,0
115,114.32,111.76,0
113,114.30,111.77,0
114,114.29,111.80,0
114,114.28,111.82,0
113,114.26,111.83,0
113,114.23,111.84,0
113,114.21,111.85,0
113,114.19,111.86,0
113,114.16,111.88,0
113,114.14,111.89,0
113,114.12,111.90,0
116,114.15,111.94,0
114,114.15,111.96,0
114,114.15,111.98,0
113,114.12,111.99,0
112,114.08,111.99,0
113,114.06,112.00,0
113,114.04,112.01,0
113,114.02,112.02,0
113,114.00,112.03,0
113,113.98,112.04,0
115,114.00,112.07,0
113,113.98,112.08,0
113,113.96,112.09,0
113,113.94,112.10,0
113,113.92,112.11,0
114,113.92,112.13,0
113,113.90,112.13,0
113,113.89,112.14,0
113,113.87,112.15,0
113,113.85,112.16,0
113,113.83,112.17,0
113,113.82,112.18,0
113,113.80,112.18,0
113,113.78,112.19,0
113,113.77,112.20,0
113,113.75,112.21,0
113,113.74,112.22,0
112,113.70,112.21,0
113,113.69,112.22,0
113,113.68,112.23,0
113,113.66,112.24,0
113,113.65,112.25,0
113,113.64,112.25,0
114,113.64,112.27,0
114,113.65,112.29,0
113,113.64,112.29,0
113,113.62,112.30,0
115,113.65,112.33,0
116,113.70,112.37,0
113,113.69,112.37,0
114,113.69,112.39,0
114,113.70,112.40,0
116,113.74,112.44,0
113,113.73,112.45,0
114,113.73,112.46,0
113,113.72,112.47,0
115,113.75,112.49,0
115,113.77,112.52,0
114,113.78,112.53,0
113,113.76,112.54,0
114,113.76,112.55,0
115,113.79,112.58,0
113,113.77,112.58,0
113,113.76,112.58,0
114,113.76,112.60,0
113,113.75,112.60,0
115,113.77,112.63,0
115,113.80,112.65,0
113,113.78,112.65,0
115,113.81,112.68,0
113,113.79,112.68,0
114,113.79,112.69,0
113,113.78,112.70,0
113,113.76,112.70,0
114,113.77,112.71,0
114,113.77,112.73,0
112,113.74,112.72,0
113,113.72,112.72,0
113,113.71,112.72,0
113,113.69,112.73,0
113,113.68,112.73,0
114,113.69,112.74,0
113,113.67,112.74,0
113,113.66,112.75,0
115,113.69,112.77,0
114,113.69,112.78,0
114,113.70,112.79,0
113,113.68,112.80,0
113,113.67,112.80,0
113,113.66,112.80,0
113,113.64,112.80,0
113,113.63,112.80,0
117,113.70,112.85,0
113,113.68,112.85,0
114,113.69,112.86,0
114,113.70,112.87,0
113,113.68,112.87,0
113,113.67,112.87,0
113,113.66,112.87,0
113,113.64,112.88,0
113,113.63,112.88,0
114,113.64,112.89,0
113,113.62,112.89,0
113,113.61,112.89,0
113,113.60,112.89,0
112,113.57,112.88,0
112,113.54,112.87,0
112,113.51,112.87,0
111,113.46,112.85,0
111,113.41,112.83,0
112,113.38,112.82,0
111,113.33,112.80,0
111,113.28,112.78,0
113,113.28,112.79,0
111,113.23,112.77,0
112,113.21,112.76,0
112,113.18,112.75,0
111,113.14,112.74,0
111,113.10,112.72,0
111,113.06,112.70,0
111,113.01,112.68,0
111,112.97,112.67,0
111,112.93,112.65,0
111,112.90,112.63,0
111,112.86,112.62,0
111,112.82,112.60,0
111,112.78,112.58,0
111,112.75,112.57,0
111,112.71,112.55,0
111,112.68,112.54,0
112,112.67,112.53,0
111,112.63,112.52,0
111,112.60,112.50,0
111,112.57,112.49,0
110,112.52,112.46,0
111,112.49,112.45,0
111,112.46,112.43,0
111,112.43,112.42,0
111,112.40,112.40,0
111,112.37,112.39,0
111,112.34,112.38,0
112,112.34,112.37,0
111,112.31,112.36,0
111,112.28,112.35,0
111,112.26,112.33,0
111,112.23,112.32,0
113,112.25,112.33,0
110,112.20,112.30,0
111,112.18,112.29,0
110,112.14,112.27,0
111,112.11,112.25,0
109,112.05,112.22,0
109,111.99,112.19,0
111,111.97,112.18,0
111,111.95,112.17,0
110,111.91,112.14,0
110,111.87,112.12,0
109,111.82,112.09,0
111,111.80,112.08,0
111,111.78,112.07,0
111,111.77,112.06,0
111,111.75,112.05,0
111,111.74,112.04,0
108,111.66,112.00,0
111,111.65,111.99,0
109,111.60,111.96,0
110,111.56,111.94,0
111,111.55,111.93,0
111,111.54,111.92,0
110,111.51,111.90,0
110,111.48,111.88,0
111,111.47,111.87,0
109,111.42,111.84,0
111,111.41,111.83,0
109,111.37,111.81,0
109,111.32,111.78,0
110,111.29,111.76,0
109,111.25,111.73,0
109,111.20,111.71,0
109,111.16,111.68,0
109,111.11,111.65,0
109,111.07,111.63,0
109,111.03,111.60,0
109,110.99,111.57,0
110,110.97,111.56,0
109,110.93,111.53,0
109,110.89,111.51,0
109,110.85,111.48,0
109,110.82,111.46,0
109,110.78,111.43,0
109,110.74,111.41,0
109,110.71,111.38,0
109,110.68,111.36,0
109,110.64,111.34,0
109,110.61,111.31,0
109,110.58,111.29,0
109,110.55,111.27,0
109,110.51,111.24,0
109,110.48,111.22,0
109,110.45,111.20,0
108,110.41,111.17,0
110,110.40,111.16,0
107,110.33,111.11,0
110,110.32,111.10,0
109,110.30,111.08,0
109,110.27,111.06,0
109,110.25,111.04,0
109,110.22,111.02,0
109,110.20,111.00,0
109,110.17,110.98,0
109,110.15,110.96,0
109,110.13,110.94,0
109,110.10,110.92,0
109,110.08,110.90,0
109,110.06,110.88,0
109,110.04,110.86,0
111,110.06,110.87,0
109,110.04,110.85,0
109,110.02,110.83,0
109,110.00,110.81,0
111,110.02,110.81,0
109,110.00,110.79,0
109,109.98,110.78,0
109,109.96,110.76,0
109,109.94,110.74,0
109,109.92,110.72,0
108,109.88,110.70,0
109,109.86,110.68,0
109,109.84,110.66,0
109,109.83,110.65,0
109,109.81,110.63,0
110,109.81,110.62,0
109,109.80,110.61,0
109,109.78,110.59,0
109,109.77,110.57,0
109,109.75,110.56,0
108,109.72,110.53,0
109,109.70,110.52,0
109,109.69,110.50,0
109,109.67,110.49,0
108,109.64,110.46,0
109,109.63,110.45,0
109,109.62,110.43,0
109,109.60,110.42,0
108,109.57,110.40,0
109,109.56,110.38,0
109,109.55,110.37,0
109,109.54,110.35,0
109,109.53,110.34,0
109,109.52,110.33,0
109,109.51,110.31,0
109,109.50,110.30,0
110,109.51,110.30,0
109,109.50,110.28,0
109,109.49,110.27,0
109,109.48,110.26,0
109,109.47,110.25,0
108,109.44,110.22,0
110,109.45,110.22,0
108,109.42,110.20,0
109,109.41,110.19,0
109,109.40,110.18,0
109,109.40,110.16,0
109,109.39,110.15,0
108,109.36,110.13,0
109,109.35,110.12,0
110,109.37,110.12,0
109,109.36,110.11,0
109,109.35,110.10,0
109,109.34,110.08,0
109,109.34,110.07,0
109,109.33,110.06,0
109,109.32,110.05,0
109,109.32,110.04,0
109,109.31,110.03,0
108,109.28,110.01,0
108,109.26,109.99,0
108,109.23,109.97,0
109,109.23,109.96,0
109,109.22,109.95,0
107,109.18,109.92,0
109,109.18,109.91,0
110,109.19,109.91,0
109,109.19,109.90,0
109,109.19,109.90,0
107,109.14,109.87,0
110,109.16,109.87,0
108,109.14,109.85,0
108,109.11,109.83,0
109,109.11,109.82,0
109,109.11,109.81,0
109,109.11,109.81,0
108,109.08,109.79,0
109,109.08,109.78,0
108,109.06,109.76,0
109,109.06,109.76,0
109,109.06,109.75,0
108,109.04,109.73,0
111,109.08,109.74,0
109,109.07,109.74,0
110,109.09,109.74,0
109,109.09,109.73,0
109,109.09,109.72,0
110,109.11,109.73,0
109,109.11,109.72,0
109,109.10,109.71,0
111,109.14,109.72,0
110,109.16,109.73,0
109,109.16,109.72,0
109,109.15,109.71,0
109,109.15,109.71,0
109,109.15,109.70,0
109,109.14,109.69,0
109,109.14,109.68,0
109,109.14,109.68,0
108,109.12,109.66,0
109,109.11,109.65,0
109,109.11,109.65,0
111,109.15,109.66,0
109,109.15,109.65,0
109,109.14,109.65,0
109,109.14,109.64,0
111,109.18,109.66,0
109,109.17,109.65,0
109,109.17,109.64,0
110,109.19,109.65,0
109,109.18,109.64,0
113,109.26,109.67,0
112,109.31,109.70,0
111,109.35,109.71,0
111,109.38,109.72,0
112,109.43,109.74,0
111,109.46,109.76,0
111,109.50,109.77,0
110,109.51,109.77,0
111,109.54,109.78,0
112,109.58,109.81,0
112,109.63,109.83,0
112,109.68,109.85,0
114,109.77,109.89,0
112,109.81,109.91,0
113,109.87,109.94,0
112,109.92,109.96,0
112,109.96,109.98,0
111,109.98,109.99,0
113,110.04,110.02,0
111,110.06,110.03,0
112,110.10,110.05,0
113,110.16,110.08,0
111,110.17,110.09,0
113,110.23,110.12,0
109,110.21,110.11,0
112,110.24,110.13,0
112,110.28,110.15,0
111,110.29,110.16,0
111,110.30,110.17,0
113,110.36,110.19,0
111,110.37,110.20,0
113,110.42,110.23,0
113,110.48,110.26,0
112,110.51,110.27,0
113,110.56,110.30,0
112,110.58,110.32,0
112,110.61,110.34,0
112,110.64,110.35,0
114,110.71,110.39,0
113,110.75,110.42,0
113,110.80,110.44,0
112,110.82,110.46,0
113,110.87,110.48,0
113,110.91,110.51,0
114,110.97,110.54,0
112,110.99,110.56,0
113,111.03,110.58,0
113,111.07,110.61,0
113,111.11,110.63,0
111,111.11,110.63,0
113,111.15,110.66,0
112,111.16,110.67,0
112,111.18,110.68,0
113,111.22,110.71,0
112,111.23,110.72,0
113,111.27,110.74,0
112,111.28,110.75,0
113,111.32,110.78,0
113,111.35,110.80,0
113,111.38,110.82,0
113,111.41,110.84,0
113,111.45,110.86,0
113,111.48,110.89,0
111,111.47,110.89,0
112,111.48,110.90,0
112,111.49,110.91,0
114,111.54,110.94,0
113,111.57,110.96,0
113,111.60,110.98,0
112,111.61,110.99,0
111,111.59,110.99,0
113,111.62,111.01,0
113,111.65,111.03,0
113,111.68,111.05,0
113,111.70,111.07,0
113,111.73,111.09,0
114,111.77,111.12,0
114,111.82,111.15,0
113,111.84,111.17,0
112,111.85,111.17,0
115,111.91,111.21,0
113,111.93,111.23,0
116,112.01,111.28,0
114,112.05,111.31,0
114,112.09,111.33,0
115,112.15,111.37,0
114,112.19,111.40,0
116,112.26,111.44,0
113,112.28,111.46,0
115,112.33,111.49,0
114,112.36,111.52,0
117,112.46,111.57,0
115,112.51,111.61,0
115,112.56,111.64,0
117,112.65,111.69,0
119,112.77,111.77,0
117,112.86,111.82,0
117,112.94,111.87,0
117,113.02,111.92,0
117,113.10,111.97,0
116,113.16,112.01,0
116,113.22,112.05,0
117,113.29,112.10,0
115,113.33,112.13,0
117,113.40,112.18,0
117,113.47,112.23,0
117,113.54,112.28,0
119,113.65,112.34,0
119,113.76,112.41,0
117,113.82,112.46,0
117,113.89,112.50,0
120,114.01,112.58,0
117,114.07,112.62,0
117,114.13,112.67,0
120,114.25,112.74,0
118,114.32,112.79,0
120,114.43,112.86,0
121,114.57,112.94,0
121,114.69,113.03,0
121,114.82,113.10,0
121,114.94,113.18,0
121,115.06,113.26,0
122,115.20,113.35,0
122,115.34,113.44,0
121,115.45,113.51,0
122,115.58,113.60,0
123,115.73,113.69,0
124,115.90,113.79,0
121,116.00,113.87,0
123,116.14,113.96,0
124,116.30,114.06,0
124,116.45,114.16,0
123,116.58,114.25,0
125,116.75,114.35,0
124,116.89,114.45,0
123,117.02,114.53,0
125,117.18,114.64,0
125,117.33,114.74,0
125,117.49,114.85,0
127,117.68,114.97,0
125,117.82,115.07,0
127,118.01,115.19,0
127,118.19,115.30,0
125,118.32,115.40,0
125,118.46,115.50,0
127,118.63,115.61,0
128,118.81,115.74,0
127,118.98,115.85,0
128,119.16,115.97,0
129,119.36,116.10,0
129,119.55,116.23,0
129,119.74,116.36,0
131,119.96,116.50,0
130,120.16,116.64,0
131,120.38,116.78,0
132,120.61,116.93,0
130,120.80,117.07,0
129,120.96,117.18,0
129,121.13,117.30,0
132,121.34,117.45,0
131,121.54,117.59,0
129,121.69,117.70,0
129,121.83,117.81,0
131,122.01,117.94,0
131,122.19,118.08,0
131,122.37,118.20,0
131,122.54,118.33,0
131,122.71,118.46,0
135,122.96,118.62,0
131,123.12,118.75,0
132,123.30,118.88,0
131,123.45,119.00,0
133,123.64,119.14,0
131,123.79,119.26,0
133,123.97,119.40,0
133,124.15,119.53,0
133,124.33,119.67,0
133,124.50,119.80,0
133,124.67,119.93,0
133,124.84,120.06,0
132,124.98,120.18,0
132,125.12,120.30,0
135,125.32,120.45,0
136,125.53,120.60,0
137,125.76,120.77,0
136,125.97,120.92,0
141,126.27,121.12,0
144,126.62,121.35,0
143,126.95,121.57,0
141,127.23,121.76,0
139,127.47,121.93,0
141,127.74,122.12,0
143,128.04,122.33,0
141,128.30,122.52,0
141,128.56,122.70,0
142,128.83,122.90,0
140,129.05,123.07,0
142,129.31,123.26,0
140,129.52,123.43,0
141,129.75,123.60,0
145,130.06,123.81,0
144,130.34,124.02,0
143,130.59,124.21,0
142,130.82,124.38,0
142,131.04,124.56,0
144,131.30,124.76,0
143,131.53,124.94,0
143,131.76,125.12,0
141,131.95,125.28,0
143,132.17,125.45,0
147,132.47,125.67,0
147,132.76,125.88,0
153,133.16,126.15,0
147,133.44,126.36,0
153,133.83,126.63,0
152,134.19,126.88,0
151,134.53,127.12,0
151,134.86,127.36,0
151,135.18,127.60,0
151,135.50,127.83,0
151,135.81,128.06,0
152,136.13,128.30,0
154,136.49,128.56,0
153,136.82,128.81,0
157,137.22,129.09,0
157,137.62,129.37,0
157,138.01,129.64,0
156,138.37,129.91,0
154,138.68,130.15,0
157,139.04,130.42,0
156,139.38,130.67,0
155,139.70,130.92,0
156,140.02,131.17,0
155,140.32,131.40,0
156,140.64,131.65,0
157,140.96,131.90,0
159,141.32,132.17,0
160,141.70,132.45,0
159,142.04,132.72,0
159,142.38,132.98,0
163,142.79,133.28,0
165,143.24,133.60,0
160,143.57,133.86,0
161,143.92,134.13,0
161,144.26,134.40,0
160,144.58,134.66,0
164,144.97,134.95,0
162,145.31,135.22,0
161,145.62,135.48,0
162,145.95,135.75,0
163,146.29,136.02,0
163,146.62,136.29,0
161,146.91,136.54,0
164,147.25,136.81,0
162,147.55,137.06,0
161,147.82,137.30,0
164,148.14,137.57,0
164,148.46,137.83,0
165,148.79,138.10,0
163,149.07,138.35,0
163,149.35,138.60,0
164,149.65,138.85,0
163,149.91,139.09,0
164,150.19,139.34,0
168,150.55,139.63,0
169,150.92,139.92,0
168,151.26,140.20,0
169,151.62,140.49,0
175,152.08,140.84,0
175,152.54,141.18,0
173,152.95,141.50,0
171,153.31,141.79,0
177,153.79,142.14,0
177,154.25,142.49,0
174,154.64,142.81,0
176,155.07,143.14,0
181,155.59,143.52,0
177,156.02,143.85,0
179,156.48,144.21,0
177,156.89,144.53,0
177,157.29,144.86,0
181,157.77,145.22,0
177,158.15,145.54,0
178,158.55,145.86,0
179,158.96,146.19,0
181,159.40,146.54,0
177,159.75,146.85,0
180,160.15,147.18,0
179,160.53,147.50,0
179,160.90,147.81,0
178,161.24,148.11,0
179,161.60,148.42,0
177,161.91,148.71,0
177,162.21,148.99,0
177,162.50,149.27,0
177,162.79,149.55,0
177,163.08,149.82,0
178,163.38,150.10,0
177,163.65,150.37,0
179,163.96,150.66,0
179,164.26,150.94,0
177,164.51,151.20,0
177,164.76,151.46,0
178,165.03,151.73,0
177,165.26,151.98,0
178,165.52,152.24,0
177,165.75,152.49,0
178,165.99,152.74,0
177,166.21,152.98,0
177,166.43,153.22,0
179,166.68,153.48,0
178,166.91,153.73,0
179,167.15,153.98,0
177,167.35,154.21,0
178,167.56,154.45,0
179,167.79,154.69,0
179,168.01,154.94,0
178,168.21,155.17,0
177,168.39,155.39,0
177,168.56,155.60,0
175,168.69,155.80,0
178,168.88,156.02,0
175,169.00,156.21,0
177,169.16,156.42,0
177,169.31,156.62,0
177,169.47,156.83,0
177,169.62,157.03,0
176,169.75,157.22,0
176,169.87,157.40,0
175,169.97,157.58,0
175,170.08,157.76,0
176,170.19,157.94,0
175,170.29,158.11,0
175,170.38,158.28,0
175,170.48,158.44,0
175,170.57,158.61,0
174,170.64,158.76,0
174,170.70,158.92,0
174,170.77,159.07,0
174,170.83,159.22,0
173,170.88,159.35,0
172,170.90,159.48,0
174,170.96,159.63,0
171,170.96,159.74,0
172,170.98,159.86,0
172,171.00,159.98,0
171,171.00,160.09,0
172,171.02,160.21,0
173,171.06,160.34,0
171,171.06,160.45,0
171,171.06,160.55,0
171,171.06,160.66,0
171,171.06,160.76,0
171,171.06,160.86,0
170,171.04,160.95,0
170,171.01,161.04,0
169,170.97,161.12,0
169,170.93,161.20,0
169,170.90,161.28,0
169,170.86,161.36,0
169,170.82,161.43,0
172,170.84,161.54,0
168,170.79,161.61,0
168,170.73,161.67,0
167,170.66,161.72,0
169,170.62,161.80,0
169,170.59,161.87,0
167,170.52,161.92,0
167,170.45,161.97,0
167,170.38,162.02,0
167,170.31,162.07,0
166,170.23,162.11,0
167,170.16,162.16,0
167,170.10,162.21,0
165,170.00,162.23,0
167,169.94,162.28,0
168,169.90,162.34,0
165,169.80,162.37,0
167,169.74,162.41,0
165,169.65,162.44,0
166,169.58,162.47,0
165,169.48,162.50,0
165,169.40,162.52,0
165,169.31,162.55,0
165,169.22,162.57,0
165,169.14,162.60,0
165,169.05,162.62,0
165,168.97,162.64,0
164,168.87,162.66,0
165,168.80,162.68,0
163,168.68,162.69,0
165,168.61,162.71,0
163,168.49,162.71,0
164,168.40,162.72,0
163,168.30,162.73,0
163,168.19,162.73,0
163,168.09,162.73,0
164,168.00,162.74,0
163,167.90,162.75,0
162,167.79,162.74,0
161,167.65,162.72,0
162,167.54,162.72,0
163,167.45,162.72,0
162,167.34,162.71,0
161,167.21,162.69,0
162,167.11,162.69,0
161,166.99,162.67,0
161,166.87,162.65,0
164,166.81,162.67,0
161,166.69,162.65,0
161,166.58,162.63,0
161,166.47,162.62,0
161,166.36,162.60,0
161,166.25,162.59,0
160,166.13,162.56,0
160,166.00,162.53,0
159,165.86,162.50,0
160,165.75,162.47,0
160,165.63,162.45,0
159,165.50,162.41,0
160,165.39,162.39,0
161,165.30,162.38,0
160,165.19,162.35,0
159,165.07,162.32,0
158,164.93,162.28,0
160,164.83,162.25,0
157,164.67,162.20,0
158,164.54,162.16,0
157,164.39,162.11,0
159,164.28,162.08,0
157,164.14,162.03,0
157,163.99,161.97,0
157,163.85,161.93,0
157,163.72,161.88,0
157,163.58,161.83,0
156,163.43,161.77,0
156,163.28,161.71,0
156,163.14,161.65,0
157,163.01,161.61,0
156,162.87,161.55,0
157,162.76,161.51,0
155,162.60,161.44,0
156,162.47,161.39,0
156,162.34,161.33,0
155,162.19,161.27,0
154,162.03,161.20,0
156,161.91,161.14,0
155,161.77,161.08,0
154,161.61,161.01,0
153,161.44,160.93,0
154,161.29,160.86,0
154,161.15,160.79,0
154,161.00,160.73,0
155,160.88,160.67,0
154,160.75,160.60,0
157,160.67,160.57,1
153,160.52,160.49,1
153,160.37,160.42,2
153,160.22,160.34,2
153,160.08,160.27,2
153,159.93,160.20,2
154,159.82,160.13,2
153,159.68,160.06,2
153,159.55,159.99,2
153,159.42,159.92,2
152,159.27,159.84,2
153,159.14,159.77,2
152,159.00,159.70,2
151,158.84,159.61,2
151,158.68,159.52,2
151,158.53,159.44,2
151,158.38,159.35,2
151,158.23,159.27,2
150,158.07,159.18,2
150,157.90,159.09,2
150,157.75,158.99,2
150,157.59,158.90,2
149,157.42,158.81,2
149,157.25,158.71,2
149,157.09,158.61,2
148,156.90,158.50,2
149,156.75,158.41,2
149,156.59,158.32,2
149,156.44,158.22,2
148,156.27,158.12,2
148,156.11,158.02,2
148,155.94,157.92,2
148,155.78,157.82,2
147,155.61,157.71,2
148,155.46,157.61,2
147,155.29,157.51,2
147,155.12,157.40,2
147,154.96,157.30,2
147,154.80,157.20,2
147,154.64,157.09,2
147,154.49,156.99,2
145,154.30,156.87,2
145,154.12,156.75,2
145,153.93,156.64,2
146,153.77,156.53,2
145,153.60,156.42,2
145,153.43,156.30,2
145,153.26,156.19,2
145,153.09,156.08,2
145,152.93,155.97,2
144,152.75,155.85,2
143,152.56,155.72,2
144,152.39,155.60,2
144,152.22,155.48,2
144,152.05,155.37,2
147,151.95,155.29,2
143,151.77,155.16,2
145,151.64,155.06,2
144,151.49,154.95,2
143,151.32,154.83,2
143,151.15,154.71,2
143,150.99,154.60,2
143,150.83,154.48,2
143,150.67,154.36,2
142,150.50,154.24,2
142,150.33,154.12,2
143,150.18,154.01,2
143,150.04,153.90,2
142,149.88,153.78,2
141,149.70,153.65,2
141,149.52,153.52,2
138,149.29,153.37,2
142,149.15,153.26,2
141,148.99,153.13,2
141,148.83,153.01,2
141,148.67,152.89,2
142,148.54,152.78,2
141,148.39,152.66,2
140,148.22,152.54,2
140,148.05,152.41,2
140,147.89,152.29,2
141,147.75,152.18,2
140,147.60,152.05,2
140,147.45,151.93,2
140,147.30,151.81,2
140,147.15,151.70,2
140,147.01,151.58,2
141,146.89,151.47,2
139,146.73,151.35,2
141,146.62,151.24,2
140,146.48,151.13,2
139,146.33,151.01,2
138,146.17,150.88,2
140,146.04,150.77,2
139,145.90,150.65,2
139,145.77,150.54,2
138,145.61,150.41,2
137,145.44,150.28,2
139,145.31,150.17,2
138,145.16,150.04,2
137,145.00,149.91,2
137,144.84,149.78,2
137,144.68,149.66,2
137,144.53,149.53,2
137,144.38,149.40,2
137,144.23,149.28,2
137,144.09,149.16,2
137,143.95,149.04,2
137,143.81,148.92,2
136,143.65,148.79,2
136,143.50,148.66,2
136,143.35,148.53,2
136,143.20,148.41,2
136,143.06,148.28,2
135,142.90,148.15,2
136,142.76,148.03,2
135,142.60,147.90,2
135,142.45,147.77,2
135,142.30,147.64,2
133,142.11,147.50,2
135,141.97,147.37,2
135,141.83,147.25,2
134,141.68,147.11,2
134,141.52,146.98,2
135,141.39,146.86,2
135,141.26,146.74,2
133,141.10,146.61,2
133,140.94,146.47,2
133,140.78,146.34,2
135,140.66,146.22,2
133,140.51,146.09,2
133,140.36,145.96,2
135,140.25,145.85,2
133,140.11,145.72,2
135,140.01,145.61,2
134,139.89,145.50,2
133,139.75,145.37,2
133,139.61,145.25,2
133,139.48,145.13,2
133,139.35,145.01,2
133,139.22,144.89,2
131,139.06,144.75,2
135,138.98,144.65,2
133,138.86,144.53,2
133,138.74,144.42,2
132,138.61,144.29,2
131,138.45,144.16,2
133,138.35,144.05,2
134,138.26,143.95,2
135,138.19,143.86,2
133,138.09,143.75,2
133,137.99,143.64,2
133,137.89,143.54,2
133,137.79,143.43,2
131,137.65,143.31,2
132,137.54,143.19,2
132,137.43,143.08,2
132,137.32,142.97,2
131,137.20,142.85,2
133,137.11,142.75,2
132,137.01,142.65,2
131,136.89,142.53,2
129,136.73,142.39,2
131,136.62,142.28,2
131,136.50,142.17,2
131,136.39,142.06,2
130,136.27,141.93,2
129,136.12,141.81,2
129,135.98,141.68,2
130,135.86,141.56,2
130,135.74,141.44,2
130,135.63,141.33,2
129,135.49,141.21,2
129,135.36,141.09,2
131,135.28,140.98,2
129,135.15,140.86,2
129,135.03,140.75,2
128,134.89,140.62,2
128,134.75,140.49,2
129,134.64,140.38,2
128,134.50,140.25,2
127,134.35,140.12,2
127,134.21,139.99,2
128,134.08,139.87,2
127,133.94,139.74,2
128,133.82,139.62,2
127,133.68,139.50,2
127,133.55,139.37,2
128,133.44,139.26,2
127,133.31,139.14,2
127,133.18,139.01,2
127,133.06,138.89,2
126,132.92,138.77,2
127,132.80,138.65,2
125,132.65,138.51,2
126,132.51,138.39,2
127,132.40,138.27,2
126,132.27,138.15,2
125,132.13,138.02,2
125,131.99,137.89,2
125,131.85,137.76,2
125,131.71,137.63,2
126,131.60,137.52,2
125,131.46,137.39,2
128,131.39,137.30,2
125,131.27,137.17,2
125,131.14,137.05,2
125,131.02,136.93,2
124,130.88,136.80,2
125,130.76,136.68,2
124,130.63,136.56,2
125,130.51,136.44,2
126,130.42,136.34,2
124,130.29,136.21,2
124,130.17,136.09,2
125,130.06,135.98,2
125,129.96,135.87,2
125,129.86,135.76,2
124,129.75,135.64,2
125,129.65,135.54,2
125,129.56,135.43,2
125,129.47,135.33,2
123,129.34,135.20,2
125,129.25,135.10,2
124,129.15,134.99,2
125,129.06,134.89,2
124,128.96,134.78,2
124,128.86,134.68,2
125,128.79,134.58,2
124,128.69,134.47,2
124,128.60,134.37,2
123,128.48,134.25,2
123,128.37,134.14,2
123,128.27,134.03,2
123,128.16,133.92,2
123,128.06,133.81,2
123,127.96,133.70,2
123,127.86,133.60,2
123,127.76,133.49,2
123,127.67,133.38,2
124,127.59,133.29,2
123,127.50,133.19,2
123,127.41,133.09,2
121,127.28,132.97,2
122,127.18,132.86,2
122,127.07,132.75,2
121,126.95,132.63,2
121,126.83,132.51,2
123,126.76,132.42,2
123,126.68,132.32,2
121,126.57,132.21,2
122,126.48,132.11,2
123,126.41,132.02,2
121,126.30,131.91,2
121,126.19,131.80,2
121,126.09,131.69,2
121,125.99,131.58,2
121,125.89,131.48,2
121,125.79,131.37,2
121,125.69,131.27,2
120,125.58,131.16,2
122,125.51,131.06,2
120,125.40,130.95,2
120,125.29,130.84,2
120,125.18,130.74,2
120,125.08,130.63,2
120,124.98,130.52,2
121,124.90,130.43,2
120,124.80,130.32,2
119,124.69,130.21,2
120,124.59,130.11,2
120,124.50,130.01,2
121,124.43,129.92,2
119,124.32,129.81,2
118,124.19,129.69,2
119,124.09,129.58,2
119,123.99,129.48,2
119,123.89,129.37,2
119,123.79,129.27,2
119,123.70,129.17,2
118,123.58,129.05,2
119,123.49,128.95,2
119,123.40,128.85,2
119,123.31,128.76,2
118,123.21,128.65,2
119,123.12,128.55,2
120,123.06,128.47,2
119,122.98,128.37,2
118,122.88,128.27,2
117,122.76,128.15,2
119,122.69,128.06,2
119,122.61,127.97,2
118,122.52,127.87,2
119,122.45,127.78,2
117,122.34,127.68,2
118,122.25,127.58,2
117,122.15,127.47,2
117,122.05,127.37,2
117,121.94,127.27,2
117,121.85,127.16,2
116,121.73,127.05,2
117,121.63,126.95,2
116,121.52,126.84,2
116,121.41,126.73,2
117,121.32,126.64,2
117,121.24,126.54,2
117,121.15,126.44,2
116,121.05,126.34,2
115,120.93,126.23,2
115,120.81,126.11,2
117,120.73,126.02,2
115,120.62,125.91,2
115,120.51,125.80,2
116,120.42,125.70,2
113,120.27,125.58,2
116,120.18,125.48,2
115,120.08,125.38,2
116,120.00,125.28,2
115,119.90,125.18,2
115,119.80,125.08,2
115,119.70,124.98,2
115,119.61,124.88,2
115,119.52,124.78,2
116,119.45,124.69,2
116,119.38,124.60,2
117,119.33,124.53,2
115,119.24,124.43,2
116,119.18,124.35,2
115,119.10,124.26,2
115,119.01,124.16,2
115,118.93,124.07,2
115,118.85,123.98,2
115,118.78,123.89,2
115,118.70,123.80,2
115,118.63,123.71,2
114,118.54,123.62,2
113,118.42,123.51,2
115,118.36,123.43,2
116,118.31,123.35,2
114,118.22,123.26,2
114,118.14,123.17,2
114,118.06,123.07,2
115,117.99,122.99,2
113,117.89,122.89,2
113,117.80,122.79,2
113,117.70,122.70,2
113,117.61,122.60,2
115,117.55,122.52,2
114,117.48,122.44,2
113,117.39,122.34,2
113,117.31,122.25,2
115,117.26,122.18,2
113,117.17,122.09,2
117,117.17,122.03,2
113,117.09,121.94,2
113,117.01,121.86,2
114,116.95,121.78,2
114,116.89,121.70,2
113,116.81,121.61,2
115,116.77,121.55,2
113,116.70,121.46,2
113,116.62,121.38,2
113,116.55,121.29,2
113,116.48,121.21,2
112,116.39,121.12,2
113,116.32,121.04,2
113,116.26,120.96,2
112,116.17,120.87,2
113,116.11,120.79,2
112,116.03,120.70,2
113,115.97,120.62,2
113,115.91,120.55,2
112,115.83,120.46,2
111,115.73,120.37,2
111,115.64,120.27,2
111,115.54,120.18,2
111,115.45,120.09,2
111,115.36,120.00,2
111,115.28,119.91,2
111,115.19,119.82,2
112,115.13,119.74,2
111,115.04,119.65,2
111,114.96,119.57,2
111,114.88,119.48,2
111,114.81,119.40,2
111,114.73,119.31,2
111,114.66,119.23,2
111,114.58,119.15,2
111,114.51,119.06,2
111,114.44,118.98,2
111,114.37,118.90,2
110,114.28,118.82,2
111,114.22,118.74,2
111,114.15,118.66,2
109,114.05,118.56,2
110,113.97,118.48,2
109,113.87,118.38,2
109,113.77,118.29,2
110,113.70,118.21,2
109,113.60,118.11,2
109,113.51,118.02,2
109,113.42,117.93,2
109,113.33,117.84,2
109,113.25,117.75,2
109,113.16,117.67,2
109,113.08,117.58,2
107,112.96,117.47,2
108,112.86,117.38,2
109,112.78,117.30,2
108,112.69,117.20,2
108,112.59,117.11,2
108,112.50,117.02,2
109,112.43,116.94,2
108,112.34,116.85,2
108,112.25,116.76,2
108,112.17,116.67,2
107,112.07,116.58,2
108,111.98,116.49,2
107,111.88,116.40,2
108,111.81,116.31,2
108,111.73,116.23,2
109,111.68,116.16,2
107,111.58,116.07,2
108,111.51,115.99,2
107,111.42,115.90,2
107,111.33,115.81,2
107,111.25,115.72,2
106,111.14,115.62,2
107,111.06,115.53,2
107,110.98,115.45,2
107,110.90,115.37,2
107,110.82,115.28,2
105,110.70,115.18,2
107,110.63,115.10,2
108,110.58,115.03,2
107,110.50,114.95,2
106,110.41,114.86,2
106,110.33,114.77,2
106,110.24,114.68,2
107,110.18,114.60,2
108,110.13,114.54,2
106,110.05,114.45,2
105,109.95,114.36,2
106,109.87,114.27,2
106,109.79,114.19,2
105,109.70,114.10,2
107,109.64,114.03,2
108,109.61,113.97,2
105,109.52,113.88,2
105,109.43,113.79,2
105,109.34,113.70,2
106,109.27,113.62,2
105,109.19,113.54,2
105,109.10,113.45,2
106,109.04,113.38,2
105,108.96,113.29,2
105,108.88,113.21,2
105,108.80,113.13,2
105,108.73,113.05,2
105,108.65,112.97,2
105,108.58,112.89,2
106,108.53,112.82,2
104,108.44,112.73,2
102,108.31,112.62,2
105,108.24,112.55,2
104,108.16,112.46,2
104,108.07,112.38,2
104,107.99,112.29,2
105,107.93,112.22,2
104,107.85,112.14,2
103,107.76,112.05,2
103,107.66,111.96,2
104,107.59,111.88,2
103,107.50,111.79,2
103,107.41,111.70,2
103,107.32,111.61,2
104,107.25,111.54,2
103,107.17,111.45,2
105,107.12,111.39,2
103,107.04,111.30,2
103,106.96,111.22,2
101,106.84,111.12,2
103,106.76,111.04,2
103,106.69,110.96,2
102,106.60,110.87,2
102,106.50,110.78,2
103,106.43,110.70,2
101,106.32,110.60,2
102,106.24,110.52,2
103,106.17,110.44,2
101,106.07,110.35,2
103,106.01,110.27,2
102,105.93,110.19,2
104,105.89,110.13,2
101,105.79,110.04,2
103,105.74,109.97,2
101,105.64,109.88,2
101,105.55,109.79,2
101,105.46,109.70,2
102,105.39,109.62,2
102,105.32,109.55,2
101,105.23,109.46,2
105,105.23,109.42,2
101,105.15,109.33,2
101,105.06,109.25,2
102,105.00,109.18,2
103,104.96,109.12,2
101,104.88,109.04,2
101,104.80,108.96,2
101,104.73,108.88,2
103,104.69,108.82,2
101,104.62,108.74,2
101,104.55,108.66,2
101,104.48,108.58,2
101,104.41,108.51,2
101,104.34,108.43,2
100,104.25,108.35,2
100,104.17,108.27,2
100,104.08,108.18,2
101,104.02,108.11,2
99,103.92,108.02,2
100,103.84,107.94,2
100,103.77,107.86,2
100,103.69,107.78,2
101,103.64,107.71,2
100,103.56,107.64,2
101,103.51,107.57,2
100,103.44,107.50,2
101,103.39,107.43,2
101,103.35,107.37,2
102,103.32,107.31,2
101,103.27,107.25,2
101,103.23,107.19,2
101,103.18,107.12,2
101,103.14,107.06,2
101,103.10,107.00,2
101,103.05,106.94,2
100,102.99,106.87,2
101,102.95,106.81,2
101,102.91,106.76,2
100,102.86,106.69,2
100,102.80,106.62,2
99,102.72,106.55,2
99,102.65,106.47,2
100,102.60,106.41,2
100,102.54,106.34,2
100,102.49,106.28,2
100,102.44,106.22,2
100,102.39,106.15,2
101,102.37,106.10,2
99,102.30,106.03,2
99,102.23,105.96,2
101,102.21,105.91,2
101,102.18,105.86,2
99,102.12,105.79,2
100,102.08,105.74,2
101,102.06,105.69,2
100,102.02,105.63,2
101,101.99,105.58,2
99,101.94,105.52,2
100,101.90,105.46,2
101,101.88,105.42,2
100,101.84,105.36,2
101,101.82,105.32,2
100,101.79,105.27,2
101,101.77,105.23,2
101,101.76,105.18,2
100,101.72,105.13,2
100,101.69,105.08,2
101,101.67,105.04,2
101,101.66,105.00,2
101,101.65,104.96,2
101,101.63,104.92,2
99,101.58,104.86,2
99,101.53,104.80,2
99,101.48,104.74,2
99,101.43,104.69,2
98,101.36,104.62,2
100,101.33,104.57,2
99,101.29,104.52,2
100,101.26,104.47,2
100,101.24,104.43,2
99,101.19,104.37,2
99,101.15,104.32,2
100,101.12,104.28,2
99,101.08,104.22,2
100,101.06,104.18,2
99,101.02,104.13,2
99,100.98,104.08,2
99,100.94,104.03,2
99,100.90,103.98,2
98,100.84,103.92,2
101,100.85,103.89,2
99,100.81,103.84,2
99,100.77,103.79,2
99,100.74,103.74,2
99,100.70,103.70,2
98,100.65,103.64,2
101,100.66,103.61,2
100,100.64,103.58,2
99,100.61,103.53,2
98,100.56,103.47,2
99,100.53,103.43,2
98,100.48,103.38,2
100,100.47,103.34,2
99,100.44,103.30,2
99,100.41,103.26,2
99,100.38,103.21,2
98,100.33,103.16,2
100,100.33,103.13,2
101,100.34,103.11,2
99,100.31,103.07,2
99,100.29,103.03,2
100,100.28,103.00,2
100,100.27,102.97,2
99,100.25,102.93,2
99,100.22,102.89,2
99,100.20,102.85,2
99,100.18,102.81,2
98,100.13,102.76,2
100,100.13,102.73,2
100,100.13,102.71,2
98,100.08,102.66,2
99,100.06,102.62,2
99,100.04,102.59,2
99,100.02,102.55,2
98,99.98,102.51,2
99,99.96,102.47,2
99,99.94,102.44,2
100,99.94,102.41,2
100,99.94,102.39,2
99,99.92,102.35,2
100,99.93,102.33,2
97,99.87,102.28,2
99,99.85,102.24,2
99,99.83,102.21,2
101,99.86,102.20,2
100,99.86,102.18,2
102,99.90,102.18,2
100,99.90,102.15,2
99,99.89,102.12,2
100,99.89,102.10,2
100,99.89,102.08,2
99,99.87,102.05,2
100,99.88,102.03,2
101,99.90,102.02,2
99,99.88,101.99,2
99,99.86,101.96,2
102,99.91,101.96,2
101,99.93,101.95,2
101,99.95,101.94,2
100,99.95,101.92,2
101,99.97,101.91,2
100,99.97,101.89,2
100,99.97,101.87,2
100,99.97,101.85,2
100,99.97,101.84,2
104,100.05,101.86,2
101,100.07,101.85,2
102,100.11,101.85,2
101,100.13,101.84,2
101,100.15,101.83,2
97,100.08,101.79,2
102,100.12,101.79,2
100,100.12,101.77,2
100,100.12,101.75,2
101,100.13,101.74,2
101,100.15,101.74,2
102,100.19,101.74,2
103,100.24,101.75,2
103,100.30,101.76,2
101,100.31,101.76,2
101,100.33,101.75,2
101,100.34,101.74,2
101,100.35,101.73,2
101,100.37,101.73,2
103,100.42,101.74,2
103,100.47,101.75,2
102,100.50,101.75,2
103,100.55,101.77,2
101,100.56,101.76,2
101,100.57,101.75,2
101,100.58,101.74,2
102,100.61,101.75,2
101,100.61,101.74,2
105,100.70,101.77,2
101,100.71,101.76,2
102,100.73,101.77,2
101,100.74,101.76,2
101,100.74,101.75,2
103,100.79,101.76,2
102,100.81,101.77,2
103,100.86,101.78,2
101,100.86,101.77,2
101,100.86,101.76,2
104,100.93,101.79,2
103,100.97,101.80,2
101,100.97,101.79,2
103,101.01,101.80,2
104,101.07,101.82,2
103,101.11,101.84,2
100,101.09,101.82,2
102,101.10,101.82,2
103,101.14,101.83,2
105,101.22,101.86,2
108,101.35,101.92,2
105,101.43,101.95,2
106,101.52,102.00,2
107,101.63,102.05,2
106,101.72,102.08,2
105,101.78,102.11,2
107,101.89,102.16,2
105,101.95,102.19,2
105,102.01,102.22,2
105,102.07,102.25,2
105,102.13,102.27,2
105,102.18,102.30,2
105,102.24,102.33,2
105,102.30,102.36,2
105,102.35,102.38,2
105,102.40,102.41,2
105,102.46,102.43,2
107,102.55,102.48,2
106,102.62,102.51,2
106,102.68,102.55,2
106,102.75,102.58,2
108,102.85,102.64,2
107,102.94,102.68,2
107,103.02,102.73,2
107,103.10,102.77,2
107,103.18,102.81,2
107,103.25,102.85,2
110,103.39,102.92,2
110,103.52,102.99,2
108,103.61,103.04,2
109,103.72,103.10,2
109,103.82,103.16,2
109,103.93,103.22,2
109,104.03,103.28,2
110,104.15,103.35,2
110,104.26,103.41,2
109,104.36,103.47,2
109,104.45,103.52,2
110,104.56,103.59,2
110,104.67,103.65,2
109,104.76,103.71,2
109,104.84,103.76,2
111,104.97,103.83,2
111,105.09,103.90,2
110,105.19,103.96,2
112,105.32,104.04,2
113,105.48,104.13,2
111,105.59,104.20,2
111,105.69,104.27,2
111,105.80,104.34,2
112,105.92,104.41,2
112,106.05,104.49,2
111,106.14,104.56,2
113,106.28,104.64,2
113,106.42,104.72,2
115,106.59,104.83,2
115,106.76,104.93,2
115,106.92,105.03,2
115,107.08,105.13,2
113,107.20,105.21,2
114,107.34,105.30,2
113,107.45,105.37,2
113,107.56,105.45,2
115,107.71,105.54,2
116,107.88,105.65,2
114,108.00,105.73,2
116,108.16,105.84,2
118,108.36,105.96,2
116,108.51,106.06,2
115,108.64,106.15,2
116,108.79,106.25,2
118,108.97,106.36,2
117,109.13,106.47,2
116,109.27,106.56,2
117,109.42,106.67,2
117,109.57,106.77,2
117,109.72,106.87,2
116,109.85,106.97,2
116,109.97,107.06,2
115,110.07,107.14,2
115,110.17,107.21,2
117,110.31,107.31,2
116,110.42,107.40,2
116,110.53,107.48,2
115,110.62,107.56,2
117,110.75,107.65,2
119,110.91,107.77,2
119,111.08,107.88,2
117,111.19,107.97,2
117,111.31,108.06,2
117,111.42,108.15,2
117,111.54,108.24,2
115,111.60,108.31,2
118,111.73,108.40,2
117,111.84,108.49,2
119,111.98,108.60,2
117,112.08,108.68,2
118,112.20,108.77,2
118,112.32,108.86,2
118,112.43,108.96,2
117,112.52,109.04,2
119,112.65,109.14,2
118,112.76,109.22,2
118,112.86,109.31,2
119,112.99,109.41,2
121,113.15,109.53,2
119,113.26,109.62,2
119,113.38,109.71,2
119,113.49,109.81,2
121,113.64,109.92,2
121,113.79,110.03,2
121,113.93,110.14,2
121,114.07,110.25,2
124,114.27,110.39,2
124,114.47,110.52,2
123,114.64,110.65,2
123,114.80,110.77,2
121,114.93,110.87,2
124,115.11,111.00,2
124,115.29,111.13,2
123,115.44,111.25,2
124,115.61,111.38,2
121,115.72,111.48,2
123,115.87,111.59,2
123,116.01,111.70,2
124,116.17,111.83,2
123,116.31,111.94,2
125,116.48,112.07,2
124,116.63,112.19,2
127,116.84,112.34,2
126,117.02,112.47,2
125,117.18,112.60,2
124,117.32,112.71,2
123,117.43,112.82,2
123,117.54,112.92,2
123,117.65,113.02,2
123,117.76,113.12,2
123,117.86,113.22,2
124,117.98,113.33,2
125,118.13,113.44,2
125,118.26,113.56,2
123,118.36,113.65,2
126,118.51,113.78,2
125,118.64,113.89,2
125,118.77,114.00,2
124,118.87,114.10,2
125,118.99,114.21,2
125,119.11,114.32,2
125,119.23,114.42,2
127,119.39,114.55,2
126,119.52,114.66,2
125,119.63,114.77,2
126,119.76,114.88,2
126,119.88,114.99,2
125,119.98,115.09,2
125,120.08,115.19,2
126,120.20,115.30,2
127,120.34,115.41,2
127,120.47,115.53,2
126,120.58,115.63,2
129,120.75,115.77,2
127,120.88,115.88,2
129,121.04,116.01,2
126,121.14,116.11,2
128,121.27,116.23,2
129,121.43,116.36,2
128,121.56,116.47,2
129,121.71,116.60,2
129,121.86,116.72,2
128,121.98,116.84,2
130,122.14,116.97,2
130,122.30,117.10,2
130,122.45,117.23,2
129,122.58,117.35,2
131,122.75,117.48,2
132,122.93,117.63,2
131,123.10,117.76,2
133,123.29,117.91,2
133,123.49,118.06,2
132,123.66,118.20,2
134,123.87,118.36,2
133,124.05,118.51,2
133,124.23,118.65,2
133,124.40,118.80,2
133,124.57,118.94,2
132,124.72,119.07,2
137,124.97,119.25,2
137,125.21,119.43,2
136,125.42,119.59,2
137,125.66,119.77,2
135,125.84,119.92,2
138,126.09,120.10,2
137,126.30,120.27,2
137,126.52,120.44,2
137,126.73,120.60,2
135,126.89,120.74,2
137,127.10,120.91,2
137,127.29,121.07,2
137,127.49,121.23,2
137,127.68,121.39,2
139,127.90,121.56,2
137,128.09,121.72,2
140,128.32,121.90,2
139,128.54,122.07,2
141,128.79,122.26,2
139,128.99,122.43,2
141,129.23,122.61,2
142,129.49,122.81,2
143,129.76,123.01,2
141,129.98,123.19,2
140,130.18,123.36,2
141,130.40,123.53,2
141,130.61,123.71,2
143,130.86,123.90,2
146,131.16,124.12,2
145,131.44,124.33,2
146,131.73,124.55,2
148,132.06,124.78,2
146,132.33,124.99,2
153,132.75,125.27,2
149,133.07,125.51,2
149,133.39,125.75,2
147,133.66,125.96,2
149,133.97,126.19,2
148,134.25,126.41,2
149,134.55,126.63,2
147,134.79,126.84,2
151,135.12,127.08,2
153,135.48,127.34,2
156,135.89,127.62,2
152,136.21,127.87,2
155,136.58,128.14,2
155,136.95,128.41,2
153,137.27,128.65,2
154,137.61,128.91,2
155,137.96,129.17,2
153,138.26,129.41,2
153,138.55,129.64,2
157,138.92,129.92,2
155,139.24,130.17,2
157,139.60,130.43,2
156,139.93,130.69,2
157,140.27,130.95,2
157,140.60,131.21,2
158,140.95,131.48,2
157,141.27,131.74,2
158,141.61,132.00,2
159,141.95,132.27,2
158,142.27,132.53,2
158,142.59,132.78,2
161,142.96,133.06,2
161,143.32,133.34,2
160,143.65,133.61,2
159,143.96,133.86,2
160,144.28,134.13,2
161,144.61,134.39,2
159,144.90,134.64,2
160,145.20,134.89,2
161,145.52,135.15,2
161,145.83,135.41,2
163,146.17,135.69,2
165,146.55,135.98,2
163,146.88,136.25,2
163,147.20,136.52,2
164,147.54,136.79,2
166,147.91,137.09,2
164,148.23,137.36,2
165,148.56,137.63,2
164,148.87,137.90,2
166,149.21,138.18,2
168,149.59,138.48,2
165,149.90,138.74,2
168,150.26,139.03,2
165,150.56,139.29,2
165,150.84,139.55,2
167,151.17,139.82,2
168,151.50,140.11,2
165,151.77,140.35,2
168,152.10,140.63,2
171,152.48,140.94,2
170,152.83,141.23,2
169,153.15,141.50,2
168,153.45,141.77,2
169,153.76,142.04,2
172,154.12,142.34,2
169,154.42,142.61,2
170,154.73,142.88,2
169,155.02,143.14,2
169,155.30,143.40,2
169,155.57,143.66,2
168,155.82,143.90,2
168,156.06,144.14,2
171,156.36,144.41,2
170,156.64,144.67,2
168,156.86,144.90,2
169,157.11,145.14,2
169,157.34,145.38,2
169,157.58,145.61,2
172,157.86,145.88,2
175,158.21,146.17,2
171,158.46,146.42,2
171,158.71,146.66,2
173,159.00,146.93,2
171,159.24,147.17,2
173,159.51,147.43,2
173,159.78,147.68,2
172,160.03,147.93,2
173,160.29,148.18,2
173,160.54,148.42,2
173,160.79,148.67,2
173,161.04,148.91,2
172,161.26,149.14,2
173,161.49,149.38,2
173,161.72,149.62,2
173,161.95,149.85,2
173,162.17,150.08,2
172,162.36,150.30,2
175,162.62,150.55,2
172,162.80,150.76,2
173,163.01,150.99,2
173,163.21,151.21,2
173,163.40,151.43,2
175,163.64,151.66,2
173,163.82,151.87,2
172,163.99,152.08,2
174,164.19,152.29,2
172,164.34,152.49,2
174,164.54,152.71,2
175,164.75,152.93,2
175,164.95,153.15,2
177,165.19,153.39,2
178,165.45,153.64,2
177,165.68,153.87,2
176,165.89,154.09,2
176,166.09,154.31,2
177,166.31,154.54,2
178,166.54,154.77,2
177,166.75,154.99,2
176,166.93,155.20,2
175,167.10,155.40,2
175,167.25,155.60,2
176,167.43,155.80,2
176,167.60,156.00,2
177,167.79,156.21,2
175,167.93,156.40,2
175,168.07,156.59,2
176,168.23,156.78,2
175,168.37,156.96,2
176,168.52,157.15,2
175,168.65,157.33,2
177,168.82,157.53,2
177,168.98,157.72,2
183,169.26,157.98,2
181,169.50,158.21,2
181,169.73,158.43,2
186,170.05,158.71,2
188,170.41,159.00,2
187,170.74,159.28,2
184,171.01,159.53,2
185,171.29,159.78,2
185,171.56,160.04,2
189,171.91,160.33,2
192,172.31,160.64,2
188,172.63,160.92,2
192,173.01,161.23,2
190,173.35,161.52,2
189,173.67,161.79,2
188,173.95,162.05,2
189,174.25,162.32,2
187,174.51,162.57,2
189,174.80,162.83,2
188,175.06,163.08,2
187,175.30,163.32,2
187,175.53,163.56,2
186,175.74,163.79,2
186,175.95,164.01,2
187,176.17,164.24,2
187,176.39,164.46,2
186,176.58,164.68,2
185,176.75,164.88,2
186,176.93,165.09,2
187,177.13,165.31,2
185,177.29,165.51,2
187,177.49,165.73,2
185,177.64,165.92,2
185,177.78,166.11,2
185,177.93,166.30,2
184,178.05,166.47,2
183,178.15,166.64,2
184,178.26,166.81,2
184,178.38,166.99,2
185,178.51,167.17,2
183,178.60,167.32,2
184,178.71,167.49,2
181,178.76,167.63,2
183,178.84,167.78,2
183,178.92,167.93,2
182,178.99,168.07,2
181,179.03,168.20,2
182,179.08,168.34,2
183,179.16,168.49,2
183,179.24,168.63,2
185,179.36,168.80,2
183,179.43,168.94,2
182,179.48,169.07,2
184,179.57,169.22,2
185,179.68,169.38,2
185,179.78,169.53,2
185,179.89,169.69,2
184,179.97,169.83,2
185,180.07,169.98,2
185,180.17,170.13,2
184,180.25,170.27,2
183,180.30,170.40,2
184,180.38,170.53,2
184,180.45,170.67,2
183,180.50,170.79,2
183,180.55,170.91,2
183,180.60,171.03,2
183,180.65,171.15,2
183,180.69,171.27,2
183,180.74,171.39,2
181,180.75,171.49,2
183,180.79,171.60,2
181,180.79,171.69,2
181,180.80,171.79,2
181,180.80,171.88,2
183,180.85,171.99,2
180,180.83,172.07,2
180,180.81,172.15,2
180,180.80,172.23,2
179,180.76,172.30,2
179,180.73,172.36,2
178,180.67,172.42,2
178,180.62,172.48,2
177,180.55,172.52,2
177,180.47,172.57,2
177,180.40,172.61,2
177,180.34,172.65,2
177,180.27,172.70,2
177,180.20,172.74,2
176,180.12,172.77,2
175,180.02,172.80,2
176,179.94,172.83,2
177,179.88,172.87,2
175,179.78,172.89,2
175,179.69,172.91,2
175,179.59,172.93,2
174,179.48,172.94,2
175,179.39,172.96,2
175,179.30,172.98,2
174,179.20,172.99,2
173,179.07,172.99,2
173,178.95,172.99,2
173,178.83,172.99,2
173,178.72,172.99,2
172,178.58,172.98,2
173,178.47,172.98,2
172,178.34,172.97,2
172,178.21,172.97,2
171,178.07,172.95,2
173,177.97,172.95,2
171,177.83,172.93,2
171,177.69,172.91,2
171,177.56,172.89,2
171,177.43,172.87,2
171,177.30,172.85,2
171,177.17,172.83,2
171,177.05,172.81,2
170,176.91,172.79,2
172,176.81,172.78,2
171,176.69,172.76,2
172,176.60,172.75,2
170,176.47,172.73,2
169,176.32,172.69,2
169,176.17,172.65,2
170,176.05,172.62,2
169,175.91,172.59,2
169,175.77,172.55,2
168,175.61,172.51,2
168,175.46,172.46,2
168,175.31,172.42,2
168,175.17,172.37,2
168,175.02,172.33,2
167,174.86,172.28,2
167,174.71,172.22,2
167,174.55,172.17,2
167,174.40,172.12,2
166,174.23,172.06,2
166,174.07,172.00,2
165,173.89,171.93,2
166,173.73,171.87,2
165,173.55,171.80,2
166,173.40,171.74,2
165,173.23,171.67,2
165,173.07,171.61,2
163,172.87,171.52,2
164,172.69,171.45,2
165,172.54,171.38,2
165,172.39,171.32,2
163,172.20,171.23,2
163,172.02,171.15,2
164,171.85,171.08,2
163,171.68,171.00,2
164,171.52,170.93,2
165,171.39,170.87,2
163,171.23,170.79,2
164,171.08,170.72,2
162,170.90,170.64,2
162,170.72,170.55,2
162,170.55,170.46,3
161,170.36,170.37,3
162,170.19,170.29,4
161,170.01,170.19,4
161,169.83,170.10,4
159,169.61,169.99,4
161,169.44,169.90,4
161,169.27,169.81,4
161,169.10,169.72,4
161,168.94,169.64,4
161,168.78,169.55,4
161,168.63,169.46,4
161,168.47,169.38,4
160,168.30,169.29,4
161,168.16,169.20,4
161,168.01,169.12,4
161,167.87,169.04,4
160,167.72,168.95,4
160,167.56,168.86,4
159,167.39,168.76,4
159,167.22,168.66,4
159,167.06,168.57,4
159,166.90,168.47,4
160,166.76,168.39,4
157,166.56,168.27,4
157,166.37,168.16,4
157,166.19,168.05,4
157,166.00,167.94,4
157,165.82,167.83,4
157,165.65,167.72,4
157,165.47,167.61,4
157,165.30,167.51,4
157,165.14,167.40,4
156,164.95,167.29,4
156,164.78,167.18,4
156,164.60,167.06,4
157,164.45,166.96,4
156,164.28,166.85,4
155,164.09,166.73,4
155,163.91,166.62,4
155,163.73,166.50,4
156,163.58,166.40,4
155,163.41,166.28,4
156,163.26,166.18,4
155,163.09,166.07,4
154,162.91,165.95,4
155,162.75,165.84,4
155,162.60,165.73,4
154,162.43,165.61,4
155,162.28,165.51,4
154,162.11,165.39,4
153,161.93,165.27,4
154,161.77,165.15,4
153,161.60,165.03,4
153,161.42,164.91,4
153,161.26,164.79,4
153,161.09,164.68,4
153,160.93,164.56,4
153,160.77,164.44,4
153,160.62,164.33,4
153,160.46,164.22,4
152,160.29,164.09,4
152,160.13,163.97,4
151,159.95,163.84,4
151,159.77,163.71,4
151,159.59,163.59,4
154,159.48,163.49,4
151,159.31,163.37,4
151,159.14,163.24,4
151,158.98,163.12,4
151,158.82,163.00,4
151,158.66,162.88,4
150,158.49,162.75,4
150,158.32,162.62,4
149,158.13,162.49,4
150,157.97,162.36,4
149,157.79,162.23,4
149,157.62,162.10,4
149,157.44,161.96,4
149,157.28,161.83,4
149,157.11,161.71,4
149,156.95,161.58,4
146,156.73,161.42,4
148,156.55,161.29,4
148,156.38,161.16,4
148,156.22,161.03,4
148,156.05,160.89,4
147,155.87,160.76,4
147,155.69,160.62,4
147,155.52,160.48,4
147,155.35,160.35,4
147,155.18,160.21,4
148,155.04,160.09,4
146,154.86,159.95,4
146,154.68,159.81,4
146,154.51,159.67,4
146,154.34,159.54,4
145,154.15,159.39,4
145,153.97,159.25,4
145,153.79,159.10,4
145,153.61,158.96,4
145,153.44,158.82,4
146,153.29,158.70,4
145,153.12,158.56,4
145,152.96,158.42,4
144,152.78,158.28,4
144,152.61,158.14,4
143,152.42,157.98,4
143,152.23,157.83,4
143,152.04,157.69,4
143,151.86,157.54,4
144,151.70,157.40,4
143,151.53,157.26,4
143,151.36,157.12,4
143,151.19,156.98,4
143,151.03,156.84,4
143,150.87,156.70,4
143,150.71,156.56,4
142,150.54,156.42,4
142,150.37,156.27,4
143,150.22,156.14,4
146,150.13,156.04,4
143,149.99,155.91,4
142,149.83,155.77,4
143,149.69,155.64,4
142,149.54,155.50,4
141,149.37,155.36,4
141,149.20,155.22,4
141,149.04,155.07,4
141,148.88,154.93,4
141,148.72,154.79,4
141,148.57,154.66,4
140,148.39,154.51,4
139,148.21,154.35,4
142,148.08,154.23,4
141,147.94,154.10,4
141,147.80,153.97,4
141,147.67,153.84,4
141,147.53,153.71,4
141,147.40,153.58,4
140,147.25,153.45,4
141,147.13,153.32,4
140,146.99,153.19,4
140,146.85,153.06,4
140,146.71,152.93,4
140,146.58,152.80,4
139,146.42,152.66,4
139,146.28,152.52,4
139,146.13,152.39,4
139,145.99,152.25,4
139,145.85,152.12,4
139,145.71,151.99,4
137,145.54,151.84,4
137,145.37,151.69,4
137,145.20,151.54,4
137,145.03,151.40,4
137,144.87,151.25,4
136,144.70,151.10,4
137,144.54,150.96,4
137,144.39,150.82,4
140,144.30,150.71,4
137,144.16,150.58,4
137,144.01,150.44,4
137,143.87,150.31,4
136,143.72,150.16,4
138,143.60,150.04,4
137,143.47,149.91,4
137,143.34,149.78,4
137,143.21,149.65,4
136,143.07,149.52,4
137,142.95,149.39,4
136,142.81,149.26,4
136,142.67,149.13,4
136,142.54,148.99,4
136,142.41,148.86,4
135,142.26,148.73,4
135,142.12,148.59,4
135,141.97,148.45,4
135,141.83,148.32,4
133,141.66,148.16,4
136,141.54,148.04,4
134,141.39,147.90,4
134,141.25,147.76,4
135,141.12,147.64,4
135,141.00,147.51,4
135,140.88,147.38,4
133,140.72,147.24,4
134,140.59,147.11,4
134,140.45,146.98,4
134,140.33,146.85,4
133,140.18,146.71,4
133,140.04,146.57,4
133,139.89,146.44,4
133,139.76,146.30,4
133,139.62,146.17,4
133,139.49,146.04,4
134,139.38,145.92,4
131,139.21,145.77,4
133,139.09,145.64,4
133,138.97,145.51,4
134,138.87,145.40,4
132,138.73,145.26,4
133,138.61,145.14,4
133,138.50,145.02,4
131,138.35,144.88,4
131,138.21,144.74,4
131,138.06,144.60,4
131,137.92,144.47,4
131,137.78,144.33,4
131,137.65,144.20,4
131,137.51,144.07,4
132,137.40,143.95,4
131,137.27,143.82,4
131,137.15,143.69,4
130,137.01,143.55,4
128,136.83,143.40,4
130,136.69,143.26,4
132,136.60,143.15,4
131,136.48,143.03,4
131,136.37,142.91,4
130,136.25,142.78,4
131,136.14,142.66,4
130,136.02,142.54,4
130,135.90,142.41,4
129,135.76,142.28,4
129,135.63,142.14,4
129,135.49,142.01,4
130,135.38,141.89,4
130,135.28,141.77,4
130,135.17,141.65,4
129,135.05,141.53,4
128,134.91,141.39,4
129,134.79,141.27,4
129,134.67,141.15,4
129,134.56,141.02,4
129,134.45,140.90,4
129,134.34,140.79,4
129,134.23,140.67,4
128,134.11,140.54,4
128,133.98,140.42,4
128,133.86,140.29,4
129,133.77,140.18,4
128,133.65,140.06,4
127,133.52,139.93,4
128,133.41,139.81,4
128,133.30,139.69,4
127,133.17,139.56,4
127,133.05,139.44,4
127,132.93,139.31,4
127,132.81,139.19,4
127,132.70,139.07,4
127,132.58,138.95,4
125,132.43,138.81,4
127,132.32,138.69,4
127,132.21,138.57,4
127,132.11,138.46,4
125,131.97,138.32,4
125,131.83,138.19,4
126,131.71,138.07,4
125,131.58,137.94,4
127,131.49,137.83,4
126,131.38,137.71,4
125,131.25,137.58,4
126,131.14,137.47,4
127,131.06,137.36,4
126,130.96,137.25,4
125,130.84,137.12,4
126,130.74,137.01,4
125,130.63,136.89,4
125,130.52,136.77,4
127,130.45,136.68,4
125,130.34,136.56,4
125,130.23,136.44,4
125,130.13,136.33,4
125,130.02,136.22,4
125,129.92,136.10,4
124,129.80,135.98,4
124,129.69,135.86,4
124,129.57,135.74,4
125,129.48,135.64,4
123,129.35,135.51,4
125,129.27,135.41,4
123,129.14,135.28,4
124,129.04,135.17,4
124,128.94,135.06,4
124,128.84,134.95,4
123,128.72,134.83,4
125,128.65,134.73,4
123,128.53,134.61,4
123,128.42,134.50,4
121,128.28,134.36,4
123,128.17,134.25,4
124,128.09,134.14,4
123,127.98,134.03,4
121,127.85,133.90,4
122,127.73,133.78,4
121,127.59,133.66,4
121,127.46,133.53,4
121,127.33,133.40,4
121,127.21,133.28,4
121,127.08,133.16,4
121,126.96,133.04,4
123,126.88,132.94,4
121,126.76,132.82,4
120,126.63,132.69,4
121,126.52,132.57,4
121,126.41,132.46,4
121,126.30,132.34,4
121,126.19,132.23,4
123,126.13,132.14,4
121,126.02,132.02,4
121,125.92,131.91,4
120,125.81,131.79,4
121,125.71,131.69,4
121,125.62,131.58,4
119,125.48,131.45,4
121,125.39,131.35,4
120,125.29,131.24,4
119,125.16,131.11,4
121,125.08,131.01,4
121,125.00,130.91,4
120,124.90,130.80,4
119,124.78,130.69,4
119,124.66,130.57,4
121,124.59,130.47,4
119,124.48,130.36,4
119,124.37,130.24,4
119,124.26,130.13,4
119,124.15,130.02,4
119,124.05,129.91,4
119,123.95,129.80,4
118,123.83,129.68,4
119,123.74,129.58,4
118,123.62,129.46,4
119,123.53,129.36,4
117,123.40,129.23,4
119,123.31,129.13,4
117,123.18,129.01,4
118,123.08,128.90,4
118,122.98,128.79,4
118,122.88,128.68,4
118,122.78,128.58,4
117,122.67,128.46,4
117,122.55,128.34,4
117,122.44,128.23,4
117,122.33,128.12,4
117,122.23,128.01,4
117,122.12,127.90,4
118,122.04,127.80,4
117,121.94,127.69,4
117,121.84,127.58,4
117,121.74,127.48,4
117,121.65,127.37,4
117,121.55,127.27,4
117,121.46,127.17,4
117,121.37,127.07,4
117,121.29,126.96,4
118,121.22,126.87,4
117,121.14,126.78,4
116,121.03,126.67,4
116,120.93,126.56,4
115,120.81,126.45,4
117,120.74,126.35,4
115,120.62,126.24,4
117,120.55,126.15,4
115,120.44,126.03,4
117,120.37,125.94,4
117,120.30,125.85,4
117,120.24,125.77,4
117,120.17,125.68,4
116,120.09,125.58,4
116,120.01,125.49,4
115,119.91,125.38,4
115,119.81,125.28,4
115,119.71,125.17,4
115,119.62,125.07,4
116,119.55,124.98,4
116,119.48,124.89,4
115,119.39,124.79,4
114,119.28,124.69,4
115,119.19,124.59,4
115,119.11,124.49,4
114,119.01,124.39,4
115,118.93,124.29,4
114,118.83,124.19,4
113,118.71,124.08,4
113,118.60,123.97,4
114,118.51,123.87,4
113,118.40,123.76,4
115,118.33,123.67,4
113,118.22,123.57,4
114,118.14,123.47,4
114,118.05,123.37,4
113,117.95,123.27,4
113,117.85,123.17,4
113,117.76,123.07,4
111,117.62,122.95,4
113,117.53,122.85,4
113,117.44,122.75,4
113,117.35,122.65,4
115,117.30,122.57,4
113,117.22,122.48,4
113,117.13,122.38,4
113,117.05,122.29,4
113,116.97,122.20,4
113,116.89,122.10,4
113,116.81,122.01,4
112,116.72,121.91,4
113,116.64,121.82,4
113,116.57,121.74,4
112,116.48,121.64,4
111,116.37,121.53,4
112,116.28,121.44,4
113,116.21,121.35,4
112,116.13,121.26,4
113,116.07,121.18,4
112,115.99,121.09,4
112,115.91,120.99,4
112,115.83,120.90,4
111,115.73,120.81,4
111,115.64,120.71,4
111,115.54,120.61,4
112,115.47,120.52,4
112,115.40,120.44,4
112,115.34,120.35,4
111,115.25,120.26,4
111,115.16,120.17,4
111,115.08,120.08,4
111,115.00,119.99,4
111,114.92,119.90,4
111,114.84,119.81,4
111,114.76,119.72,4
111,114.69,119.63,4
111,114.62,119.55,4
109,114.50,119.44,4
109,114.39,119.34,4
110,114.30,119.24,4
109,114.20,119.14,4
111,114.13,119.06,4
109,114.03,118.96,4
109,113.93,118.86,4
109,113.83,118.76,4
109,113.74,118.66,4
109,113.64,118.57,4
109,113.55,118.47,4
109,113.46,118.38,4
109,113.37,118.28,4
109,113.28,118.19,4
108,113.18,118.09,4
107,113.05,117.98,4
108,112.95,117.88,4
108,112.85,117.78,4
108,112.75,117.68,4
108,112.66,117.58,4
107,112.55,117.48,4
109,112.48,117.39,4
108,112.39,117.30,4
107,112.28,117.20,4
111,112.25,117.13,4
108,112.17,117.04,4
109,112.10,116.96,4
107,112.00,116.86,4
107,111.90,116.76,4
107,111.80,116.67,4
107,111.71,116.57,4
108,111.63,116.48,4
107,111.54,116.39,4
107,111.45,116.29,4
108,111.38,116.21,4
107,111.29,116.12,4
108,111.23,116.04,4
107,111.14,115.95,4
107,111.06,115.86,4
107,110.98,115.77,4
105,110.86,115.66,4
107,110.78,115.58,4
107,110.71,115.49,4
106,110.61,115.39,4
107,110.54,115.31,4
107,110.47,115.23,4
105,110.36,115.13,4
106,110.27,115.03,4
105,110.17,114.93,4
105,110.06,114.83,4
105,109.96,114.74,4
106,109.88,114.65,4
105,109.79,114.55,4
106,109.71,114.47,4
107,109.66,114.39,4
105,109.56,114.30,4
105,109.47,114.21,4
105,109.38,114.11,4
108,109.35,114.05,4
106,109.29,113.97,4
105,109.20,113.88,4
105,109.12,113.79,4
105,109.04,113.71,4
106,108.97,113.63,4
105,108.90,113.54,4
105,108.82,113.46,4
105,108.74,113.37,4
105,108.67,113.29,4
107,108.63,113.23,4
105,108.56,113.14,4
105,108.49,113.06,4
105,108.42,112.98,4
105,108.35,112.90,4
105,108.28,112.82,4
105,108.22,112.74,4
106,108.17,112.68,4
104,108.09,112.59,4
105,108.03,112.51,4
105,107.97,112.44,4
109,107.99,112.40,4
104,107.91,112.32,4
105,107.85,112.25,4
105,107.79,112.17,4
105,107.74,112.10,4
104,107.66,112.02,4
106,107.63,111.96,4
105,107.58,111.89,4
105,107.53,111.82,4
104,107.46,111.74,4
105,107.41,111.68,4
105,107.36,111.61,4
105,107.31,111.54,4
105,107.26,111.48,4
105,107.22,111.41,4
105,107.17,111.35,4
105,107.13,111.29,4
105,107.09,111.22,4
104,107.03,111.15,4
104,106.97,111.08,4
104,106.91,111.01,4
104,106.85,110.94,4
104,106.79,110.87,4
104,106.74,110.80,4
103,106.66,110.72,4
104,106.61,110.66,4
105,106.58,110.60,4
104,106.52,110.53,4
105,106.49,110.48,4
103,106.42,110.40,4
105,106.40,110.35,4
104,106.35,110.29,4
104,106.30,110.22,4
103,106.23,110.15,4
104,106.19,110.09,4
103,106.13,110.02,4
103,106.06,109.95,4
103,106.00,109.88,4
105,105.98,109.83,4
103,105.92,109.76,4
104,105.88,109.70,4
103,105.83,109.64,4
103,105.77,109.57,4
101,105.67,109.48,4
103,105.62,109.42,4
103,105.57,109.36,4
103,105.52,109.29,4
103,105.47,109.23,4
103,105.42,109.17,4
103,105.37,109.11,4
103,105.32,109.04,4
103,105.28,108.98,4
102,105.21,108.91,4
103,105.17,108.85,4
103,105.12,108.80,4
103,105.08,108.74,4
103,105.04,108.68,4
103,105.00,108.62,4
103,104.96,108.57,4
102,104.90,108.50,4
102,104.84,108.44,4
102,104.78,108.37,4
102,104.73,108.31,4
103,104.69,108.26,4
103,104.66,108.20,4
102,104.61,108.14,4
103,104.57,108.09,4
104,104.56,108.05,4
104,104.55,108.01,4
105,104.56,107.98,4
104,104.55,107.94,4
103,104.52,107.89,4
103,104.49,107.84,4
103,104.46,107.79,4
103,104.43,107.74,4
101,104.36,107.68,4
102,104.31,107.62,4
102,104.27,107.56,4
102,104.22,107.51,4
101,104.16,107.44,4
103,104.13,107.40,4
103,104.11,107.35,4
102,104.07,107.30,4
102,104.03,107.25,4
103,104.01,107.21,4
102,103.97,107.15,4
103,103.95,107.11,4
104,103.95,107.08,4
103,103.93,107.04,4
103,103.91,107.00,4
101,103.85,106.94,4
102,103.82,106.89,4
103,103.80,106.85,4
103,103.78,106.81,4
105,103.81,106.79,4
103,103.79,106.76,4
101,103.74,106.70,4
101,103.68,106.64,4
103,103.67,106.61,4
102,103.63,106.56,4
103,103.62,106.52,4
102,103.59,106.48,4
101,103.54,106.42,4
102,103.51,106.38,4
103,103.50,106.35,4
103,103.49,106.31,4
103,103.48,106.28,4
101,103.43,106.23,4
104,103.44,106.20,4
103,103.43,106.17,4
100,103.36,106.11,4
103,103.35,106.08,4
102,103.33,106.04,4
103,103.32,106.01,4
103,103.31,105.98,4
102,103.29,105.94,4
102,103.26,105.90,4
102,103.24,105.86,4
102,103.21,105.82,4
101,103.17,105.77,4
101,103.12,105.73,4
103,103.12,105.70,4
101,103.08,105.65,4
101,103.04,105.60,4
102,103.02,105.57,4
103,103.02,105.54,4
101,102.98,105.50,4
103,102.98,105.47,4
101,102.94,105.43,4
101,102.90,105.38,4
101,102.86,105.34,4
102,102.84,105.31,4
101,102.81,105.26,4
102,102.79,105.23,4
103,102.79,105.21,4
101,102.76,105.17,4
101,102.72,105.12,4
101,102.69,105.08,4
101,102.66,105.04,4
101,102.62,105.00,4
102,102.61,104.97,4
101,102.58,104.93,4
103,102.59,104.91,4
103,102.59,104.89,4
103,102.60,104.88,4
101,102.57,104.84,4
103,102.58,104.82,4
103,102.59,104.80,4
101,102.56,104.76,4
105,102.60,104.76,4
102,102.59,104.74,4
101,102.56,104.70,4
101,102.53,104.66,4
101,102.50,104.63,4
101,102.47,104.59,4
101,102.44,104.55,4
102,102.43,104.53,4
103,102.44,104.51,4
101,102.41,104.48,4
101,102.38,104.44,4
101,102.36,104.41,4
101,102.33,104.37,4
101,102.30,104.34,4
102,102.30,104.32,4
101,102.27,104.28,4
100,102.23,104.24,4
101,102.20,104.21,4
101,102.18,104.18,4
101,102.15,104.14,4
101,102.13,104.11,4
101,102.11,104.08,4
101,102.09,104.05,4
101,102.06,104.02,4
101,102.04,103.99,4
102,102.04,103.97,4
101,102.02,103.94,4
103,102.04,103.93,4
101,102.02,103.90,4
101,102.00,103.87,4
102,102.00,103.85,4
103,102.02,103.85,4
101,102.00,103.82,4
101,101.98,103.79,4
101,101.96,103.76,4
101,101.94,103.73,4
101,101.92,103.71,4
101,101.90,103.68,4
101,101.89,103.65,4
101,101.87,103.63,4
102,101.87,103.61,4
101,101.85,103.58,4
103,101.88,103.58,4
101,101.86,103.55,4
101,101.84,103.53,4
101,101.82,103.50,4
100,101.79,103.47,4
101,101.77,103.44,4
100,101.74,103.41,4
101,101.72,103.38,4
101,101.71,103.36,4
101,101.69,103.34,4
99,101.64,103.29,4
100,101.61,103.26,4
100,101.57,103.23,4
101,101.56,103.20,4
101,101.55,103.18,4
99,101.50,103.14,4
101,101.49,103.12,4
100,101.46,103.09,4
101,101.45,103.07,4
101,101.44,103.05,4
101,101.43,103.03,4
100,101.41,103.00,4
100,101.38,102.97,4
101,101.37,102.95,4
102,101.38,102.94,4
102,101.39,102.93,4
101,101.39,102.91,4
101,101.38,102.89,4
101,101.37,102.87,4
101,101.36,102.85,4
102,101.38,102.84,4
101,101.37,102.82,4
100,101.34,102.80,4
100,101.31,102.77,4
100,101.29,102.74,4
99,101.24,102.70,4
101,101.24,102.69,4
100,101.21,102.66,4
102,101.23,102.65,4
99,101.18,102.62,4
100,101.16,102.59,4
101,101.16,102.57,4
101,101.15,102.56,4
100,101.13,102.53,4
101,101.13,102.52,4
101,101.13,102.50,4
101,101.12,102.49,4
101,101.12,102.47,4
100,101.10,102.45,4
100,101.08,102.42,4
100,101.06,102.40,4
101,101.05,102.39,4
101,101.05,102.37,4
101,101.05,102.36,4
99,101.01,102.32,4
100,100.99,102.30,4
100,100.97,102.28,4
102,100.99,102.27,4
101,100.99,102.26,4
99,100.95,102.23,4
102,100.97,102.23,4
101,100.97,102.22,4
101,100.97,102.20,4
101,100.97,102.19,4
101,100.97,102.18,4
101,100.98,102.17,4
97,100.90,102.12,4
99,100.86,102.08,4
100,100.84,102.06,4
100,100.82,102.04,4
100,100.81,102.02,4
101,100.81,102.01,4
102,100.84,102.01,4
104,100.90,102.03,4
101,100.90,102.02,4
101,100.90,102.01,4
101,100.90,102.00,4
101,100.91,101.99,4
101,100.91,101.98,4
101,100.91,101.97,4
101,100.91,101.96,4
103,100.95,101.97,4
101,100.95,101.96,4
103,101.00,101.97,4
103,101.04,101.98,4
102,101.05,101.98,4
103,101.09,101.99,4
103,101.13,102.00,4
103,101.17,102.01,4
99,101.13,101.98,4
105,101.20,102.01,4
104,101.26,102.03,4
103,101.29,102.04,4
105,101.37,102.07,4
105,101.44,102.10,4
104,101.49,102.12,4
104,101.54,102.14,4
103,101.57,102.15,4
106,101.66,102.19,4
105,101.73,102.21,4
105,101.79,102.24,4
104,101.84,102.26,4
104,101.88,102.28,4
105,101.94,102.31,4
105,102.00,102.33,4
104,102.04,102.35,4
104,102.08,102.37,4
105,102.14,102.39,4
104,102.18,102.41,4
104,102.21,102.42,4
105,102.27,102.45,4
104,102.30,102.46,4
103,102.32,102.47,4
105,102.37,102.50,4
106,102.44,102.53,4
105,102.50,102.56,4
108,102.61,102.61,4
107,102.69,102.65,4
105,102.74,102.68,4
108,102.85,102.73,4
107,102.93,102.77,4
109,103.05,102.84,4
109,103.17,102.90,4
111,103.33,102.98,4
110,103.46,103.05,4
109,103.57,103.11,4
109,103.68,103.17,4
111,103.82,103.24,4
111,103.97,103.32,4
109,104.07,103.38,4
109,104.17,103.44,4
110,104.28,103.50,4
111,104.42,103.58,4
110,104.53,103.64,4
111,104.66,103.71,4
111,104.79,103.79,4
111,104.91,103.86,4
111,105.03,103.93,4
111,105.15,104.00,4
111,105.27,104.07,4
113,105.42,104.16,4
111,105.53,104.23,4
113,105.68,104.32,4
112,105.81,104.39,4
111,105.91,104.46,4
111,106.02,104.52,4
114,106.18,104.62,4
113,106.31,104.70,4
115,106.49,104.81,4
115,106.66,104.91,4
115,106.82,105.01,4
116,107.01,105.12,4
113,107.13,105.20,4
114,107.26,105.29,4
113,107.38,105.36,4
113,107.49,105.44,4
117,107.68,105.55,4
117,107.87,105.67,4
117,108.05,105.78,4
117,108.23,105.89,4
116,108.38,106.00,4
119,108.60,106.13,4
118,108.79,106.24,4
118,108.97,106.36,4
117,109.13,106.47,4
118,109.31,106.58,4
117,109.46,106.69,4
115,109.57,106.77,4
117,109.72,106.87,4
118,109.89,106.98,4
118,110.05,107.09,4
118,110.21,107.20,4
118,110.36,107.31,4
119,110.54,107.43,4
121,110.75,107.56,4
122,110.97,107.71,4
120,111.15,107.83,4
124,111.41,107.99,4
124,111.66,108.15,4
123,111.89,108.30,4
125,112.15,108.47,4
123,112.37,108.61,4
125,112.62,108.78,4
125,112.87,108.94,4
125,113.11,109.10,4
127,113.39,109.28,4
127,113.66,109.46,4
125,113.89,109.61,4
125,114.11,109.77,4
127,114.37,109.94,4
125,114.58,110.09,4
127,114.83,110.26,4
127,115.07,110.43,4
126,115.29,110.58,4
127,115.52,110.75,4
126,115.73,110.90,4
127,115.96,111.06,4
129,116.22,111.24,4
129,116.47,111.42,4
129,116.73,111.59,4
127,116.93,111.75,4
129,117.17,111.92,4
129,117.41,112.09,4
128,117.62,112.25,4
132,117.91,112.45,4
129,118.13,112.61,4
127,118.31,112.76,4
131,118.56,112.94,4
134,118.87,113.15,4
133,119.15,113.35,4
134,119.45,113.55,4
137,119.80,113.79,4
135,120.10,114.00,4
134,120.38,114.20,4
136,120.69,114.42,4
133,120.94,114.60,4
135,121.22,114.81,4
136,121.52,115.02,4
135,121.79,115.22,4
134,122.03,115.41,4
136,122.31,115.61,4
136,122.58,115.82,4
141,122.95,116.07,4
141,123.31,116.32,4
139,123.63,116.55,4
142,124.00,116.80,4
140,124.32,117.03,4
143,124.69,117.29,4
141,125.02,117.53,4
143,125.37,117.78,4
146,125.79,118.07,4
143,126.13,118.32,4
143,126.47,118.56,4
143,126.80,118.81,4
143,127.12,119.05,4
143,127.44,119.29,4
144,127.77,119.53,4
147,128.16,119.81,4
148,128.55,120.09,4
147,128.92,120.36,4
149,129.32,120.65,4
147,129.68,120.91,4
150,130.08,121.20,4
149,130.46,121.48,4
151,130.87,121.77,4
151,131.28,122.07,4
150,131.65,122.35,4
149,132.00,122.61,4
149,132.34,122.88,4
149,132.67,123.14,4
153,133.08,123.44,4
149,133.40,123.69,4
152,133.77,123.98,4
149,134.07,124.23,4
151,134.41,124.49,4
152,134.76,124.77,4
152,135.11,125.04,4
153,135.47,125.32,4
153,135.82,125.60,4
151,136.12,125.85,4
151,136.42,126.10,4
151,136.71,126.35,4
153,137.03,126.62,4
153,137.35,126.88,4
153,137.67,127.14,4
154,137.99,127.41,4
157,138.37,127.71,4
160,138.81,128.03,4
157,139.17,128.32,4
157,139.53,128.61,4
159,139.92,128.91,4
165,140.42,129.27,4
164,140.89,129.62,4
160,141.27,129.92,4
162,141.69,130.24,4
162,142.09,130.56,4
163,142.51,130.89,4
163,142.92,131.21,4
164,143.34,131.53,4
163,143.74,131.85,4
163,144.12,132.16,4
168,144.60,132.52,4
167,145.05,132.86,4
164,145.43,133.18,4
165,145.82,133.49,4
165,146.20,133.81,4
169,146.66,134.16,4
168,147.08,134.50,4
165,147.44,134.80,4
166,147.81,135.12,4
167,148.20,135.43,4
167,148.57,135.75,4
169,148.98,136.08,4
169,149.38,136.41,4
170,149.79,136.75,4
173,150.26,137.11,4
169,150.63,137.43,4
169,151.00,137.75,4
169,151.36,138.06,4
172,151.77,138.40,4
171,152.16,138.72,4
171,152.53,139.05,4
172,152.92,139.38,4
171,153.29,139.69,4
170,153.62,139.99,4
171,153.97,140.30,4
174,154.37,140.64,4
177,154.82,141.01,4
173,155.18,141.33,4
175,155.58,141.66,4
177,156.01,142.02,4
177,156.43,142.37,4
177,156.84,142.71,4
180,157.30,143.08,4
179,157.74,143.44,4
180,158.18,143.81,4
178,158.58,144.15,4
183,159.07,144.54,4
183,159.55,144.92,4
181,159.97,145.28,4
183,160.44,145.66,4
183,160.89,146.04,4
186,161.39,146.44,4
189,161.94,146.86,4
186,162.42,147.25,4
185,162.87,147.63,4
185,163.32,148.00,4
185,163.75,148.37,4
189,164.26,148.78,4
193,164.83,149.22,4
189,165.31,149.62,4
193,165.87,150.05,4
192,166.39,150.47,4
191,166.88,150.88,4
191,167.36,151.28,4
196,167.94,151.73,4
196,168.50,152.17,4
199,169.11,152.64,4
198,169.69,153.09,4
197,170.23,153.53,4
200,170.83,154.00,4
202,171.45,154.48,4
201,172.04,154.94,4
199,172.58,155.38,4
200,173.13,155.83,4
201,173.69,156.28,4
201,174.23,156.73,4
199,174.73,157.15,4
201,175.25,157.59,4
200,175.75,158.01,4
199,176.21,158.42,4
201,176.71,158.85,4
201,177.20,159.27,4
201,177.67,159.69,4
199,178.10,160.08,4
204,178.62,160.52,4
200,179.04,160.91,4
200,179.46,161.30,4
200,179.87,161.69,4
199,180.26,162.06,4
200,180.65,162.44,4
200,181.04,162.82,4
201,181.44,163.20,4
201,181.83,163.58,4
200,182.19,163.94,4
201,182.57,164.31,4
199,182.90,164.66,4
198,183.20,164.99,4
198,183.50,165.32,4
197,183.77,165.64,4
198,184.05,165.96,4
198,184.33,166.28,4
197,184.58,166.59,4
197,184.83,166.90,4
197,185.07,167.20,4
195,185.27,167.47,4
199,185.55,167.79,4
197,185.78,168.08,4
198,186.02,168.38,4
199,186.28,168.69,4
199,186.53,168.99,4
197,186.74,169.27,4
197,186.95,169.55,4
197,187.15,169.82,4
198,187.37,170.10,4
197,187.56,170.37,4
197,187.75,170.64,4
196,187.91,170.89,4
195,188.06,171.13,4
195,188.19,171.37,4
195,188.33,171.61,4
196,188.48,171.85,4
195,188.61,172.08,4
196,188.76,172.32,4
195,188.89,172.55,4
195,189.01,172.78,4
195,189.13,173.00,4
197,189.29,173.24,4
195,189.40,173.45,4
194,189.49,173.66,4
193,189.56,173.85,4
194,189.65,174.06,4
193,189.72,174.24,4
193,189.78,174.43,4
194,189.87,174.63,4
193,189.93,174.81,4
193,189.99,174.99,4
193,190.05,175.17,4
193,190.11,175.35,4
193,190.17,175.53,4
191,190.19,175.68,4
192,190.22,175.85,4
193,190.28,176.02,4
193,190.33,176.19,4
193,190.39,176.36,4
192,190.42,176.51,4
191,190.43,176.66,4
192,190.46,176.81,4
191,190.47,176.95,4
191,190.48,177.09,4
191,190.49,177.23,4
189,190.46,177.35,4
190,190.45,177.48,4
190,190.44,177.60,4
189,190.42,177.72,4
189,190.39,177.83,4
189,190.36,177.94,4
189,190.33,178.05,4
188,190.29,178.15,4
189,190.26,178.26,4
187,190.19,178.35,4
188,190.15,178.44,4
188,190.11,178.54,4
187,190.05,178.62,4
188,190.00,178.72,4
188,189.96,178.81,4
187,189.91,178.89,4
186,189.83,178.96,4
187,189.77,179.04,4
186,189.70,179.11,4
187,189.64,179.19,4
186,189.57,179.26,4
186,189.50,179.33,4
185,189.41,179.38,4
185,189.32,179.44,4
185,189.23,179.50,4
185,189.15,179.55,4
184,189.05,179.59,4
184,188.94,179.64,4
185,188.87,179.69,4
183,188.75,179.73,4
183,188.63,179.76,4
183,188.52,179.79,4
183,188.41,179.82,4
182,188.28,179.84,4
183,188.18,179.88,4
183,188.07,179.91,4
182,187.95,179.93,4
181,187.81,179.94,4
181,187.68,179.95,4
182,187.56,179.97,4
181,187.43,179.98,4
181,187.30,179.99,4
181,187.18,180.00,4
181,187.05,180.01,4
179,186.89,180.00,4
179,186.73,179.99,4
183,186.66,180.02,4
180,186.53,180.02,4
180,186.40,180.02,4
179,186.25,180.01,4
179,186.10,180.00,4
179,185.96,179.99,4
179,185.82,179.98,4
179,185.69,179.97,4
178,185.53,179.95,4
179,185.40,179.94,4
178,185.25,179.92,4
177,185.09,179.89,4
177,184.93,179.86,4
177,184.77,179.83,4
177,184.61,179.81,4
177,184.46,179.78,4
177,184.31,179.75,4
177,184.16,179.72,4
176,184.00,179.69,4
176,183.84,179.65,4
177,183.70,179.62,4
175,183.53,179.58,4
175,183.36,179.53,4
175,183.19,179.49,4
175,183.03,179.44,4
175,182.87,179.40,4
174,182.69,179.34,4
174,182.52,179.29,4
173,182.33,179.23,4
173,182.14,179.16,4
174,181.98,179.11,4
173,181.80,179.05,4
174,181.64,179.00,4
173,181.47,178.94,4
173,181.30,178.88,4
175,181.17,178.84,4
173,181.01,178.78,4
175,180.89,178.75,4
173,180.73,178.69,4
175,180.62,178.65,4
172,180.45,178.58,4
172,180.28,178.52,4
171,180.09,178.44,4
172,179.93,178.38,4
171,179.75,178.31,4
171,179.58,178.23,4
171,179.40,178.16,4
170,179.22,178.08,4
170,179.03,178.00,4
170,178.85,177.92,4
169,178.65,177.83,4
170,178.48,177.75,4
169,178.29,177.66,4
170,178.13,177.59,4
170,177.96,177.51,4
169,177.78,177.43,4
169,177.61,177.34,4
168,177.42,177.25,4
169,177.25,177.17,5
169,177.08,177.08,5
169,176.92,177.00,6
168,176.74,176.91,6
168,176.57,176.82,6
169,176.42,176.75,6
169,176.27,176.67,6
168,176.10,176.58,6
170,175.98,176.52,6
169,175.84,176.44,6
168,175.68,176.36,6
168,175.53,176.27,6
169,175.40,176.20,6
168,175.25,176.12,6
167,175.09,176.03,6
167,174.93,175.94,6
167,174.77,175.85,6
167,174.61,175.76,6
166,174.44,175.66,6
167,174.29,175.57,6
167,174.14,175.49,6
166,173.98,175.39,6
166,173.82,175.30,6
166,173.67,175.21,6
165,173.49,175.10,6
165,173.32,175.00,6
165,173.16,174.90,6
165,172.99,174.80,6
165,172.83,174.71,6
164,172.66,174.60,6
164,172.48,174.49,6
164,172.31,174.39,6
164,172.15,174.28,6
164,171.98,174.18,6
164,171.82,174.08,6
163,171.65,173.97,6
163,171.48,173.86,6
162,171.29,173.74,6
163,171.12,173.63,6
163,170.96,173.53,6
163,170.80,173.42,6
161,170.60,173.30,6
161,170.41,173.17,6
161,170.22,173.05,6
161,170.04,172.93,6
159,169.82,172.79,6
161,169.64,172.68,6
160,169.45,172.55,6
161,169.28,172.43,6
160,169.09,172.31,6
160,168.91,172.19,6
161,168.75,172.07,6
159,168.56,171.94,6
159,168.37,171.81,6
159,168.18,171.69,6
160,168.02,171.57,6
158,167.82,171.43,6
158,167.62,171.30,6
157,167.41,171.16,6
158,167.22,171.02,6
157,167.01,170.88,6
157,166.81,170.74,6
157,166.62,170.61,6
157,166.43,170.47,6
157,166.24,170.34,6
157,166.05,170.20,6
157,165.87,170.07,6
155,165.65,169.92,6
156,165.46,169.78,6
157,165.29,169.65,6
156,165.11,169.52,6
157,164.94,169.39,6
157,164.78,169.27,6
155,164.59,169.13,6
156,164.42,168.99,6
153,164.19,168.83,6
155,164.01,168.70,6
155,163.83,168.56,6
156,163.67,168.43,6
154,163.48,168.29,6
155,163.31,168.16,6
153,163.10,168.00,6
153,162.90,167.85,6
154,162.72,167.72,6
153,162.53,167.57,6
153,162.33,167.42,6
152,162.13,167.27,6
152,161.93,167.12,6
151,161.71,166.95,6
150,161.47,166.79,6
151,161.26,166.63,6
151,161.06,166.47,6
152,160.88,166.33,6
152,160.70,166.18,6
151,160.51,166.03,6
151,160.32,165.88,6
151,160.13,165.73,6
151,159.95,165.58,6
151,159.77,165.44,6
151,159.59,165.29,6
151,159.42,165.15,6
151,159.25,165.01,6
149,159.05,164.85,6
151,158.89,164.71,6
151,158.73,164.57,6
149,158.53,164.42,6
149,158.34,164.26,6
149,158.16,164.11,6
150,157.99,163.97,6
149,157.81,163.82,6
149,157.64,163.67,6
148,157.44,163.52,6
148,157.26,163.36,6
149,157.09,163.22,6
148,156.91,163.07,6
148,156.73,162.91,6
149,156.58,162.78,6
148,156.40,162.63,6
149,156.26,162.49,6
147,156.07,162.34,6
149,155.93,162.20,6
149,155.79,162.07,6
147,155.62,161.92,6
147,155.44,161.77,6
148,155.29,161.63,6
147,155.13,161.49,6
147,154.97,161.34,6
148,154.83,161.21,6
150,154.73,161.10,6
147,154.58,160.96,6
148,154.44,160.83,6
147,154.29,160.69,6
148,154.17,160.56,6
146,154.01,160.42,6
147,153.87,160.28,6
146,153.71,160.14,6
147,153.57,160.01,6
147,153.44,159.88,6
148,153.33,159.76,6
147,153.21,159.63,6
146,153.06,159.49,6
146,152.92,159.36,6
146,152.78,159.23,6
146,152.65,159.09,6
146,152.51,158.96,6
145,152.36,158.82,6
145,152.22,158.68,6
145,152.07,158.55,6
145,151.93,158.41,6
147,151.83,158.30,6
146,151.72,158.18,6
145,151.58,158.04,6
145,151.45,157.91,6
145,151.32,157.78,6
145,151.19,157.66,6
145,151.07,157.53,6
145,150.95,157.40,6
145,150.83,157.28,6
144,150.69,157.15,6
145,150.58,157.03,6
144,150.45,156.90,6
144,150.32,156.77,6
143,150.17,156.63,6
144,150.05,156.50,6
143,149.91,156.37,6
144,149.79,156.24,6
143,149.65,156.11,6
143,149.52,155.98,6
143,149.39,155.85,6
143,149.26,155.72,6
142,149.12,155.59,6
143,149.00,155.46,6
143,148.88,155.33,6
143,148.76,155.21,6
143,148.64,155.09,6
143,148.53,154.97,6
143,148.42,154.85,6
143,148.31,154.73,6
142,148.18,154.60,6
141,148.04,154.47,6
141,147.90,154.33,6
142,147.78,154.21,6
142,147.67,154.09,6
140,147.51,153.95,6
141,147.38,153.82,6
141,147.26,153.69,6
142,147.15,153.57,6
143,147.07,153.47,6
142,146.97,153.35,6
141,146.85,153.23,6
141,146.73,153.11,6
143,146.66,153.00,6
141,146.54,152.88,6
141,146.43,152.77,6
141,146.32,152.65,6
141,146.22,152.53,6
141,146.11,152.42,6
141,146.01,152.30,6
140,145.89,152.18,6
141,145.79,152.07,6
141,145.70,151.96,6
140,145.58,151.84,6
141,145.49,151.73,6
139,145.36,151.60,6
140,145.25,151.49,6
141,145.17,151.38,6
140,145.06,151.27,6
139,144.94,151.14,6
141,144.86,151.04,6
139,144.75,150.92,6
140,144.65,150.81,6
137,144.50,150.67,6
139,144.39,150.56,6
139,144.28,150.44,6
139,144.18,150.33,6
139,144.07,150.21,6
138,143.95,150.09,6
137,143.81,149.96,6
139,143.72,149.85,6
139,143.62,149.74,6
137,143.49,149.62,6
138,143.38,149.50,6
136,143.23,149.36,6
139,143.15,149.26,6
137,143.02,149.14,6
137,142.90,149.02,6
137,142.79,148.90,6
137,142.67,148.78,6
137,142.56,148.66,6
137,142.45,148.54,6
136,142.32,148.42,6
136,142.19,148.29,6
136,142.07,148.17,6
136,141.95,148.05,6
136,141.83,147.93,6
135,141.69,147.80,6
136,141.58,147.68,6
137,141.48,147.57,6
134,141.33,147.44,6
135,141.21,147.31,6
137,141.12,147.21,6
135,141.00,147.09,6
136,140.90,146.98,6
135,140.78,146.86,6
136,140.69,146.75,6
135,140.57,146.63,6
135,140.46,146.52,6
135,140.35,146.40,6
135,140.25,146.29,6
134,140.12,146.16,6
133,139.98,146.03,6
135,139.88,145.92,6
133,139.74,145.79,6
133,139.61,145.67,6
134,139.49,145.55,6
135,139.40,145.44,6
133,139.28,145.32,6
135,139.19,145.22,6
133,139.07,145.09,6
133,138.95,144.97,6
133,138.83,144.85,6
133,138.71,144.73,6
133,138.60,144.62,6
133,138.48,144.50,6
132,138.35,144.38,6
133,138.25,144.26,6
133,138.14,144.15,6
133,138.04,144.04,6
132,137.92,143.92,6
132,137.80,143.80,6
133,137.70,143.69,6
131,137.57,143.56,6
131,137.44,143.44,6
131,137.31,143.31,6
131,137.18,143.19,6
132,137.08,143.08,6
131,136.96,142.96,6
131,136.84,142.84,6
132,136.74,142.73,6
132,136.65,142.62,6
131,136.54,142.51,6
131,136.42,142.39,6
130,136.30,142.27,6
131,136.19,142.15,6
132,136.11,142.05,6
130,135.98,141.93,6
130,135.86,141.81,6
129,135.73,141.68,6
129,135.59,141.56,6
132,135.52,141.46,6
129,135.39,141.34,6
129,135.26,141.21,6
130,135.16,141.10,6
129,135.03,140.98,6
129,134.91,140.86,6
129,134.80,140.74,6
128,134.66,140.62,6
128,134.53,140.49,6
129,134.42,140.37,6
129,134.31,140.26,6
127,134.16,140.13,6
129,134.06,140.02,6
129,133.96,139.91,6
128,133.84,139.79,6
127,133.70,139.66,6
128,133.59,139.54,6
129,133.50,139.44,6
128,133.39,139.32,6
128,133.28,139.21,6
127,133.15,139.09,6
127,133.03,138.97,6
127,132.91,138.85,6
128,132.81,138.74,6
128,132.71,138.63,6
127,132.60,138.52,6
127,132.49,138.40,6
127,132.38,138.29,6
127,132.27,138.17,6
127,132.16,138.06,6
127,132.06,137.95,6
127,131.96,137.84,6
127,131.86,137.73,6
126,131.74,137.62,6
125,131.61,137.49,6
125,131.48,137.36,6
126,131.37,137.25,6
126,131.26,137.14,6
127,131.17,137.04,6
125,131.05,136.92,6
125,130.93,136.80,6
125,130.81,136.68,6
126,130.72,136.57,6
125,130.60,136.46,6
125,130.49,136.34,6
125,130.38,136.23,6
124,130.25,136.11,6
125,130.15,136.00,6
123,130.00,135.87,6
125,129.90,135.76,6
123,129.77,135.63,6
124,129.65,135.51,6
123,129.52,135.39,6
124,129.41,135.27,6
123,129.28,135.15,6
124,129.17,135.04,6
124,129.07,134.93,6
123,128.95,134.81,6
121,128.79,134.67,6
123,128.67,134.56,6
123,128.56,134.44,6
123,128.45,134.33,6
123,128.34,134.21,6
122,128.21,134.09,6
122,128.09,133.97,6
121,127.95,133.84,6
121,127.81,133.71,6
121,127.67,133.58,6
121,127.54,133.46,6
121,127.41,133.33,6
123,127.32,133.23,6
121,127.19,133.11,6
121,127.07,132.99,6
121,126.95,132.87,6
121,126.83,132.75,6
121,126.71,132.63,6
121,126.60,132.51,6
121,126.49,132.40,6
121,126.38,132.29,6
121,126.27,132.17,6
120,126.14,132.05,6
121,126.04,131.94,6
122,125.96,131.84,6
120,125.84,131.72,6
120,125.72,131.61,6
120,125.61,131.49,6
119,125.48,131.36,6
120,125.37,131.25,6
119,125.24,131.13,6
120,125.14,131.02,6
117,124.97,130.88,6
119,124.85,130.76,6
119,124.74,130.64,6
119,124.62,130.52,6
119,124.51,130.41,6
118,124.38,130.28,6
117,124.23,130.15,6
119,124.13,130.04,6
118,124.00,129.92,6
118,123.88,129.80,6
117,123.75,129.67,6
117,123.61,129.55,6
119,123.52,129.44,6
118,123.41,129.33,6
117,123.28,129.20,6
117,123.16,129.08,6
117,123.03,128.96,6
117,122.91,128.84,6
118,122.81,128.73,6
117,122.70,128.61,6
117,122.58,128.50,6
117,122.47,128.38,6
117,122.36,128.27,6
117,122.25,128.16,6
117,122.15,128.05,6
117,122.05,127.94,6
117,121.95,127.83,6
117,121.85,127.72,6
115,121.71,127.59,6
116,121.60,127.47,6
116,121.48,127.36,6
116,121.37,127.25,6
116,121.27,127.13,6
115,121.14,127.01,6
116,121.04,126.90,6
116,120.94,126.79,6
115,120.82,126.68,6
116,120.72,126.57,6
115,120.61,126.45,6
115,120.50,126.34,6
116,120.41,126.23,6
115,120.30,126.12,6
115,120.19,126.01,6
114,120.07,125.89,6
115,119.97,125.78,6
115,119.87,125.67,6
115,119.77,125.57,6
114,119.65,125.45,6
114,119.54,125.34,6
113,119.41,125.21,6
114,119.30,125.10,6
113,119.18,124.98,6
114,119.07,124.87,6
113,118.95,124.75,6
113,118.83,124.63,6
113,118.72,124.52,6
113,118.60,124.40,6
114,118.51,124.30,6
113,118.40,124.19,6
113,118.29,124.07,6
113,118.19,123.96,6
113,118.08,123.85,6
112,117.96,123.74,6
112,117.84,123.62,6
113,117.74,123.51,6
112,117.63,123.40,6
113,117.54,123.29,6
113,117.45,123.19,6
112,117.34,123.08,6
111,117.21,122.96,6
111,117.09,122.84,6
111,116.96,122.72,6
111,116.85,122.60,6
112,116.75,122.50,6
112,116.65,122.39,6
111,116.54,122.28,6
111,116.43,122.16,6
111,116.32,122.05,6
111,116.21,121.94,6
111,116.11,121.83,6
111,116.01,121.72,6
109,115.87,121.60,6
112,115.79,121.50,6
111,115.69,121.40,6
111,115.60,121.29,6
109,115.47,121.17,6
111,115.38,121.07,6
111,115.29,120.97,6
109,115.17,120.85,6
110,115.06,120.74,6
109,114.94,120.62,6
109,114.82,120.51,6
109,114.71,120.39,6
107,114.55,120.26,6
109,114.44,120.14,6
110,114.35,120.04,6
109,114.25,119.93,6
109,114.14,119.82,6
107,114.00,119.69,6
110,113.92,119.60,6
109,113.82,119.49,6
109,113.72,119.39,6
107,113.59,119.26,6
109,113.50,119.16,6
108,113.39,119.05,6
109,113.30,118.95,6
109,113.21,118.85,6
109,113.13,118.75,6
109,113.05,118.65,6
108,112.95,118.55,6
109,112.87,118.45,6
107,112.75,118.34,6
108,112.65,118.23,6
108,112.56,118.13,6
108,112.47,118.03,6
107,112.36,117.92,6
107,112.25,117.81,6
108,112.17,117.71,6
107,112.06,117.60,6
107,111.96,117.50,6
107,111.86,117.39,6
108,111.79,117.30,6
106,111.67,117.19,6
107,111.58,117.08,6
107,111.49,116.98,6
107,111.40,116.88,6
106,111.29,116.78,6
105,111.16,116.66,6
105,111.04,116.54,6
107,110.96,116.45,6
106,110.86,116.34,6
107,110.78,116.25,6
106,110.69,116.14,6
106,110.59,116.04,6
105,110.48,115.93,6
105,110.37,115.82,6
105,110.26,115.72,6
106,110.18,115.62,6
105,110.08,115.51,6
105,109.97,115.41,6
105,109.87,115.30,6
108,109.84,115.23,6
105,109.74,115.13,6
105,109.65,115.03,6
105,109.55,114.93,6
104,109.44,114.82,6
104,109.33,114.71,6
104,109.23,114.60,6
105,109.14,114.51,6
105,109.06,114.41,6
104,108.96,114.31,6
105,108.88,114.21,6
105,108.80,114.12,6
105,108.72,114.03,6
105,108.65,113.94,6
104,108.56,113.84,6
105,108.49,113.75,6
104,108.40,113.65,6
104,108.31,113.56,6
105,108.24,113.47,6
104,108.16,113.38,6
105,108.09,113.29,6
104,108.01,113.20,6
105,107.95,113.12,6
103,107.85,113.02,6
104,107.78,112.93,6
105,107.72,112.85,6
105,107.67,112.77,6
104,107.59,112.68,6
104,107.52,112.60,6
104,107.45,112.51,6
104,107.38,112.42,6
103,107.29,112.33,6
104,107.23,112.25,6
104,107.16,112.16,6
103,107.08,112.07,6
104,107.02,111.99,6
103,106.94,111.90,6
104,106.88,111.82,6
104,106.82,111.74,6
104,106.77,111.67,6
103,106.69,111.58,6
104,106.64,111.50,6
101,106.52,111.40,6
103,106.45,111.32,6
103,106.38,111.23,6
103,106.32,111.15,6
102,106.23,111.06,6
103,106.17,110.98,6
103,106.10,110.90,6
102,106.02,110.81,6
103,105.96,110.73,6
103,105.90,110.65,6
102,105.82,110.57,6
103,105.77,110.49,6
103,105.71,110.42,6
102,105.64,110.33,6
103,105.58,110.26,6
102,105.51,110.18,6
102,105.44,110.09,6
101,105.35,110.00,6
102,105.29,109.92,6
102,105.22,109.84,6
101,105.14,109.76,6
101,105.05,109.67,6
101,104.97,109.58,6
101,104.89,109.50,6
101,104.81,109.41,6
101,104.74,109.33,6
101,104.66,109.24,6
101,104.59,109.16,6
101,104.52,109.08,6
101,104.45,109.00,6
101,104.38,108.92,6
101,104.31,108.84,6
101,104.25,108.76,6
101,104.18,108.68,6
101,104.12,108.61,6
103,104.09,108.55,6
101,104.03,108.48,6
100,103.95,108.39,6
101,103.89,108.32,6
101,103.84,108.24,6
101,103.78,108.17,6
100,103.70,108.09,6
101,103.65,108.02,6
101,103.60,107.95,6
101,103.54,107.88,6
101,103.49,107.81,6
103,103.48,107.76,6
101,103.43,107.69,6
102,103.40,107.64,6
101,103.36,107.57,6
101,103.31,107.51,6
101,103.26,107.44,6
105,103.30,107.42,6
101,103.25,107.35,6
101,103.21,107.29,6
101,103.16,107.23,6
101,103.12,107.16,6
100,103.06,107.09,6
101,103.02,107.03,6
101,102.98,106.97,6
100,102.92,106.90,6
101,102.88,106.84,6
100,102.82,106.77,6
101,102.78,106.72,6
101,102.75,106.66,6
101,102.71,106.60,6
101,102.68,106.55,6
101,102.65,106.49,6
99,102.57,106.42,6
99,102.50,106.34,6
100,102.45,106.28,6
101,102.42,106.23,6
99,102.35,106.15,6
99,102.29,106.08,6
99,102.22,106.01,6
99,102.16,105.94,6
98,102.07,105.86,6
100,102.03,105.80,6
100,101.99,105.74,6
100,101.95,105.69,6
100,101.91,105.63,6
99,101.85,105.56,6
99,101.80,105.50,6
101,101.78,105.45,6
99,101.73,105.39,6
102,101.73,105.35,6
102,101.74,105.32,6
100,101.70,105.27,6
100,101.67,105.22,6
101,101.65,105.17,6
102,101.66,105.14,6
103,101.69,105.12,6
101,101.67,105.08,6
103,101.70,105.06,6
103,101.73,105.04,6
105,101.79,105.04,6
103,101.82,105.02,6
104,101.86,105.01,6
101,101.84,104.97,6
103,101.87,104.95,6
101,101.85,104.91,6
104,101.89,104.90,6
103,101.91,104.88,6
103,101.94,104.86,6
103,101.96,104.84,6
105,102.02,104.84,6
104,102.06,104.83,6
105,102.12,104.84,6
106,102.19,104.85,6
104,102.23,104.84,6
104,102.27,104.83,6
103,102.28,104.81,6
105,102.33,104.81,6
104,102.37,104.81,6
105,102.42,104.81,6
105,102.47,104.81,6
104,102.50,104.80,6
104,102.53,104.79,6
106,102.60,104.81,6
105,102.65,104.81,6
106,102.72,104.82,6
105,102.76,104.82,6
105,102.81,104.82,6
105,102.85,104.83,6
105,102.89,104.83,6
104,102.92,104.82,6
108,103.02,104.85,6
107,103.10,104.87,6
107,103.18,104.89,6
107,103.25,104.91,6
107,103.33,104.94,6
107,103.40,104.96,6
105,103.43,104.96,6
105,103.46,104.96,6
107,103.53,104.98,6
106,103.58,104.99,6
105,103.61,104.99,6
105,103.64,104.99,6
107,103.71,105.01,6
106,103.75,105.02,6
105,103.78,105.02,6
106,103.82,105.03,6
106,103.87,105.04,6
105,103.89,105.04,6
108,103.97,105.07,6
105,103.99,105.07,6
106,104.03,105.08,6
106,104.07,105.08,6
106,104.11,105.09,6
106,104.15,105.10,6
108,104.22,105.13,6
103,104.20,105.11,6
105,104.22,105.11,6
105,104.23,105.11,6
107,104.29,105.13,6
107,104.34,105.15,6
106,104.37,105.15,6
107,104.43,105.17,6
106,104.46,105.18,6
107,104.51,105.20,6
107,104.56,105.22,6
107,104.61,105.24,6
107,104.66,105.25,6
107,104.70,105.27,6
105,104.71,105.27,6
109,104.79,105.31,6
106,104.82,105.31,6
107,104.86,105.33,6
107,104.90,105.35,6
107,104.95,105.36,6
108,105.01,105.39,6
107,105.05,105.40,6
108,105.11,105.43,6
106,105.12,105.44,6
108,105.18,105.46,6
107,105.22,105.48,6
108,105.27,105.50,6
107,105.31,105.52,6
107,105.34,105.53,6
107,105.38,105.55,6
107,105.41,105.56,6
108,105.46,105.59,6
109,105.53,105.62,6
107,105.56,105.63,6
109,105.63,105.67,6
108,105.68,105.69,6
107,105.70,105.70,6
108,105.75,105.73,6
108,105.79,105.75,6
107,105.82,105.76,6
111,105.92,105.81,6
107,105.94,105.83,6
107,105.96,105.84,6
109,106.03,105.87,6
109,106.08,105.90,6
109,106.14,105.93,6
111,106.24,105.98,6
110,106.32,106.02,6
111,106.41,106.07,6
111,106.50,106.12,6
109,106.55,106.15,6
110,106.62,106.19,6
109,106.67,106.22,6
113,106.79,106.29,6
111,106.88,106.33,6
111,106.96,106.38,6
108,106.98,106.40,6
110,107.04,106.43,6
111,107.12,106.48,6
109,107.16,106.50,6
109,107.20,106.53,6
111,107.27,106.57,6
109,107.31,106.60,6
110,107.36,106.63,6
112,107.45,106.68,6
110,107.50,106.72,6
113,107.61,106.78,6
109,107.64,106.80,6
109,107.67,106.82,6
109,107.70,106.85,6
110,107.74,106.88,6
111,107.81,106.92,6
110,107.85,106.95,6
111,107.91,106.99,6
111,107.97,107.03,6
109,108.00,107.05,6
111,108.06,107.09,6
111,108.11,107.13,6
112,108.19,107.18,6
111,108.25,107.22,6
111,108.30,107.25,6
111,108.36,107.29,6
111,108.41,107.33,6
111,108.46,107.36,6
109,108.47,107.38,6
112,108.54,107.43,6
113,108.63,107.48,6
113,108.72,107.54,6
113,108.81,107.59,6
114,108.91,107.66,6
116,109.05,107.74,6
115,109.17,107.81,6
113,109.25,107.86,6
115,109.36,107.94,6
117,109.51,108.03,6
115,109.62,108.10,6
115,109.73,108.17,6
113,109.80,108.21,6
116,109.92,108.29,6
116,110.04,108.37,6
115,110.14,108.43,6
113,110.20,108.48,6
117,110.34,108.57,6
115,110.43,108.63,6
115,110.52,108.69,6
116,110.63,108.77,6
117,110.76,108.85,6
117,110.88,108.93,6
115,110.96,108.99,6
117,111.08,109.07,6
116,111.18,109.14,6
117,111.30,109.22,6
118,111.43,109.31,6
120,111.60,109.41,6
117,111.71,109.49,6
117,111.82,109.57,6
117,111.92,109.64,6
117,112.02,109.71,6
117,112.12,109.79,6
119,112.26,109.88,6
118,112.38,109.96,6
117,112.47,110.03,6
117,112.56,110.10,6
119,112.69,110.19,6
117,112.77,110.26,6
118,112.88,110.33,6
120,113.02,110.43,6
119,113.14,110.52,6
119,113.26,110.60,6
119,113.37,110.69,6
120,113.50,110.78,6
120,113.63,110.87,6
120,113.76,110.96,6
120,113.89,111.05,6
119,113.99,111.13,6
121,114.13,111.23,6
122,114.29,111.34,6
121,114.42,111.43,6
121,114.55,111.53,6
121,114.68,111.62,6
120,114.79,111.71,6
121,114.91,111.80,6
123,115.07,111.91,6
121,115.19,112.00,6
122,115.33,112.10,6
125,115.52,112.23,6
121,115.63,112.32,6
124,115.80,112.44,6
121,115.90,112.52,6
121,116.00,112.61,6
125,116.18,112.73,6
124,116.34,112.84,6
124,116.49,112.96,6
127,116.70,113.10,6
127,116.91,113.24,6
127,117.11,113.37,6
127,117.31,113.51,6
128,117.52,113.65,6
127,117.71,113.79,6
127,117.90,113.92,6
128,118.10,114.06,6
126,118.26,114.18,6
128,118.45,114.32,6
130,118.68,114.48,6
129,118.89,114.62,6
131,119.13,114.78,6
129,119.33,114.93,6
129,119.52,115.07,6
133,119.79,115.25,6
129,119.98,115.38,6
130,120.18,115.53,6
132,120.41,115.70,6
131,120.63,115.85,6
129,120.79,115.98,6
130,120.98,116.12,6
130,121.16,116.26,6
133,121.40,116.43,6
133,121.63,116.59,6
135,121.89,116.78,6
131,122.08,116.92,6
134,122.32,117.09,6
132,122.51,117.24,6
133,122.72,117.40,6
134,122.94,117.56,6
133,123.15,117.72,6
133,123.34,117.87,6
135,123.58,118.04,6
133,123.76,118.19,6
133,123.95,118.34,6
135,124.17,118.50,6
136,124.41,118.68,6
136,124.64,118.85,6
140,124.95,119.06,6
139,125.23,119.26,6
139,125.50,119.46,6
139,125.77,119.66,6
139,126.04,119.85,6
139,126.30,120.04,6
140,126.57,120.24,6
143,126.90,120.47,6
143,127.22,120.69,6
141,127.50,120.90,6
144,127.83,121.13,6
146,128.19,121.38,6
144,128.51,121.60,6
145,128.84,121.84,6
148,129.22,122.10,6
149,129.61,122.37,6
148,129.98,122.62,6
153,130.44,122.93,6
152,130.87,123.22,6
153,131.32,123.52,6
150,131.69,123.78,6
151,132.08,124.05,6
151,132.45,124.32,6
151,132.83,124.59,6
155,133.27,124.89,6
153,133.66,125.17,6
152,134.03,125.44,6
153,134.41,125.72,6
157,134.86,126.03,6
155,135.26,126.32,6
157,135.70,126.63,6
154,136.07,126.90,6
156,136.46,127.19,6
155,136.83,127.47,6
155,137.20,127.75,6
155,137.55,128.02,6
156,137.92,128.30,6
156,138.28,128.58,6
154,138.60,128.83,6
154,138.91,129.08,6
160,139.33,129.39,6
160,139.74,129.70,6
159,140.13,129.99,6
166,140.64,130.35,6
163,141.09,130.68,6
161,141.49,130.98,6
161,141.88,131.28,6
159,142.22,131.56,6
162,142.62,131.86,6
165,143.07,132.19,6
165,143.50,132.52,6
164,143.91,132.84,6
163,144.30,133.14,6
165,144.71,133.46,6
165,145.12,133.77,6
163,145.47,134.06,6
163,145.82,134.35,6
163,146.17,134.64,6
165,146.54,134.94,6
164,146.89,135.23,6
163,147.22,135.51,6
164,147.55,135.80,6
167,147.94,136.11,6
167,148.32,136.42,6
166,148.68,136.71,6
167,149.04,137.02,6
169,149.44,137.34,6
172,149.89,137.68,6
172,150.33,138.03,6
169,150.71,138.34,6
171,151.11,138.66,6
170,151.49,138.98,6
169,151.84,139.28,6
171,152.22,139.59,6
175,152.68,139.95,6
176,153.15,140.31,6
173,153.54,140.63,6
174,153.95,140.97,6
178,154.43,141.34,6
178,154.90,141.70,6
175,155.31,142.04,6
180,155.80,142.42,6
178,156.24,142.77,6
180,156.72,143.15,6
179,157.17,143.50,6
179,157.60,143.86,6
181,158.07,144.23,6
180,158.51,144.59,6
179,158.92,144.93,6
179,159.32,145.27,6
179,159.71,145.61,6
181,160.14,145.96,6
181,160.56,146.31,6
180,160.95,146.65,6
180,161.33,146.98,6
180,161.70,147.31,6
179,162.05,147.63,6
183,162.47,147.99,6
183,162.88,148.34,6
181,163.24,148.66,6
185,163.67,149.03,6
186,164.12,149.40,6
185,164.54,149.75,6
182,164.89,150.07,6
183,165.25,150.40,6
182,165.58,150.72,6
185,165.97,151.06,6
185,166.35,151.40,6
186,166.75,151.75,6
185,167.11,152.08,6
189,167.55,152.45,6
193,168.06,152.85,6
194,168.58,153.27,6
189,168.99,153.62,6
192,169.45,154.01,6
197,170.00,154.44,6
193,170.46,154.82,6
195,170.95,155.22,6
195,171.43,155.62,6
196,171.92,156.03,6
195,172.38,156.42,6
196,172.85,156.81,6
199,173.38,157.23,6
199,173.89,157.65,6
201,174.43,158.08,6
201,174.96,158.51,6
200,175.46,158.93,6
202,175.99,159.36,6
203,176.53,159.80,6
201,177.02,160.21,6
200,177.48,160.61,6
203,177.99,161.03,6
201,178.45,161.43,6
202,178.92,161.84,6
202,179.39,162.24,6
201,179.82,162.62,6
203,180.28,163.03,6
207,180.82,163.47,6
205,181.30,163.88,6
205,181.77,164.29,6
208,182.30,164.73,6
205,182.75,165.13,6
206,183.22,165.54,6
209,183.73,165.98,6
208,184.22,166.40,6
208,184.69,166.81,6
211,185.22,167.26,6
209,185.70,167.67,6
207,186.12,168.07,6
207,186.54,168.46,6
208,186.97,168.85,6
206,187.35,169.22,6
207,187.74,169.60,6
206,188.11,169.96,6
205,188.45,170.31,6
208,188.84,170.69,6
207,189.20,171.05,6
207,189.56,171.41,6
207,189.90,171.77,6
210,190.31,172.15,6
210,190.70,172.53,6
209,191.07,172.90,6
208,191.41,173.25,6
210,191.78,173.61,6
209,192.12,173.97,6
208,192.44,174.31,6
209,192.77,174.66,6
211,193.13,175.02,6
209,193.45,175.36,6
211,193.80,175.71,6
209,194.11,176.05,6
210,194.43,176.39,6
213,194.80,176.75,6
213,195.16,177.12,6
212,195.50,177.46,6
212,195.83,177.81,6
213,196.17,178.16,6
215,196.55,178.53,6
219,197.00,178.93,6
213,197.32,179.28,6
217,197.71,179.65,6
220,198.16,180.06,6
216,198.51,180.42,6
218,198.90,180.79,6
218,199.28,181.16,6
217,199.64,181.52,6
215,199.95,181.86,6
217,200.29,182.21,6
217,200.62,182.56,6
217,200.95,182.90,6
216,201.25,183.23,6
217,201.57,183.57,6
217,201.87,183.90,6
217,202.18,184.23,6
216,202.45,184.55,6
215,202.70,184.86,6
215,202.95,185.16,6
215,203.19,185.46,6
216,203.45,185.76,6
216,203.70,186.06,6
216,203.94,186.36,6
215,204.17,186.65,6
215,204.38,186.93,6
214,204.57,187.20,6
215,204.78,187.48,6
214,204.97,187.75,6
215,205.17,188.02,6
214,205.34,188.28,6
214,205.52,188.54,6
213,205.67,188.78,6
214,205.83,189.03,6
213,205.98,189.27,6
213,206.12,189.51,6
212,206.24,189.74,6
211,206.33,189.95,6
212,206.44,190.17,6
211,206.54,190.38,6
212,206.64,190.59,6
211,206.73,190.80,6
213,206.86,191.02,6
211,206.94,191.22,6
211,207.02,191.42,6
212,207.12,191.62,6
213,207.24,191.84,6
210,207.29,192.02,6
211,207.37,192.21,6
209,207.40,192.38,6
210,207.45,192.55,6
209,207.48,192.72,6
209,207.51,192.88,6
209,207.54,193.04,6
208,207.55,193.19,6
208,207.56,193.34,6
208,207.57,193.49,6
208,207.58,193.63,6
207,207.57,193.76,6
207,207.56,193.90,6
207,207.54,194.03,6
207,207.53,194.16,6
206,207.50,194.28,6
206,207.47,194.39,6
205,207.42,194.50,6
206,207.40,194.61,6
205,207.35,194.72,6
204,207.28,194.81,6
204,207.21,194.90,6
203,207.13,194.98,6
203,207.05,195.06,6
203,206.97,195.14,6
203,206.89,195.22,6
202,206.79,195.29,6
201,206.67,195.35,6
202,206.58,195.41,6
203,206.51,195.49,6
201,206.40,195.54,6
202,206.31,195.61,6
199,206.16,195.64,6
202,206.08,195.71,6
201,205.98,195.76,6
201,205.88,195.81,6
201,205.78,195.86,6
201,205.69,195.91,6
201,205.59,195.97,6
200,205.48,196.01,6
199,205.35,196.04,6
199,205.22,196.07,6
201,205.14,196.11,6
199,205.02,196.14,6
199,204.90,196.17,6
198,204.76,196.19,6
197,204.60,196.20,6
198,204.47,196.22,6
197,204.32,196.22,6
197,204.18,196.23,6
198,204.05,196.25,6
197,203.91,196.26,6
196,203.75,196.25,6
196,203.60,196.25,6
195,203.43,196.24,6
195,203.26,196.23,6
196,203.11,196.23,6
195,202.95,196.21,6
194,202.77,196.19,6
195,202.62,196.18,6
194,202.44,196.16,6
195,202.29,196.15,6
193,202.11,196.11,6
193,201.93,196.08,6
193,201.75,196.05,6
193,201.57,196.02,6
192,201.38,195.98,6
193,201.21,195.95,6
192,201.03,195.91,6
192,200.85,195.87,6
192,200.67,195.83,6
193,200.52,195.81,6
191,200.33,195.76,6
191,200.14,195.71,6
190,199.94,195.65,6
189,199.72,195.59,6
190,199.53,195.53,6
189,199.32,195.47,6
189,199.11,195.40,6
189,198.91,195.34,6
189,198.71,195.27,6
188,198.49,195.20,6
189,198.30,195.14,6
188,198.10,195.07,6
187,197.88,194.99,6
188,197.68,194.92,6
187,197.47,194.84,6
184,197.20,194.73,6
188,197.01,194.66,6
186,196.79,194.58,6
185,196.56,194.48,6
185,196.32,194.38,6
185,196.10,194.29,6
186,195.90,194.21,6
185,195.68,194.12,6
185,195.46,194.02,6
184,195.24,193.92,6
184,195.01,193.83,6
183,194.77,193.72,6
185,194.58,193.63,6
183,194.34,193.52,6
182,194.10,193.41,6
183,193.88,193.30,6
182,193.64,193.19,6
181,193.38,193.07,6
182,193.16,192.96,6
181,192.91,192.84,7
181,192.68,192.72,7
181,192.44,192.60,7
181,192.21,192.49,7
180,191.97,192.36,7
181,191.75,192.25,7
180,191.51,192.13,7
179,191.26,192.00,7
180,191.04,191.88,7
179,190.80,191.75,7
180,190.58,191.63,7
180,190.37,191.51,7
178,190.12,191.38,7
179,189.90,191.25,7
177,189.64,191.11,7
178,189.41,190.98,7
177,189.16,190.84,7
177,188.92,190.70,7
177,188.68,190.56,7
178,188.47,190.44,7
177,188.24,190.30,7
175,187.97,190.15,7
176,187.73,190.01,7
177,187.52,189.88,7
177,187.31,189.75,7
177,187.10,189.62,7
175,186.86,189.48,7
176,186.64,189.34,7
175,186.41,189.20,7
175,186.18,189.06,7
175,185.96,188.92,7
177,185.78,188.80,7
175,185.56,188.66,7
175,185.35,188.52,7
175,185.14,188.39,7
174,184.92,188.24,7
175,184.72,188.11,7
175,184.53,187.98,7
174,184.32,187.84,7
174,184.11,187.70,7
173,183.89,187.56,7
173,183.67,187.41,7
173,183.46,187.27,7
174,183.27,187.13,7
173,183.06,186.99,7
172,182.84,186.84,7
173,182.65,186.70,7
171,182.41,186.55,7
173,182.22,186.41,7
171,182.00,186.26,7
171,181.78,186.10,7
172,181.58,185.96,7
171,181.37,185.81,7
172,181.19,185.68,7
170,180.96,185.52,7
171,180.76,185.37,7
169,180.53,185.21,7
169,180.30,185.05,7
170,180.09,184.90,7
172,179.93,184.77,7
169,179.71,184.61,7
169,179.50,184.45,7
169,179.29,184.30,7
171,179.12,184.17,7
169,178.92,184.02,7
169,178.72,183.87,7
169,178.53,183.72,7
169,178.34,183.57,7
169,178.15,183.42,7
167,177.93,183.26,7
168,177.73,183.11,7
169,177.55,182.97,7
168,177.36,182.82,7
168,177.17,182.67,7
169,177.01,182.53,7
165,176.77,182.36,7
168,176.59,182.21,7
167,176.40,182.06,7
167,176.22,181.91,7
165,175.99,181.74,7
166,175.79,181.58,7
165,175.58,181.42,7
167,175.40,181.27,7
165,175.20,181.11,7
165,174.99,180.95,7
166,174.81,180.80,7
166,174.64,180.65,7
165,174.44,180.50,7
165,174.25,180.34,7
165,174.07,180.19,7
165,173.89,180.03,7
165,173.71,179.88,7
165,173.54,179.74,7
165,173.36,179.59,7
165,173.20,179.44,7
166,173.05,179.31,7
165,172.89,179.16,7
164,172.71,179.01,7
164,172.54,178.86,7
163,172.35,178.70,7
164,172.18,178.56,7
164,172.02,178.41,7
163,171.84,178.26,7
163,171.66,178.11,7
163,171.49,177.95,7
162,171.30,177.79,7
163,171.13,177.65,7
161,170.93,177.48,7
163,170.77,177.34,7
161,170.58,177.17,7
162,170.40,177.02,7
161,170.22,176.86,7
162,170.05,176.71,7
161,169.87,176.55,7
161,169.69,176.40,7
161,169.52,176.24,7
161,169.35,176.09,7
161,169.18,175.94,7
161,169.02,175.79,7
159,168.82,175.62,7
161,168.66,175.48,7
161,168.51,175.33,7
161,168.36,175.19,7
160,168.19,175.04,7
160,168.03,174.89,7
159,167.85,174.73,7
159,167.67,174.57,7
160,167.52,174.43,7
159,167.35,174.27,7
160,167.20,174.13,7
157,167.00,173.96,7
159,166.84,173.81,7
159,166.68,173.66,7
159,166.53,173.51,7
159,166.37,173.37,7
159,166.23,173.22,7
159,166.08,173.08,7
159,165.94,172.94,7
159,165.80,172.80,7
158,165.65,172.65,7
160,165.53,172.53,7
159,165.40,172.39,7
158,165.25,172.25,7
157,165.09,172.10,7
156,164.91,171.93,7
157,164.75,171.79,7
159,164.63,171.66,7
157,164.48,171.51,7
157,164.33,171.37,7
157,164.19,171.22,7
157,164.04,171.08,7
157,163.90,170.94,7
156,163.74,170.79,7
156,163.59,170.64,7
155,163.42,170.49,7
157,163.29,170.35,7
157,163.16,170.22,7
156,163.02,170.08,7
155,162.86,169.92,7
156,162.72,169.79,7
155,162.57,169.64,7
156,162.44,169.50,7
154,162.27,169.35,7
154,162.10,169.19,7
153,161.92,169.03,7
154,161.76,168.88,7
154,161.61,168.73,7
153,161.43,168.57,7
153,161.27,168.42,7
153,161.10,168.26,7
153,160.94,168.11,7
153,160.78,167.96,7
154,160.64,167.82,7
153,160.49,167.67,7
153,160.34,167.53,7
153,160.19,167.38,7
153,160.05,167.24,7
153,159.91,167.09,7
153,159.77,166.95,7
152,159.62,166.80,7
152,159.46,166.66,7
151,159.29,166.50,7
152,159.15,166.35,7
151,158.99,166.20,7
151,158.83,166.05,7
152,158.69,165.91,7
151,158.54,165.76,7
152,158.40,165.62,7
152,158.28,165.49,7
152,158.15,165.35,7
151,158.01,165.21,7
152,157.89,165.07,7
151,157.75,164.93,7
152,157.63,164.80,7
151,157.50,164.67,7
152,157.39,164.54,7
151,157.26,164.40,7
151,157.14,164.27,7
151,157.02,164.14,7
151,156.90,164.01,7
151,156.78,163.88,7
150,156.64,163.74,7
150,156.51,163.60,7
150,156.38,163.46,7
150,156.25,163.33,7
150,156.13,163.20,7
149,155.98,163.05,7
149,155.84,162.91,7
152,155.77,162.80,7
149,155.63,162.67,7
149,155.50,162.53,7
149,155.37,162.39,7
148,155.22,162.25,7
147,155.06,162.10,7
149,154.94,161.97,7
147,154.78,161.82,7
149,154.66,161.69,7
147,154.51,161.54,7
147,154.36,161.40,7
147,154.21,161.25,7
147,154.07,161.11,7
147,153.93,160.97,7
146,153.77,160.82,7
147,153.63,160.68,7
144,153.44,160.51,7
145,153.27,160.36,7
147,153.15,160.23,7
147,153.02,160.09,7
147,152.90,159.96,7
146,152.76,159.82,7
146,152.63,159.69,7
145,152.48,159.54,7
145,152.33,159.39,7
146,152.20,159.26,7
145,152.06,159.12,7
146,151.94,158.99,7
146,151.82,158.86,7
147,151.72,158.74,7
146,151.61,158.61,7
147,151.51,158.49,7
145,151.38,158.36,7
144,151.24,158.21,7
145,151.11,158.08,7
145,150.99,157.95,7
146,150.89,157.83,7
146,150.79,157.71,7
145,150.68,157.59,7
145,150.56,157.46,7
147,150.49,157.36,7
145,150.38,157.23,7
145,150.27,157.11,7
145,150.17,156.99,7
144,150.04,156.86,7
144,149.92,156.73,7
144,149.81,156.60,7
144,149.69,156.48,7
143,149.56,156.34,7
143,149.42,156.21,7
143,149.30,156.08,7
143,149.17,155.95,7
143,149.05,155.82,7
143,148.93,155.69,7
143,148.81,155.56,7
146,148.75,155.47,7
141,148.60,155.32,7
142,148.46,155.19,7
141,148.31,155.05,7
141,148.17,154.91,7
141,148.02,154.77,7
141,147.88,154.63,7
142,147.77,154.50,7
142,147.65,154.38,7
141,147.52,154.24,7
141,147.39,154.11,7
141,147.26,153.98,7
141,147.14,153.85,7
141,147.01,153.72,7
142,146.91,153.61,7
142,146.81,153.49,7
141,146.70,153.36,7
140,146.56,153.23,7
141,146.45,153.11,7
141,146.34,152.99,7
141,146.24,152.87,7
139,146.09,152.73,7
141,145.99,152.61,7
139,145.85,152.48,7
139,145.71,152.34,7
139,145.58,152.21,7
140,145.47,152.09,7
139,145.34,151.95,7
140,145.23,151.83,7
139,145.11,151.71,7
139,144.98,151.58,7
139,144.86,151.45,7
140,144.77,151.34,7
139,144.65,151.22,7
139,144.54,151.09,7
137,144.39,150.95,7
139,144.28,150.83,7
139,144.17,150.71,7
140,144.09,150.61,7
138,143.97,150.48,7
138,143.85,150.36,7
137,143.71,150.22,7
138,143.60,150.10,7
139,143.51,149.99,7
137,143.38,149.86,7
138,143.27,149.74,7
138,143.16,149.62,7
139,143.08,149.52,7
137,142.96,149.39,7
137,142.84,149.27,7
137,142.72,149.15,7
139,142.65,149.04,7
137,142.54,148.92,7
138,142.44,148.81,7
138,142.36,148.71,7
135,142.21,148.57,7
137,142.10,148.45,7
137,142.00,148.34,7
137,141.90,148.23,7
137,141.80,148.11,7
137,141.71,148.00,7
137,141.61,147.89,7
137,141.52,147.78,7
137,141.43,147.68,7
137,141.34,147.57,7
135,141.22,147.44,7
137,141.13,147.34,7
136,141.03,147.23,7
135,140.91,147.10,7
137,140.83,147.00,7
136,140.73,146.89,7
135,140.62,146.77,7
135,140.51,146.66,7
135,140.40,146.54,7
135,140.29,146.42,7
136,140.20,146.32,7
135,140.10,146.21,7
135,140.00,146.09,7
134,139.88,145.97,7
134,139.76,145.85,7
134,139.64,145.73,7
135,139.55,145.63,7
134,139.44,145.51,7
135,139.35,145.41,7
133,139.22,145.28,7
133,139.10,145.16,7
133,138.98,145.04,7
135,138.90,144.94,7
134,138.80,144.83,7
135,138.72,144.73,7
133,138.61,144.61,7
133,138.50,144.50,7
135,138.43,144.40,7
135,138.36,144.31,7
136,138.31,144.22,7
133,138.21,144.11,7
135,138.14,144.02,7
134,138.06,143.92,7
133,137.96,143.81,7
133,137.86,143.70,7
133,137.76,143.60,7
133,137.67,143.49,7
135,137.61,143.41,7
133,137.52,143.30,7
134,137.45,143.21,7
132,137.34,143.10,7
133,137.25,143.00,7
133,137.17,142.90,7
133,137.09,142.80,7
133,137.00,142.70,7
131,136.88,142.58,7
133,136.81,142.49,7
132,136.71,142.38,7
133,136.64,142.29,7
131,136.52,142.17,7
133,136.45,142.08,7
131,136.34,141.97,7
130,136.22,141.85,7
132,136.13,141.75,7
132,136.05,141.66,7
131,135.95,141.55,7
132,135.87,141.45,7
133,135.81,141.37,7
131,135.72,141.27,7
132,135.64,141.17,7
131,135.55,141.07,7
130,135.44,140.96,7
130,135.33,140.85,7
131,135.24,140.75,7
130,135.14,140.64,7
129,135.02,140.53,7
129,134.89,140.41,7
131,134.82,140.32,7
129,134.70,140.21,7
129,134.59,140.09,7
129,134.47,139.98,7
131,134.41,139.89,7
129,134.30,139.78,7
129,134.19,139.68,7
129,134.09,139.57,7
129,133.99,139.46,7
130,133.91,139.37,7
128,133.79,139.26,7
128,133.67,139.14,7
130,133.60,139.05,7
129,133.51,138.95,7
129,133.42,138.85,7
129,133.33,138.75,7
129,133.24,138.66,7
127,133.12,138.54,7
129,133.03,138.44,7
129,132.95,138.35,7
128,132.85,138.25,7
129,132.78,138.15,7
127,132.66,138.04,7
128,132.57,137.94,7
128,132.48,137.84,7
128,132.39,137.74,7
127,132.28,137.64,7
127,132.17,137.53,7
127,132.07,137.42,7
126,131.95,137.31,7
127,131.85,137.21,7
127,131.75,137.10,7
127,131.66,137.00,7
127,131.57,136.90,7
126,131.45,136.79,7
125,131.33,136.68,7
127,131.24,136.58,7
125,131.11,136.46,7
125,130.99,136.35,7
125,130.87,136.24,7
125,130.75,136.12,7
125,130.64,136.01,7
125,130.53,135.90,7
125,130.42,135.79,7
125,130.31,135.69,7
125,130.20,135.58,7
125,130.10,135.47,7
125,130.00,135.37,7
125,129.90,135.26,7
125,129.80,135.16,7
125,129.70,135.06,7
125,129.61,134.96,7
123,129.48,134.84,7
125,129.39,134.74,7
124,129.28,134.63,7
124,129.17,134.53,7
123,129.05,134.41,7
123,128.93,134.30,7
124,128.83,134.20,7
123,128.71,134.08,7
123,128.60,133.97,7
123,128.49,133.86,7
123,128.38,133.75,7
123,128.27,133.65,7
123,128.16,133.54,7
122,128.04,133.42,7
121,127.90,133.30,7
121,127.76,133.18,7
122,127.65,133.07,7
121,127.51,132.95,7
121,127.38,132.83,7
121,127.26,132.71,7
119,127.09,132.57,7
121,126.97,132.45,7
121,126.85,132.34,7
120,126.71,132.22,7
120,126.58,132.09,7
121,126.47,131.98,7
121,126.36,131.87,7
120,126.23,131.76,7
120,126.11,131.64,7
121,126.00,131.53,7
121,125.90,131.43,7
120,125.79,131.31,7
119,125.65,131.19,7
121,125.56,131.09,7
119,125.43,130.97,7
120,125.32,130.86,7
117,125.15,130.72,7
119,125.03,130.60,7
120,124.93,130.49,7
121,124.85,130.40,7
119,124.73,130.29,7
121,124.66,130.19,7
120,124.56,130.09,7
119,124.45,129.98,7
119,124.34,129.87,7
119,124.24,129.76,7
118,124.11,129.64,7
119,124.01,129.54,7
120,123.93,129.44,7
119,123.83,129.34,7
119,123.73,129.23,7
119,123.64,129.13,7
119,123.55,129.03,7
117,123.42,128.91,7
118,123.31,128.80,7
120,123.24,128.71,7
118,123.14,128.61,7
118,123.03,128.50,7
119,122.95,128.40,7
121,122.91,128.33,7
117,122.80,128.22,7
118,122.70,128.12,7
117,122.59,128.00,7
119,122.51,127.91,7
118,122.42,127.81,7
119,122.36,127.73,7
117,122.25,127.62,7
119,122.18,127.53,7
117,122.08,127.43,7
117,121.98,127.32,7
117,121.88,127.22,7
118,121.80,127.13,7
118,121.73,127.04,7
119,121.67,126.96,7
117,121.58,126.86,7
114,121.43,126.73,7
118,121.36,126.64,7
117,121.27,126.54,7
118,121.20,126.46,7
117,121.12,126.36,7
117,121.04,126.27,7
117,120.96,126.18,7
117,120.88,126.09,7
116,120.78,125.99,7
116,120.68,125.89,7
117,120.61,125.80,7
117,120.54,125.71,7
116,120.45,125.61,7
117,120.38,125.53,7
116,120.29,125.43,7
117,120.23,125.35,7
117,120.16,125.26,7
116,120.08,125.17,7
117,120.02,125.09,7
116,119.94,125.00,7
117,119.88,124.92,7
117,119.82,124.84,7
116,119.74,124.75,7
116,119.67,124.66,7
117,119.62,124.59,7
116,119.54,124.50,7
116,119.47,124.42,7
116,119.40,124.33,7
117,119.35,124.26,7
115,119.27,124.17,7
116,119.20,124.08,7
116,119.14,124.00,7
115,119.06,123.91,7
116,118.99,123.83,7
115,118.91,123.75,7
116,118.86,123.67,7
115,118.78,123.58,7
116,118.72,123.51,7
115,118.65,123.42,7
120,118.68,123.39,7
115,118.60,123.30,7
115,118.53,123.22,7
115,118.46,123.14,7
115,118.39,123.06,7
114,118.30,122.96,7
116,118.26,122.90,7
114,118.17,122.81,7
115,118.11,122.73,7
115,118.05,122.65,7
114,117.97,122.56,7
115,117.91,122.49,7
114,117.83,122.40,7
113,117.73,122.31,7
115,117.68,122.24,7
113,117.58,122.14,7
113,117.49,122.05,7
113,117.40,121.96,7
114,117.33,121.88,7
113,117.25,121.79,7
114,117.18,121.72,7
113,117.10,121.63,7
113,117.02,121.54,7
114,116.96,121.47,7
113,116.88,121.38,7
113,116.80,121.30,7
113,116.72,121.22,7
114,116.67,121.14,7
114,116.62,121.07,7
113,116.54,120.99,7
113,116.47,120.91,7
113,116.40,120.83,7
113,116.33,120.75,7
113,116.27,120.68,7
113,116.20,120.60,7
113,116.14,120.52,7
113,116.08,120.45,7
113,116.01,120.37,7
114,115.97,120.31,7
116,115.97,120.27,7
113,115.92,120.19,7
113,115.86,120.12,7
113,115.80,120.05,7
111,115.70,119.96,7
111,115.61,119.87,7
112,115.54,119.79,7
112,115.47,119.71,7
113,115.42,119.65,7
112,115.35,119.57,7
111,115.26,119.49,7
113,115.22,119.42,7
113,115.17,119.36,7
112,115.11,119.28,7
113,115.07,119.22,7
111,114.99,119.14,7
111,114.91,119.06,7
111,114.83,118.98,7
111,114.75,118.90,7
109,114.64,118.80,7
111,114.56,118.72,7
111,114.49,118.64,7
110,114.40,118.56,7
111,114.33,118.48,7
111,114.27,118.41,7
111,114.20,118.33,7
111,114.14,118.26,7
111,114.08,118.19,7
110,113.99,118.10,7
110,113.91,118.02,7
111,113.86,117.95,7
111,113.80,117.88,7
110,113.72,117.80,7
111,113.67,117.74,7
109,113.57,117.65,7
109,113.48,117.56,7
109,113.39,117.48,7
110,113.33,117.40,7
111,113.28,117.34,7
110,113.21,117.26,7
109,113.13,117.18,7
109,113.05,117.10,7
111,113.01,117.04,7
110,112.95,116.97,7
111,112.91,116.91,7
111,112.87,116.85,7
110,112.81,116.78,7
109,112.74,116.70,7
111,112.70,116.65,7
111,112.67,116.59,7
111,112.63,116.53,7
109,112.56,116.46,7
110,112.51,116.39,7
110,112.46,116.33,7
111,112.43,116.28,7
112,112.42,116.23,7
109,112.35,116.16,7
109,112.29,116.09,7
109,112.22,116.02,7
111,112.20,115.97,7
109,112.13,115.90,7
111,112.11,115.85,7
110,112.07,115.79,7
109,112.01,115.72,7
109,111.95,115.66,7
111,111.93,115.61,7
109,111.87,115.54,7
109,111.81,115.48,7
109,111.75,115.41,7
110,111.72,115.36,7
109,111.67,115.30,7
106,111.55,115.20,7
110,111.52,115.15,7
111,111.51,115.11,7
111,111.50,115.07,7
109,111.45,115.01,7
109,111.40,114.95,7
112,111.41,114.92,7
110,111.38,114.87,7
109,111.34,114.81,7
109,111.29,114.75,7
110,111.26,114.70,7
112,111.28,114.68,7
111,111.27,114.64,7
110,111.25,114.59,7
111,111.24,114.56,7
112,111.26,114.53,7
111,111.25,114.50,7
111,111.25,114.46,7
111,111.24,114.43,7
111,111.24,114.39,7
111,111.23,114.36,7
111,111.23,114.33,7
111,111.22,114.29,7
112,111.24,114.27,7
111,111.24,114.24,7
112,111.25,114.21,7
113,111.29,114.20,7
112,111.30,114.18,7
113,111.33,114.17,7
111,111.33,114.14,7
111,111.32,114.11,7
111,111.31,114.07,7
112,111.33,114.05,7
112,111.34,114.03,7
113,111.37,114.02,7
113,111.41,114.01,7
113,111.44,114.00,7
111,111.43,113.97,7
112,111.44,113.95,7
115,111.51,113.96,7
112,111.52,113.94,7
113,111.55,113.93,7
111,111.54,113.90,7
113,111.57,113.90,7
112,111.58,113.88,7
112,111.59,113.86,7
113,111.62,113.85,7
114,111.66,113.85,7
113,111.69,113.84,7
113,111.72,113.83,7
111,111.70,113.81,7
111,111.69,113.78,7
111,111.67,113.75,7
113,111.70,113.74,7
112,111.71,113.73,7
113,111.73,113.72,7
112,111.74,113.70,7
112,111.74,113.68,7
113,111.77,113.68,7
112,111.77,113.66,7
113,111.80,113.65,7
113,111.82,113.65,7
113,111.84,113.64,7
113,111.87,113.63,7
116,111.95,113.66,7
113,111.97,113.65,7
114,112.01,113.65,7
116,112.09,113.68,7
115,112.15,113.69,7
116,112.23,113.71,7
116,112.30,113.74,7
117,112.40,113.77,7
115,112.45,113.78,7
116,112.52,113.80,7
115,112.57,113.82,7
117,112.66,113.85,7
117,112.74,113.88,7
117,112.83,113.91,7
116,112.89,113.93,7
117,112.98,113.96,7
115,113.02,113.97,7
117,113.10,114.00,7
117,113.17,114.03,7
117,113.25,114.06,7
119,113.37,114.11,7
119,113.48,114.16,7
119,113.59,114.21,7
118,113.68,114.25,7
117,113.74,114.27,7
119,113.85,114.32,7
117,113.91,114.35,7
117,113.97,114.38,7
118,114.05,114.41,7
119,114.15,114.46,7
118,114.23,114.49,7
119,114.32,114.54,7
120,114.44,114.59,7
117,114.49,114.62,7
119,114.58,114.66,7
117,114.63,114.68,7
119,114.72,114.73,7
117,114.76,114.75,7
118,114.83,114.78,7
119,114.91,114.82,7
119,114.99,114.87,7
117,115.03,114.89,7
119,115.11,114.93,7
117,115.15,114.95,7
118,115.21,114.98,7
118,115.26,115.01,7
120,115.36,115.06,7
119,115.43,115.10,7
118,115.48,115.13,7
118,115.53,115.16,7
120,115.62,115.21,7
119,115.69,115.24,7
121,115.79,115.30,7
123,115.94,115.38,7
122,116.06,115.44,7
119,116.12,115.48,7
121,116.22,115.54,7
122,116.33,115.60,7
123,116.47,115.67,7
121,116.56,115.73,7
122,116.66,115.79,7
124,116.81,115.87,7
125,116.98,115.96,7
123,117.10,116.03,7
123,117.21,116.10,7
122,117.31,116.16,7
123,117.42,116.23,7
121,117.49,116.28,7
123,117.60,116.35,7
127,117.79,116.45,7
123,117.90,116.52,7
124,118.02,116.59,7
123,118.12,116.66,7
125,118.26,116.74,7
123,118.35,116.80,7
125,118.48,116.88,7
126,118.63,116.98,7
125,118.76,117.06,7
124,118.87,117.13,7
124,118.97,117.19,7
125,119.09,117.27,7
125,119.21,117.35,7
125,119.32,117.43,7
127,119.48,117.52,7
125,119.59,117.60,7
124,119.68,117.66,7
127,119.82,117.75,7
127,119.97,117.85,7
125,120.07,117.92,7
126,120.19,118.00,7
127,120.32,118.09,7
126,120.44,118.17,7
127,120.57,118.26,7
127,120.70,118.34,7
127,120.82,118.43,7
127,120.94,118.52,7
127,121.07,118.60,7
129,121.22,118.70,7
132,121.44,118.84,7
128,121.57,118.93,7
130,121.74,119.04,7
129,121.89,119.14,7
130,122.05,119.25,7
131,122.23,119.37,7
132,122.42,119.49,7
130,122.57,119.60,7
131,122.74,119.71,7
131,122.91,119.82,7
133,123.11,119.96,7
132,123.29,120.08,7
131,123.44,120.19,7
131,123.59,120.29,7
131,123.74,120.40,7
132,123.91,120.52,7
131,124.05,120.62,7
131,124.19,120.73,7
129,124.28,120.81,7
130,124.40,120.90,7
131,124.53,121.00,7
132,124.68,121.11,7
132,124.83,121.22,7
