Teste de posicionamento 1(EMG ao centro do bíceps (Vermelho A, Verde B) + Ref no pulso) - 19/10/2024 - teste10 - 5 contrações
long frequencia = 1000;                 //frequência de aquisição do sinal, neste caso, 1000 sinais por segundo
float fator1 = 0.02, fator2 = 0.01;
float incerteza = 0.13;
float pico_basal = 130; // Mínimo para ser considerado um pico de contração
int filtro_horizontal=200000; //intervalo de 200ms valores não pode ter mais de 1 contração

Biceps_D,mediaMovel_1,mediaMovel_2,Contracao
108,2.16,1.08,0
107,4.26,2.14,0
108,6.33,3.20,0
108,8.37,4.25,0
108,10.36,5.28,0
108,12.31,6.31,0
108,14.22,7.33,0
107,16.08,8.32,0
107,17.90,9.31,0
108,19.70,10.30,0
108,21.47,11.27,0
108,23.20,12.24,0
108,24.89,13.20,0
108,26.56,14.15,0
108,28.18,15.09,0
109,29.80,16.03,0
109,31.38,16.96,0
108,32.92,17.87,0
108,34.42,18.77,0
108,35.89,19.66,0
108,37.33,20.54,0
109,38.77,21.43,0
108,40.15,22.29,0
107,41.49,23.14,0
108,42.82,23.99,0
110,44.16,24.85,0
107,45.42,25.67,0
108,46.67,26.49,0
107,47.88,27.30,0
107,49.06,28.10,0
108,50.24,28.89,0
108,51.39,29.69,0
108,52.52,30.47,0
109,53.65,31.25,0
110,54.78,32.04,0
109,55.87,32.81,0
108,56.91,33.56,0
108,57.93,34.31,0
107,58.91,35.03,0
108,59.89,35.76,0
108,60.86,36.49,0
107,61.78,37.19,0
108,62.70,37.90,0
107,63.59,38.59,0
108,64.48,39.28,0
108,65.35,39.97,0
108,66.20,40.65,0
106,67.00,41.31,0
109,67.84,41.98,0
110,68.68,42.66,0
107,69.45,43.31,0
108,70.22,43.95,0
107,70.95,44.58,0
107,71.67,45.21,0
108,72.40,45.84,0
108,73.11,46.46,0
107,73.79,47.06,0
108,74.47,47.67,0
108,75.14,48.28,0
107,75.78,48.86,0
108,76.43,49.45,0
108,77.06,50.04,0
107,77.66,50.61,0
109,78.28,51.19,0
109,78.90,51.77,0
108,79.48,52.33,0
107,80.03,52.88,0
107,80.57,53.42,0
107,81.10,53.96,0
105,81.58,54.47,0
108,82.10,55.00,0
107,82.60,55.52,0
108,83.11,56.05,0
107,83.59,56.56,0
108,84.08,57.07,0
110,84.60,57.60,0
107,85.04,58.09,0
107,85.48,58.58,0
108,85.93,59.08,0
107,86.35,59.56,0
106,86.75,60.02,0
108,87.17,60.50,0
108,87.59,60.98,0
105,87.94,61.42,0
108,88.34,61.88,0
107,88.71,62.33,0
107,89.08,62.78,0
108,89.46,63.23,0
106,89.79,63.66,0
107,90.13,64.09,0
107,90.47,64.52,0
107,90.80,64.95,0
108,91.14,65.38,0
106,91.44,65.78,0
107,91.75,66.20,0
107,92.06,66.60,0
107,92.36,67.01,0
107,92.65,67.41,0
107,92.93,67.80,0
107,93.22,68.20,0
107,93.49,68.58,0
108,93.78,68.98,0
107,94.05,69.36,0
108,94.33,69.74,0
108,94.60,70.13,0
108,94.87,70.51,0
107,95.11,70.87,0
108,95.37,71.24,0
108,95.62,71.61,0
107,95.85,71.96,0
105,96.03,72.29,0
107,96.25,72.64,0
107,96.47,72.98,0
108,96.70,73.34,0
106,96.88,73.66,0
105,97.04,73.98,0
106,97.22,74.30,0
107,97.42,74.62,0
107,97.61,74.95,0
108,97.82,75.28,0
106,97.98,75.58,0
107,98.16,75.90,0
107,98.34,76.21,0
107,98.51,76.52,0
107,98.68,76.82,0
107,98.85,77.12,0
107,99.01,77.42,0
107,99.17,77.72,0
107,99.33,78.01,0
107,99.48,78.30,0
106,99.61,78.58,0
106,99.74,78.85,0
106,99.86,79.12,0
106,99.99,79.39,0
107,100.13,79.67,0
107,100.27,79.94,0
107,100.40,80.21,0
107,100.53,80.48,0
106,100.64,80.74,0
107,100.77,81.00,0
106,100.87,81.25,0
106,100.98,81.50,0
106,101.08,81.74,0
107,101.19,81.99,0
106,101.29,82.23,0
106,101.38,82.47,0
105,101.46,82.70,0
106,101.55,82.93,0
110,101.72,83.20,0
107,101.82,83.44,0
105,101.89,83.65,0
105,101.95,83.87,0
106,102.03,84.09,0
108,102.15,84.33,0
106,102.23,84.54,0
106,102.30,84.76,0
106,102.38,84.97,0
108,102.49,85.20,0
106,102.56,85.41,0
106,102.63,85.62,0
106,102.69,85.82,0
105,102.74,86.01,0
107,102.83,86.22,0
108,102.93,86.44,0
107,103.01,86.64,0
107,103.09,86.85,0
106,103.15,87.04,0
111,103.31,87.28,0
106,103.36,87.47,0
107,103.43,87.66,0
106,103.48,87.84,0
107,103.55,88.04,0
106,103.60,88.22,0
105,103.63,88.38,0
106,103.68,88.56,0
108,103.76,88.75,0
107,103.83,88.94,0
108,103.91,89.13,0
106,103.95,89.30,0
105,103.98,89.45,0
107,104.04,89.63,0
107,104.10,89.80,0
106,104.13,89.96,0
108,104.21,90.14,0
106,104.25,90.30,0
107,104.30,90.47,0
106,104.34,90.63,0
106,104.37,90.78,0
108,104.44,90.95,0
106,104.47,91.10,0
106,104.50,91.25,0
108,104.57,91.42,0
106,104.60,91.56,0
106,104.63,91.71,0
106,104.66,91.85,0
107,104.70,92.00,0
106,104.73,92.14,0
106,104.76,92.28,0
106,104.78,92.42,0
106,104.80,92.55,0
106,104.83,92.69,0
107,104.87,92.83,0
106,104.89,92.96,0
106,104.92,93.09,0
106,104.94,93.22,0
106,104.96,93.35,0
108,105.02,93.50,0
106,105.04,93.62,0
106,105.06,93.75,0
108,105.12,93.89,0
106,105.14,94.01,0
107,105.17,94.14,0
107,105.21,94.27,0
107,105.25,94.40,0
106,105.26,94.51,0
108,105.32,94.65,0
108,105.37,94.78,0
109,105.44,94.92,0
108,105.49,95.05,0
108,105.54,95.18,0
110,105.63,95.33,0
108,105.68,95.46,0
108,105.73,95.58,0
109,105.79,95.72,0
108,105.84,95.84,0
108,105.88,95.96,0
108,105.92,96.08,0
108,105.96,96.20,0
107,105.98,96.31,0
108,106.02,96.43,0
108,106.06,96.54,0
107,106.08,96.65,0
108,106.12,96.76,0
108,106.16,96.87,0
108,106.19,96.98,0
108,106.23,97.09,0
108,106.27,97.20,0
108,106.30,97.31,0
108,106.33,97.42,0
108,106.37,97.52,0
107,106.38,97.62,0
107,106.39,97.71,0
107,106.41,97.81,0
108,106.44,97.91,0
103,106.37,97.96,0
107,106.38,98.05,0
106,106.37,98.13,0
107,106.39,98.22,0
106,106.38,98.29,0
108,106.41,98.39,0
107,106.42,98.48,0
107,106.43,98.56,0
108,106.47,98.66,0
108,106.50,98.75,0
106,106.49,98.82,0
107,106.50,98.90,0
106,106.49,98.98,0
107,106.50,99.06,0
106,106.49,99.13,0
107,106.50,99.20,0
106,106.49,99.27,0
106,106.48,99.34,0
106,106.47,99.41,0
107,106.48,99.48,0
106,106.47,99.55,0
107,106.48,99.62,0
106,106.47,99.69,0
107,106.48,99.76,0
106,106.47,99.82,0
107,106.48,99.89,0
107,106.49,99.96,0
106,106.48,100.02,0
107,106.49,100.09,0
106,106.48,100.15,0
109,106.53,100.24,0
107,106.54,100.31,0
107,106.55,100.38,0
105,106.52,100.42,0
107,106.53,100.49,0
107,106.54,100.55,0
107,106.55,100.62,0
107,106.56,100.68,0
107,106.57,100.74,0
108,106.60,100.82,0
108,106.62,100.89,0
108,106.65,100.96,0
107,106.66,101.02,0
107,106.66,101.08,0
107,106.67,101.14,0
107,106.68,101.20,0
107,106.68,101.26,0
108,106.71,101.32,0
105,106.68,101.36,0
106,106.66,101.41,0
107,106.67,101.46,0
107,106.68,101.52,0
107,106.68,101.57,0
107,106.69,101.63,0
104,106.64,101.65,0
107,106.64,101.70,0
107,106.65,101.76,0
107,106.66,101.81,0
106,106.64,101.85,0
107,106.65,101.90,0
107,106.66,101.95,0
105,106.62,101.98,0
107,106.63,102.03,0
106,106.62,102.07,0
107,106.63,102.12,0
105,106.59,102.15,0
106,106.58,102.19,0
107,106.59,102.24,0
106,106.58,102.28,0
106,106.57,102.31,0
106,106.56,102.35,0
105,106.53,102.38,0
106,106.51,102.41,0
107,106.52,102.46,0
107,106.53,102.50,0
106,106.52,102.54,0
105,106.49,102.56,0
105,106.46,102.59,0
105,106.43,102.61,0
107,106.44,102.66,0
105,106.42,102.68,0
105,106.39,102.70,0
105,106.36,102.73,0
106,106.35,102.76,0
105,106.33,102.78,0
106,106.32,102.81,0
105,106.29,102.84,0
105,106.27,102.86,0
106,106.26,102.89,0
105,106.24,102.91,0
106,106.23,102.94,0
106,106.23,102.97,0
107,106.24,103.01,0
109,106.30,103.07,0
105,106.27,103.09,0
105,106.25,103.11,0
105,106.22,103.13,0
105,106.20,103.15,0
105,106.17,103.17,0
105,106.15,103.18,0
105,106.13,103.20,0
106,106.12,103.23,0
106,106.12,103.26,0
105,106.10,103.28,0
105,106.08,103.29,0
105,106.06,103.31,0
105,106.03,103.33,0
105,106.01,103.34,0
105,105.99,103.36,0
103,105.93,103.36,0
106,105.94,103.38,0
107,105.96,103.42,0
105,105.94,103.43,0
107,105.96,103.47,0
105,105.94,103.49,0
106,105.94,103.51,0
106,105.94,103.54,0
107,105.96,103.57,0
105,105.94,103.58,0
106,105.94,103.61,0
105,105.93,103.62,0
105,105.91,103.64,0
107,105.93,103.67,0
105,105.91,103.68,0
106,105.91,103.71,0
106,105.91,103.73,0
105,105.90,103.74,0
106,105.90,103.76,0
108,105.94,103.81,0
107,105.96,103.84,0
106,105.96,103.86,0
106,105.96,103.88,0
106,105.96,103.90,0
106,105.96,103.92,0
107,105.98,103.96,0
105,105.97,103.97,0
105,105.95,103.98,0
105,105.93,103.99,0
107,105.95,104.02,0
106,105.95,104.04,0
106,105.95,104.06,0
105,105.93,104.07,0
105,105.91,104.07,0
105,105.89,104.08,0
105,105.88,104.09,0
105,105.86,104.10,0
105,105.84,104.11,0
106,105.85,104.13,0
105,105.83,104.14,0
107,105.85,104.17,0
105,105.83,104.18,0
107,105.86,104.20,0
105,105.84,104.21,0
105,105.82,104.22,0
105,105.81,104.23,0
106,105.81,104.25,0
105,105.80,104.25,0
106,105.80,104.27,0
106,105.80,104.29,0
105,105.79,104.29,0
105,105.77,104.30,0
105,105.76,104.31,0
106,105.76,104.33,0
106,105.77,104.34,0
104,105.73,104.34,0
106,105.74,104.36,0
108,105.78,104.39,0
106,105.79,104.41,0
107,105.81,104.43,0
106,105.81,104.45,0
107,105.84,104.48,0
107,105.86,104.50,0
108,105.90,104.54,0
107,105.93,104.56,0
106,105.93,104.57,0
108,105.97,104.61,0
107,105.99,104.63,0
107,106.01,104.66,0
107,106.03,104.68,0
107,106.05,104.70,0
107,106.07,104.73,0
107,106.09,104.75,0
106,106.08,104.76,0
108,106.12,104.79,0
107,106.14,104.82,0
108,106.18,104.85,0
108,106.21,104.88,0
107,106.23,104.90,0
108,106.26,104.93,0
108,106.30,104.96,0
107,106.31,104.98,0
107,106.33,105.00,0
108,106.36,105.03,0
108,106.39,105.06,0
109,106.45,105.10,0
109,106.50,105.14,0
109,106.55,105.18,0
110,106.62,105.23,0
111,106.70,105.28,0
110,106.77,105.33,0
111,106.85,105.39,0
111,106.94,105.44,0
111,107.02,105.50,0
107,107.02,105.52,0
111,107.10,105.57,0
111,107.18,105.62,0
111,107.25,105.68,0
111,107.33,105.73,0
111,107.40,105.78,0
111,107.47,105.84,0
111,107.54,105.89,0
111,107.61,105.94,0
111,107.68,105.99,0
111,107.75,106.04,0
111,107.81,106.09,0
111,107.88,106.14,0
111,107.94,106.19,0
111,108.00,106.24,0
111,108.06,106.28,0
111,108.12,106.33,0
111,108.18,106.38,0
113,108.27,106.44,0
111,108.33,106.49,0
112,108.40,106.54,0
113,108.49,106.61,0
112,108.56,106.66,0
114,108.67,106.74,0
113,108.76,106.80,0
113,108.84,106.86,0
113,108.93,106.92,0
113,109.01,106.98,0
113,109.09,107.04,0
113,109.17,107.10,0
113,109.24,107.16,0
113,109.32,107.22,0
113,109.39,107.28,0
114,109.48,107.34,0
113,109.55,107.40,0
113,109.62,107.46,0
113,109.69,107.51,0
113,109.76,107.57,0
113,109.82,107.62,0
116,109.94,107.71,0
114,110.03,107.77,0
113,110.09,107.82,0
113,110.14,107.87,0
113,110.20,107.92,0
115,110.30,107.99,0
113,110.35,108.04,0
113,110.40,108.09,0
113,110.46,108.14,0
113,110.51,108.19,0
113,110.56,108.24,0
114,110.63,108.30,0
113,110.67,108.34,0
113,110.72,108.39,0
114,110.78,108.45,0
113,110.83,108.49,0
112,110.85,108.53,0
114,110.92,108.58,0
113,110.96,108.63,0
113,111.00,108.67,0
113,111.04,108.71,0
113,111.08,108.76,0
113,111.12,108.80,0
113,111.15,108.84,0
113,111.19,108.88,0
113,111.23,108.92,0
113,111.26,108.96,0
113,111.30,109.00,0
114,111.35,109.05,0
113,111.38,109.09,0
113,111.42,109.13,0
113,111.45,109.17,0
113,111.48,109.21,0
113,111.51,109.25,0
114,111.56,109.30,0
113,111.59,109.33,0
113,111.62,109.37,0
113,111.64,109.41,0
113,111.67,109.44,0
113,111.70,109.48,0
114,111.74,109.52,0
113,111.77,109.56,0
114,111.81,109.60,0
113,111.84,109.64,0
113,111.86,109.67,0
115,111.92,109.72,0
113,111.94,109.76,0
114,111.99,109.80,0
116,112.07,109.86,0
115,112.12,109.91,0
115,112.18,109.96,0
115,112.24,110.01,0
114,112.27,110.05,0
115,112.33,110.10,0
116,112.40,110.16,0
116,112.47,110.22,0
116,112.54,110.28,0
116,112.61,110.33,0
115,112.66,110.38,0
115,112.71,110.43,0
117,112.79,110.49,0
115,112.84,110.54,0
116,112.90,110.59,0
116,112.96,110.65,0
115,113.00,110.69,0
115,113.04,110.73,0
117,113.12,110.80,0
116,113.18,110.85,0
117,113.26,110.91,0
117,113.33,110.97,0
118,113.43,111.04,0
118,113.52,111.11,0
119,113.63,111.19,0
118,113.71,111.26,0
118,113.80,111.32,0
117,113.86,111.38,0
118,113.95,111.45,0
119,114.05,111.52,0
119,114.15,111.60,0
119,114.24,111.67,0
117,114.30,111.73,0
118,114.37,111.79,0
118,114.45,111.85,0
119,114.54,111.92,0
117,114.59,111.97,0
119,114.67,112.04,0
119,114.76,112.11,0
119,114.85,112.18,0
120,114.95,112.26,0
119,115.03,112.33,0
120,115.13,112.40,0
120,115.23,112.48,0
121,115.34,112.56,0
120,115.43,112.64,0
121,115.55,112.72,0
120,115.64,112.80,0
121,115.74,112.88,0
123,115.89,112.98,0
123,116.03,113.08,0
123,116.17,113.18,0
124,116.33,113.29,0
123,116.46,113.38,0
123,116.59,113.48,0
124,116.74,113.58,0
123,116.86,113.68,0
123,116.99,113.77,0
123,117.11,113.86,0
123,117.22,113.96,0
123,117.34,114.05,0
124,117.47,114.15,0
119,117.50,114.19,0
125,117.65,114.30,0
125,117.80,114.41,0
124,117.92,114.51,0
125,118.07,114.61,0
125,118.20,114.71,0
125,118.34,114.82,0
125,118.47,114.92,0
125,118.60,115.02,0
125,118.73,115.12,0
127,118.90,115.24,0
126,119.04,115.35,0
127,119.20,115.46,0
125,119.31,115.56,0
125,119.43,115.65,0
125,119.54,115.75,0
125,119.65,115.84,0
125,119.76,115.93,0
125,119.86,116.02,0
127,120.00,116.13,0
127,120.14,116.24,0
127,120.28,116.35,0
127,120.42,116.45,0
127,120.55,116.56,0
126,120.66,116.65,0
125,120.74,116.74,0
126,120.85,116.83,0
126,120.95,116.92,0
126,121.05,117.01,0
125,121.13,117.09,0
127,121.25,117.19,0
129,121.40,117.31,0
127,121.52,117.41,0
127,121.63,117.50,0
129,121.77,117.62,0
129,121.92,117.73,0
130,122.08,117.85,0
130,122.24,117.97,0
129,122.37,118.08,0
133,122.59,118.23,0
129,122.71,118.34,0
129,122.84,118.45,0
132,123.02,118.58,0
133,123.22,118.73,0
132,123.40,118.86,0
135,123.63,119.02,0
136,123.88,119.19,0
136,124.12,119.36,0
137,124.38,119.54,0
137,124.63,119.71,0
138,124.90,119.89,0
139,125.18,120.08,0
137,125.42,120.25,0
137,125.65,120.42,0
139,125.91,120.61,0
136,126.12,120.76,0
138,126.35,120.93,0
139,126.61,121.11,0
139,126.85,121.29,0
141,127.14,121.49,0
141,127.41,121.69,0
141,127.69,121.88,0
142,127.97,122.08,0
141,128.23,122.27,0
141,128.49,122.46,0
143,128.78,122.66,0
141,129.02,122.85,0
141,129.26,123.03,0
143,129.54,123.23,0
143,129.81,123.42,0
143,130.07,123.62,0
145,130.37,123.83,0
143,130.62,124.03,0
145,130.91,124.24,0
143,131.15,124.42,0
145,131.43,124.63,0
145,131.70,124.83,0
145,131.97,125.03,0
144,132.21,125.22,0
145,132.46,125.42,0
145,132.71,125.62,0
145,132.96,125.81,0
146,133.22,126.01,0
145,133.46,126.20,0
145,133.69,126.39,0
145,133.91,126.58,0
145,134.13,126.76,0
145,134.35,126.94,0
148,134.62,127.15,0
145,134.83,127.33,0
145,135.04,127.51,0
147,135.27,127.70,0
147,135.51,127.90,0
147,135.74,128.09,0
148,135.98,128.29,0
147,136.20,128.47,0
148,136.44,128.67,0
148,136.67,128.86,0
147,136.88,129.04,0
148,137.10,129.23,0
147,137.30,129.41,0
147,137.49,129.59,0
147,137.68,129.76,0
149,137.91,129.95,0
149,138.13,130.14,0
149,138.35,130.33,0
150,138.58,130.53,0
151,138.83,130.73,0
151,139.07,130.94,0
154,139.37,131.17,0
152,139.62,131.38,0
153,139.89,131.59,0
153,140.15,131.81,0
154,140.43,132.03,0
154,140.70,132.25,0
153,140.95,132.46,0
154,141.21,132.67,0
156,141.50,132.90,0
156,141.79,133.13,0
155,142.06,133.35,0
157,142.36,133.59,0
159,142.69,133.84,0
163,143.10,134.14,0
161,143.45,134.40,0
161,143.81,134.67,0
163,144.19,134.95,0
165,144.61,135.25,0
163,144.97,135.53,0
164,145.35,135.82,0
166,145.77,136.12,0
165,146.15,136.41,0
165,146.53,136.69,0
164,146.88,136.97,0
167,147.28,137.27,0
167,147.68,137.56,0
168,148.08,137.87,0
167,148.46,138.16,0
169,148.87,138.47,0
171,149.31,138.79,0
173,149.79,139.14,0
173,150.25,139.47,0
175,150.75,139.83,0
173,151.19,140.16,0
177,151.71,140.53,0
179,152.25,140.91,0
179,152.79,141.29,0
181,153.35,141.69,0
180,153.89,142.07,0
180,154.41,142.45,0
179,154.90,142.82,0
181,155.42,143.20,0
183,155.97,143.60,0
185,156.55,144.01,0
188,157.18,144.45,0
188,157.80,144.89,0
190,158.44,145.34,0
191,159.09,145.80,0
192,159.75,146.26,0
193,160.42,146.73,0
191,161.03,147.17,0
195,161.71,147.65,0
197,162.41,148.14,0
197,163.11,148.63,0
196,163.76,149.10,0
200,164.49,149.61,0
203,165.26,150.15,0
203,166.01,150.67,0
204,166.77,151.21,0
203,167.50,151.73,0
204,168.23,152.25,0
203,168.92,152.76,0
205,169.64,153.28,0
207,170.39,153.82,0
207,171.12,154.35,0
206,171.82,154.86,0
208,172.55,155.40,0
208,173.25,155.92,0
207,173.93,156.43,0
207,174.59,156.94,0
210,175.30,157.47,0
207,175.93,157.96,0
208,176.57,158.46,0
207,177.18,158.95,0
208,177.80,159.44,0
207,178.38,159.92,0
208,178.98,160.40,0
208,179.56,160.87,0
209,180.14,161.35,0
215,180.84,161.89,0
213,181.49,162.40,0
213,182.12,162.91,0
214,182.75,163.42,0
217,183.44,163.95,0
217,184.11,164.48,0
215,184.73,164.99,0
216,185.35,165.50,0
217,185.99,166.01,0
216,186.59,166.51,0
216,187.17,167.01,0
217,187.77,167.51,0
219,188.40,168.02,0
219,189.01,168.53,0
218,189.59,169.03,0
217,190.14,169.51,0
217,190.67,169.98,0
217,191.20,170.45,0
217,191.72,170.92,0
216,192.20,171.37,0
217,192.70,171.83,0
217,193.18,172.28,0
220,193.72,172.75,0
221,194.26,173.24,0
221,194.80,173.72,0
221,195.32,174.19,0
221,195.84,174.66,0
221,196.34,175.12,0
221,196.83,175.58,0
221,197.32,176.03,0
225,197.87,176.52,0
226,198.43,177.02,0
226,198.98,177.51,0
225,199.50,177.98,0
225,200.01,178.45,0
227,200.55,178.94,0
229,201.12,179.44,0
229,201.68,179.93,0
229,202.23,180.42,0
229,202.76,180.91,0
230,203.31,181.40,0
229,203.82,181.88,0
230,204.34,182.36,0
229,204.84,182.82,0
231,205.36,183.31,0
229,205.83,183.76,0
229,206.30,184.22,0
229,206.75,184.66,0
229,207.20,185.11,0
229,207.63,185.55,0
229,208.06,185.98,0
229,208.48,186.41,0
228,208.87,186.83,0
229,209.27,187.25,0
228,209.65,187.66,0
228,210.01,188.06,0
227,210.35,188.45,0
228,210.71,188.84,0
226,211.01,189.22,0
227,211.33,189.59,0
225,211.61,189.95,0
226,211.89,190.31,0
225,212.16,190.65,0
225,212.41,191.00,0
223,212.62,191.32,0
225,212.87,191.66,0
225,213.11,191.99,0
225,213.35,192.32,0
225,213.58,192.65,0
225,213.81,192.97,0
225,214.04,193.29,0
225,214.26,193.61,0
225,214.47,193.92,0
223,214.64,194.21,0
225,214.85,194.52,0
223,215.01,194.80,0
223,215.17,195.09,0
223,215.33,195.37,0
223,215.48,195.64,0
223,215.63,195.91,0
222,215.76,196.18,0
221,215.86,196.42,0
221,215.97,196.67,0
221,216.07,196.91,0
221,216.17,197.15,0
221,216.26,197.39,0
220,216.34,197.62,0
220,216.41,197.84,0
219,216.46,198.05,0
220,216.53,198.27,0
219,216.58,198.48,0
220,216.65,198.70,0
219,216.70,198.90,0
218,216.72,199.09,0
218,216.75,199.28,0
218,216.77,199.47,0
217,216.78,199.64,0
217,216.78,199.82,0
217,216.79,199.99,0
217,216.79,200.16,0
216,216.78,200.32,0
216,216.76,200.47,0
216,216.75,200.63,0
217,216.75,200.79,0
217,216.76,200.95,0
216,216.74,201.10,0
215,216.71,201.24,0
215,216.67,201.38,0
215,216.64,201.52,0
215,216.61,201.65,0
215,216.57,201.79,0
215,216.54,201.92,0
215,216.51,202.05,0
213,216.44,202.16,0
213,216.37,202.27,0
213,216.30,202.37,0
212,216.22,202.47,0
212,216.13,202.56,0
211,216.03,202.65,0
212,215.95,202.74,0
211,215.85,202.83,0
211,215.75,202.91,0
211,215.66,202.99,0
211,215.57,203.07,0
209,215.44,203.13,0
209,215.31,203.19,0
209,215.18,203.24,0
209,215.06,203.30,0
209,214.94,203.36,0
208,214.80,203.41,0
208,214.66,203.45,0
208,214.53,203.50,0
207,214.38,203.53,0
207,214.23,203.57,0
207,214.09,203.60,0
206,213.92,203.62,0
206,213.76,203.65,0
205,213.59,203.66,0
205,213.42,203.68,0
205,213.25,203.69,0
205,213.08,203.70,0
205,212.92,203.71,0
204,212.74,203.72,0
204,212.57,203.72,0
205,212.42,203.73,0
203,212.23,203.73,0
204,212.07,203.73,0
201,211.84,203.70,0
203,211.67,203.69,0
205,211.53,203.71,0
202,211.34,203.69,0
201,211.14,203.66,0
203,210.97,203.66,0
201,210.77,203.63,0
201,210.58,203.60,0
201,210.39,203.58,0
200,210.18,203.54,0
201,210.00,203.52,0
200,209.80,203.48,0
199,209.58,203.44,0
199,209.37,203.39,0
198,209.14,203.34,0
198,208.92,203.29,0
198,208.70,203.23,0
197,208.47,203.17,0
196,208.22,203.10,0
198,208.01,203.05,0
197,207.79,202.99,0
196,207.56,202.92,0
196,207.32,202.85,0
196,207.10,202.78,0
195,206.86,202.70,0
196,206.64,202.63,0
195,206.41,202.56,0
195,206.18,202.48,0
195,205.95,202.41,0
195,205.74,202.33,0
194,205.50,202.25,0
195,205.29,202.18,0
193,205.05,202.09,0
193,204.80,202.00,0
193,204.57,201.91,0
191,204.30,201.80,0
193,204.07,201.71,0
192,203.83,201.61,0
192,203.59,201.51,0
191,203.34,201.41,0
192,203.11,201.32,0
191,202.87,201.21,0
191,202.63,201.11,0
191,202.40,201.01,0
191,202.17,200.91,0
190,201.93,200.80,0
191,201.71,200.70,0
190,201.48,200.60,0
189,201.23,200.48,0
189,200.98,200.36,0
189,200.74,200.25,0
189,200.51,200.14,0
189,200.28,200.03,0
188,200.03,199.91,1
188,199.79,199.79,1
188,199.56,199.67,2
187,199.31,199.54,2
191,199.14,199.46,2
187,198.90,199.33,2
188,198.68,199.22,2
186,198.43,199.09,2
186,198.18,198.96,2
186,197.93,198.83,2
187,197.71,198.71,2
185,197.46,198.57,2
185,197.21,198.44,2
185,196.97,198.30,2
185,196.73,198.17,2
185,196.49,198.04,2
185,196.26,197.91,2
184,196.02,197.77,2
183,195.76,197.62,2
184,195.52,197.48,2
183,195.27,197.34,2
184,195.05,197.21,2
183,194.81,197.06,2
183,194.57,196.92,2
183,194.34,196.78,2
182,194.09,196.64,2
182,193.85,196.49,2
182,193.61,196.34,2
181,193.36,196.19,2
181,193.11,196.04,2
181,192.87,195.89,2
182,192.65,195.75,2
181,192.42,195.60,2
181,192.19,195.46,2
180,191.95,195.30,2
179,191.69,195.14,2
179,191.44,194.98,2
179,191.19,194.82,2
180,190.96,194.67,2
179,190.72,194.51,2
179,190.49,194.36,2
179,190.26,194.20,2
179,190.03,194.05,2
179,189.81,193.90,2
178,189.58,193.74,2
178,189.35,193.58,2
177,189.10,193.42,2
177,188.86,193.25,2
178,188.64,193.10,2
177,188.41,192.94,2
177,188.18,192.78,2
176,187.94,192.61,2
176,187.70,192.45,2
175,187.44,192.27,2
175,187.19,192.10,2
176,186.97,191.94,2
175,186.73,191.77,2
175,186.50,191.60,2
175,186.27,191.44,2
175,186.04,191.27,2
174,185.80,191.10,2
175,185.58,190.94,2
175,185.37,190.78,2
174,185.14,190.61,2
173,184.90,190.44,2
175,184.70,190.28,2
173,184.47,190.11,2
173,184.24,189.94,2
173,184.02,189.77,2
173,183.80,189.60,2
173,183.58,189.43,2
172,183.35,189.26,2
172,183.12,189.09,2
171,182.88,188.91,2
172,182.66,188.74,2
171,182.43,188.56,2
171,182.20,188.38,2
171,181.98,188.21,2
171,181.76,188.04,2
170,181.52,187.86,2
170,181.29,187.68,2
170,181.06,187.50,2
170,180.84,187.33,2
169,180.61,187.14,2
169,180.37,186.96,2
169,180.15,186.78,2
169,179.92,186.61,2
170,179.73,186.44,2
169,179.51,186.26,2
168,179.28,186.08,2
168,179.05,185.90,2
168,178.83,185.72,2
168,178.62,185.55,2
168,178.40,185.37,2
168,178.20,185.20,2
167,177.97,185.01,2
167,177.75,184.83,2
167,177.54,184.66,2
169,177.37,184.50,2
167,177.16,184.32,2
165,176.92,184.13,2
167,176.72,183.96,2
167,176.52,183.79,2
166,176.31,183.61,2
165,176.09,183.43,2
165,175.87,183.24,2
165,175.65,183.06,2
165,175.44,182.88,2
165,175.23,182.70,2
165,175.02,182.52,2
165,174.82,182.35,2
165,174.63,182.17,2
164,174.41,181.99,2
163,174.18,181.80,2
162,173.94,181.60,2
163,173.72,181.42,2
164,173.53,181.24,2
163,173.32,181.06,2
163,173.11,180.88,2
163,172.91,180.70,2
164,172.73,180.54,2
163,172.54,180.36,2
163,172.35,180.19,2
163,172.16,180.01,2
162,171.95,179.83,2
164,171.80,179.68,2
163,171.62,179.51,2
162,171.43,179.33,2
161,171.22,179.15,2
163,171.05,178.99,2
162,170.87,178.82,2
164,170.74,178.67,2
161,170.54,178.49,2
161,170.35,178.32,2
161,170.16,178.15,2
161,169.98,177.97,2
161,169.80,177.81,2
161,169.62,177.64,2
161,169.45,177.47,2
161,169.28,177.31,2
161,169.12,177.14,2
160,168.94,176.97,2
160,168.76,176.80,2
159,168.56,176.62,2
159,168.37,176.45,2
160,168.20,176.28,2
161,168.06,176.13,2
160,167.90,175.97,2
160,167.74,175.81,2
161,167.60,175.66,2
159,167.43,175.49,2
159,167.26,175.33,2
161,167.14,175.19,2
163,167.06,175.06,2
160,166.91,174.91,2
159,166.76,174.75,2
159,166.60,174.60,2
159,166.45,174.44,2
159,166.30,174.29,2
158,166.13,174.12,2
158,165.97,173.96,2
157,165.79,173.79,2
157,165.62,173.63,2
158,165.46,173.47,2
157,165.29,173.30,2
157,165.13,173.14,2
157,164.97,172.98,2
156,164.79,172.81,2
155,164.59,172.63,2
156,164.42,172.47,2
156,164.25,172.30,2
156,164.09,172.14,2
156,163.92,171.98,2
155,163.75,171.81,2
156,163.59,171.65,2
155,163.42,171.48,2
156,163.27,171.33,2
156,163.13,171.17,2
156,162.98,171.02,2
155,162.82,170.86,2
156,162.69,170.71,2
155,162.53,170.56,2
155,162.38,170.40,2
156,162.25,170.26,2
156,162.13,170.11,2
154,161.97,169.95,2
154,161.81,169.79,2
153,161.63,169.63,2
153,161.46,169.46,2
153,161.29,169.29,2
153,161.12,169.13,2
153,160.96,168.97,2
153,160.80,168.81,2
153,160.65,168.65,2
152,160.47,168.49,2
153,160.32,168.33,2
153,160.18,168.18,2
152,160.01,168.02,2
152,159.85,167.86,2
152,159.70,167.70,2
152,159.54,167.54,2
153,159.41,167.40,2
152,159.26,167.24,2
153,159.14,167.10,2
153,159.02,166.96,2
152,158.88,166.81,2
153,158.76,166.67,2
152,158.62,166.52,2
151,158.47,166.37,2
151,158.32,166.21,2
153,158.21,166.08,2
151,158.07,165.93,2
152,157.95,165.79,2
151,157.81,165.64,2
151,157.67,165.50,2
151,157.54,165.35,2
151,157.41,165.21,2
150,157.26,165.06,2
151,157.14,164.92,2
150,156.99,164.77,2
151,156.87,164.63,2
149,156.72,164.47,2
149,156.56,164.32,2
149,156.41,164.17,2
150,156.28,164.02,2
149,156.14,163.87,2
149,155.99,163.73,2
149,155.85,163.58,2
149,155.72,163.43,2
149,155.58,163.29,2
149,155.45,163.14,2
148,155.30,162.99,2
148,155.16,162.84,2
148,155.01,162.70,2
147,154.85,162.54,2
149,154.74,162.40,2
147,154.58,162.25,2
147,154.43,162.10,2
148,154.30,161.96,2
147,154.15,161.81,2
147,154.01,161.66,2
147,153.87,161.51,2
147,153.73,161.37,2
145,153.56,161.20,2
147,153.43,161.06,2
146,153.28,160.91,2
148,153.17,160.78,2
147,153.05,160.64,2
147,152.93,160.51,2
146,152.79,160.36,2
147,152.67,160.23,2
146,152.54,160.09,2
148,152.45,159.96,2
145,152.30,159.81,2
147,152.20,159.69,2
148,152.11,159.57,2
148,152.03,159.45,2
147,151.93,159.33,2
147,151.83,159.21,2
147,151.73,159.08,2
147,151.64,158.96,2
148,151.57,158.85,2
147,151.47,158.74,2
145,151.35,158.60,2
147,151.26,158.48,2
147,151.17,158.37,2
146,151.07,158.24,2
148,151.01,158.14,2
146,150.91,158.02,2
145,150.79,157.89,2
145,150.67,157.76,2
147,150.60,157.65,2
145,150.49,157.53,2
147,150.42,157.42,2
145,150.31,157.30,2
145,150.20,157.17,2
145,150.10,157.05,2
145,150.00,156.93,2
146,149.92,156.82,2
145,149.82,156.70,2
145,149.72,156.59,2
145,149.63,156.47,2
145,149.54,156.36,2
144,149.43,156.23,2
145,149.34,156.12,2
145,149.25,156.01,2
143,149.13,155.88,2
144,149.02,155.76,2
145,148.94,155.65,2
143,148.82,155.53,2
144,148.73,155.41,2
143,148.61,155.29,2
143,148.50,155.16,2
143,148.39,155.04,2
142,148.26,154.91,2
142,148.14,154.78,2
142,148.01,154.66,2
143,147.91,154.54,2
142,147.80,154.41,2
143,147.70,154.30,2
141,147.57,154.17,2
143,147.47,154.05,2
143,147.39,153.94,2
142,147.28,153.82,2
141,147.15,153.70,2
143,147.07,153.59,2
141,146.95,153.46,2
141,146.83,153.34,2
141,146.71,153.22,2
141,146.60,153.09,2
141,146.49,152.97,2
140,146.36,152.84,2
141,146.25,152.72,2
141,146.14,152.61,2
141,146.04,152.49,2
141,145.94,152.38,2
141,145.84,152.26,2
141,145.74,152.15,2
140,145.63,152.03,2
141,145.54,151.92,2
141,145.45,151.81,2
141,145.36,151.70,2
141,145.27,151.59,2
141,145.19,151.49,2
141,145.10,151.38,2
141,145.02,151.28,2
141,144.94,151.18,2
139,144.82,151.05,2
141,144.74,150.95,2
141,144.67,150.85,2
141,144.60,150.76,2
141,144.52,150.66,2
141,144.45,150.56,2
141,144.38,150.47,2
141,144.32,150.37,2
141,144.25,150.28,2
140,144.17,150.17,2
139,144.06,150.06,2
141,144.00,149.97,2
141,143.94,149.88,2
140,143.86,149.78,2
140,143.78,149.69,2
141,143.73,149.60,2
140,143.65,149.50,2
140,143.58,149.41,2
139,143.49,149.30,2
140,143.42,149.21,2
139,143.33,149.11,2
137,143.20,148.99,2
139,143.12,148.89,2
140,143.06,148.80,2
139,142.98,148.70,2
140,142.92,148.61,2
139,142.84,148.52,2
140,142.78,148.43,2
139,142.71,148.34,2
139,142.63,148.25,2
137,142.52,148.13,2
139,142.45,148.04,2
140,142.40,147.96,2
138,142.31,147.86,2
139,142.25,147.77,2
140,142.20,147.69,2
140,142.16,147.62,2
140,142.11,147.54,2
140,142.07,147.47,2
139,142.01,147.38,2
140,141.97,147.31,2
139,141.91,147.22,2
139,141.85,147.14,2
139,141.80,147.06,2
139,141.74,146.98,2
139,141.69,146.90,2
140,141.65,146.83,2
139,141.60,146.75,2
139,141.55,146.68,2
139,141.50,146.60,2
140,141.47,146.53,2
139,141.42,146.46,2
139,141.37,146.38,2
139,141.32,146.31,2
139,141.27,146.24,2
140,141.25,146.17,2
139,141.20,146.10,2
139,141.16,146.03,2
141,141.16,145.98,2
140,141.13,145.92,2
139,141.09,145.85,2
141,141.09,145.80,2
140,141.07,145.75,2
140,141.05,145.69,2
141,141.04,145.64,2
141,141.04,145.59,2
139,141.00,145.53,2
140,140.98,145.47,2
140,140.96,145.42,2
143,141.00,145.39,2
140,140.98,145.34,2
139,140.94,145.28,2
140,140.93,145.22,2
139,140.89,145.16,2
140,140.87,145.11,2
139,140.83,145.05,2
140,140.82,145.00,2
139,140.78,144.94,2
141,140.78,144.90,2
140,140.77,144.85,2
140,140.75,144.80,2
140,140.74,144.75,2
141,140.74,144.72,2
140,140.73,144.67,2
140,140.71,144.62,2
137,140.64,144.55,2
139,140.61,144.49,2
140,140.59,144.45,2
141,140.60,144.41,2
140,140.59,144.37,2
141,140.60,144.33,2
139,140.57,144.28,2
139,140.54,144.23,2
140,140.52,144.19,2
140,140.51,144.14,2
140,140.50,144.10,2
139,140.47,144.05,2
141,140.48,144.02,2
139,140.45,143.97,2
139,140.43,143.92,2
139,140.40,143.87,2
140,140.39,143.83,2
139,140.36,143.78,2
139,140.33,143.74,2
139,140.31,143.69,2
139,140.28,143.64,2
139,140.26,143.60,2
139,140.23,143.55,2
139,140.21,143.50,2
139,140.18,143.46,2
140,140.18,143.42,2
137,140.11,143.36,2
139,140.09,143.32,2
139,140.07,143.27,2
141,140.09,143.25,2
139,140.07,143.21,2
141,140.09,143.19,2
139,140.06,143.14,2
139,140.04,143.10,2
137,139.98,143.04,2
139,139.96,143.00,2
138,139.92,142.95,2
138,139.88,142.90,2
140,139.89,142.87,2
138,139.85,142.82,2
140,139.85,142.80,2
139,139.84,142.76,2
140,139.84,142.73,2
140,139.84,142.70,2
139,139.82,142.67,2
139,139.81,142.63,2
139,139.79,142.59,2
139,139.78,142.56,2
139,139.76,142.52,2
137,139.71,142.47,2
138,139.67,142.42,2
137,139.62,142.37,2
139,139.61,142.33,2
139,139.59,142.30,2
139,139.58,142.27,2
136,139.51,142.20,2
138,139.48,142.16,2
140,139.49,142.14,2
139,139.48,142.11,2
140,139.49,142.09,2
139,139.48,142.06,2
141,139.51,142.05,2
140,139.52,142.03,2
141,139.55,142.02,2
140,139.56,142.00,2
138,139.53,141.96,2
140,139.54,141.94,2
139,139.53,141.91,2
139,139.52,141.88,2
140,139.53,141.86,2
140,139.54,141.84,2
139,139.53,141.81,2
140,139.53,141.79,2
139,139.52,141.77,2
140,139.53,141.75,2
139,139.52,141.72,2
141,139.55,141.71,2
139,139.54,141.69,2
139,139.53,141.66,2
139,139.52,141.63,2
139,139.51,141.61,2
139,139.50,141.58,2
139,139.49,141.56,2
140,139.50,141.54,2
141,139.53,141.53,2
139,139.52,141.51,2
139,139.51,141.48,2
139,139.50,141.46,2
139,139.49,141.43,2
139,139.48,141.41,2
139,139.47,141.39,2
139,139.46,141.36,2
139,139.45,141.34,2
141,139.48,141.34,2
139,139.47,141.31,2
141,139.50,141.31,2
141,139.53,141.31,2
141,139.56,141.30,2
142,139.61,141.31,2
141,139.64,141.31,2
141,139.67,141.30,2
141,139.69,141.30,2
141,139.72,141.30,2
141,139.74,141.29,2
142,139.79,141.30,2
141,139.81,141.30,2
143,139.88,141.32,2
143,139.94,141.33,2
143,140.00,141.35,2
143,140.06,141.37,2
141,140.08,141.36,2
142,140.12,141.37,2
143,140.18,141.38,2
143,140.23,141.40,2
141,140.25,141.40,2
142,140.28,141.40,2
143,140.34,141.42,2
141,140.35,141.41,2
143,140.40,141.43,2
141,140.42,141.43,2
143,140.47,141.44,2
141,140.48,141.44,2
142,140.51,141.44,2
143,140.56,141.46,2
142,140.59,141.46,2
143,140.63,141.48,2
143,140.68,141.49,2
143,140.73,141.51,2
143,140.77,141.52,2
143,140.82,141.54,2
143,140.86,141.55,2
143,140.90,141.57,2
143,140.95,141.58,2
147,141.07,141.64,2
143,141.11,141.65,2
145,141.18,141.68,2
143,141.22,141.70,2
145,141.30,141.73,2
146,141.39,141.77,2
145,141.46,141.81,2
145,141.53,141.84,2
145,141.60,141.87,2
146,141.69,141.91,2
147,141.80,141.96,2
149,141.94,142.03,3
152,142.14,142.13,3
150,142.30,142.21,4
151,142.47,142.30,4
154,142.70,142.41,4
152,142.89,142.51,4
155,143.13,142.64,4
155,143.37,142.76,4
155,143.60,142.88,4
156,143.85,143.01,4
157,144.11,143.15,4
157,144.37,143.29,4
156,144.60,143.42,4
156,144.83,143.54,4
156,145.05,143.67,4
158,145.31,143.81,4
157,145.55,143.94,4
158,145.80,144.08,4
159,146.06,144.23,4
159,146.32,144.38,4
161,146.61,144.55,4
163,146.94,144.73,4
161,147.22,144.89,4
163,147.54,145.08,4
161,147.81,145.23,4
161,148.07,145.39,4
161,148.33,145.55,4
162,148.60,145.71,4
163,148.89,145.89,4
164,149.19,146.07,4
163,149.47,146.24,4
163,149.74,146.40,4
163,150.00,146.57,4
162,150.24,146.72,4
164,150.52,146.90,4
163,150.77,147.06,4
163,151.01,147.22,4
163,151.25,147.38,4
165,151.53,147.55,4
167,151.84,147.75,4
165,152.10,147.92,4
167,152.40,148.11,4
169,152.73,148.32,4
169,153.06,148.53,4
174,153.48,148.78,4
170,153.81,148.99,4
171,154.15,149.21,4
172,154.51,149.44,4
173,154.88,149.68,4
173,155.24,149.91,4
172,155.57,150.13,4
171,155.88,150.34,4
172,156.21,150.56,4
173,156.54,150.78,4
171,156.83,150.98,4
173,157.15,151.20,4
171,157.43,151.40,4
173,157.74,151.62,4
173,158.05,151.83,4
173,158.35,152.04,4
173,158.64,152.25,4
177,159.01,152.50,4
178,159.39,152.75,4
177,159.74,153.00,4
177,160.08,153.24,4
177,160.42,153.47,4
178,160.77,153.72,4
179,161.14,153.97,4
177,161.46,154.20,4
177,161.77,154.43,4
180,162.13,154.69,4
178,162.45,154.92,4
179,162.78,155.16,4
181,163.14,155.42,4
181,163.50,155.67,4
181,163.85,155.93,4
184,164.25,156.21,4
184,164.65,156.49,4
184,165.04,156.76,4
185,165.44,157.04,4
185,165.83,157.32,4
184,166.19,157.59,4
185,166.57,157.86,4
186,166.95,158.15,4
187,167.36,158.43,4
187,167.75,158.72,4
187,168.13,159.00,4
191,168.59,159.32,4
192,169.06,159.65,4
193,169.54,159.98,4
192,169.99,160.30,4
192,170.43,160.62,4
191,170.84,160.92,4
193,171.28,161.24,4
192,171.70,161.55,4
191,172.08,161.85,4
192,172.48,162.15,4
193,172.89,162.46,4
196,173.35,162.79,4
195,173.79,163.11,4
196,174.23,163.44,4
196,174.67,163.77,4
197,175.11,164.10,4
196,175.53,164.42,4
195,175.92,164.73,4
197,176.34,165.05,4
197,176.75,165.37,4
198,177.18,165.69,4
201,177.66,166.05,4
200,178.10,166.39,4
201,178.56,166.73,4
200,178.99,167.07,4
201,179.43,167.40,4
201,179.86,167.74,4
201,180.28,168.07,4
200,180.68,168.39,4
201,181.08,168.72,4
201,181.48,169.04,4
200,181.85,169.35,4
200,182.22,169.66,4
201,182.59,169.97,4
201,182.96,170.28,4
201,183.32,170.59,4
201,183.67,170.89,4
202,184.04,171.20,4
205,184.46,171.54,4
203,184.83,171.86,4
205,185.23,172.19,4
207,185.67,172.54,4
209,186.14,172.90,4
209,186.59,173.26,4
209,187.04,173.62,4
213,187.56,174.01,4
214,188.09,174.41,4
213,188.59,174.80,4
214,189.10,175.19,4
215,189.61,175.59,4
216,190.14,175.99,4
218,190.70,176.41,4
218,191.25,176.83,4
221,191.84,177.27,4
220,192.40,177.70,4
221,192.98,178.13,4
222,193.56,178.57,4
223,194.14,179.01,4
221,194.68,179.43,4
222,195.23,179.86,4
223,195.78,180.29,4
223,196.33,180.72,4
223,196.86,181.14,4
222,197.36,181.55,4
224,197.90,181.97,4
225,198.44,182.40,4
225,198.97,182.83,4
224,199.47,183.24,4
225,199.98,183.66,4
226,200.50,184.08,4
227,201.03,184.51,4
226,201.53,184.93,4
226,202.02,185.34,4
225,202.48,185.73,4
227,202.97,186.15,4
228,203.47,186.57,4
227,203.94,186.97,4
227,204.40,187.37,4
230,204.91,187.80,4
228,205.38,188.20,4
227,205.81,188.59,4
227,206.23,188.97,4
227,206.65,189.35,4
229,207.10,189.75,4
230,207.55,190.15,4
231,208.02,190.56,4
229,208.44,190.94,4
229,208.85,191.32,4
233,209.34,191.74,4
233,209.81,192.15,4
232,210.25,192.55,4
232,210.69,192.95,4
232,211.11,193.34,4
234,211.57,193.74,4
232,211.98,194.13,4
232,212.38,194.50,4
233,212.79,194.89,4
234,213.22,195.28,4
233,213.61,195.66,4
234,214.02,196.04,4
234,214.42,196.42,4
235,214.83,196.81,4
235,215.24,197.19,4
234,215.61,197.56,4
235,216.00,197.93,4
235,216.38,198.30,4
232,216.69,198.64,4
234,217.04,198.99,4
235,217.40,199.35,4
234,217.73,199.70,4
235,218.07,200.05,4
233,218.37,200.38,4
233,218.66,200.71,4
233,218.95,201.03,4
233,219.23,201.35,4
233,219.51,201.67,4
231,219.74,201.96,4
232,219.98,202.26,4
232,220.22,202.56,4
232,220.46,202.85,4
231,220.67,203.13,4
232,220.90,203.42,4
231,221.10,203.70,4
230,221.28,203.96,4
231,221.47,204.23,4
230,221.64,204.49,4
229,221.79,204.73,4
229,221.93,204.98,4
229,222.07,205.22,4
229,222.21,205.45,4
229,222.35,205.69,4
228,222.46,205.91,4
229,222.59,206.14,4
227,222.68,206.35,4
227,222.77,206.56,4
227,222.85,206.76,4
225,222.89,206.95,4
226,222.96,207.14,4
227,223.04,207.34,4
226,223.10,207.52,4
226,223.15,207.71,4
225,223.19,207.88,4
225,223.23,208.05,4
224,223.24,208.21,4
225,223.28,208.38,4
224,223.29,208.53,4
224,223.31,208.69,4
224,223.32,208.84,4
224,223.33,208.99,4
223,223.33,209.13,4
224,223.34,209.28,4
223,223.33,209.42,4
223,223.33,209.56,4
223,223.32,209.69,4
223,223.31,209.82,4
222,223.29,209.94,4
222,223.26,210.07,4
221,223.22,210.17,4
221,223.17,210.28,4
221,223.13,210.39,4
220,223.07,210.49,4
220,223.01,210.58,4
220,222.95,210.68,4
219,222.87,210.76,4
220,222.81,210.85,4
220,222.75,210.94,4
219,222.68,211.02,4
219,222.60,211.10,4
218,222.51,211.17,4
218,222.42,211.24,4
218,222.33,211.31,4
217,222.23,211.36,4
217,222.12,211.42,4
217,222.02,211.48,4
217,221.92,211.53,4
216,221.80,211.58,4
217,221.71,211.63,4
215,221.57,211.66,4
215,221.44,211.70,4
215,221.31,211.73,4
214,221.16,211.75,4
214,221.02,211.78,4
214,220.88,211.80,4
213,220.72,211.81,4
213,220.57,211.82,4
213,220.42,211.83,4
213,220.27,211.85,4
213,220.12,211.86,4
212,219.96,211.86,4
213,219.82,211.87,4
211,219.65,211.86,4
211,219.47,211.85,4
211,219.30,211.84,4
211,219.14,211.84,4
210,218.95,211.82,4
210,218.78,211.80,4
210,218.60,211.78,4
211,218.45,211.77,4
209,218.26,211.75,4
209,218.07,211.72,4
208,217.87,211.68,4
209,217.69,211.65,4
209,217.52,211.63,4
208,217.33,211.59,4
207,217.12,211.55,4
207,216.92,211.50,4
207,216.72,211.46,4
207,216.53,211.41,4
205,216.30,211.35,4
206,216.09,211.29,4
205,215.87,211.23,4
205,215.65,211.17,4
205,215.44,211.11,4
205,215.23,211.05,4
205,215.03,210.98,4
204,214.81,210.91,4
202,214.55,210.83,4
205,214.36,210.77,4
204,214.15,210.70,4
205,213.97,210.64,4
204,213.77,210.58,4
204,213.57,210.51,4
203,213.36,210.44,4
203,213.16,210.36,4
202,212.93,210.28,4
203,212.73,210.20,4
202,212.52,210.12,4
201,212.29,210.03,4
202,212.08,209.95,4
203,211.90,209.88,4
201,211.68,209.79,4
202,211.49,209.71,4
201,211.28,209.63,4
201,211.07,209.54,4
201,210.87,209.46,4
200,210.66,209.36,4
200,210.44,209.27,4
199,210.21,209.17,4
199,209.99,209.06,4
198,209.75,208.95,4
199,209.53,208.85,4
198,209.30,208.74,4
199,209.10,208.65,4
197,208.86,208.53,4
199,208.66,208.44,4
198,208.45,208.33,5
197,208.22,208.22,5
197,207.99,208.11,6
197,207.77,207.99,6
197,207.56,207.88,6
196,207.33,207.77,6
197,207.12,207.66,6
197,206.92,207.55,6
196,206.70,207.44,6
195,206.46,207.31,6
198,206.30,207.22,6
195,206.07,207.10,6
196,205.87,206.99,6
194,205.63,206.86,6
194,205.40,206.73,6
194,205.17,206.60,6
195,204.97,206.48,6
193,204.73,206.35,6
194,204.51,206.23,6
193,204.28,206.09,6
193,204.06,205.96,6
192,203.82,205.82,6
192,203.58,205.68,6
192,203.35,205.55,6
191,203.10,205.40,6
191,202.86,205.26,6
190,202.60,205.11,6
191,202.37,204.96,6
189,202.10,204.80,6
189,201.84,204.65,6
190,201.60,204.50,6
189,201.35,204.35,6
189,201.10,204.19,6
189,200.86,204.04,6
187,200.58,203.87,6
189,200.35,203.72,6
188,200.11,203.56,6
187,199.84,203.40,6
188,199.61,203.24,6
188,199.38,203.09,6
187,199.13,202.93,6
187,198.88,202.77,6
186,198.63,202.60,6
185,198.35,202.43,6
185,198.09,202.25,6
185,197.83,202.08,6
186,197.59,201.92,6
185,197.34,201.75,6
185,197.09,201.58,6
185,196.85,201.42,6
185,196.61,201.25,6
184,196.36,201.08,6
185,196.13,200.92,6
183,195.87,200.74,6
183,195.61,200.56,6
183,195.36,200.39,6
182,195.09,200.20,6
182,194.83,200.02,6
182,194.57,199.84,6
181,194.30,199.65,6
181,194.04,199.47,6
182,193.80,199.29,6
181,193.54,199.11,6
181,193.29,198.93,6
181,193.04,198.75,6
181,192.80,198.57,6
179,192.53,198.38,6
181,192.30,198.20,6
179,192.03,198.01,6
180,191.79,197.83,6
179,191.53,197.64,6
180,191.30,197.47,6
178,191.04,197.27,6
180,190.82,197.10,6
179,190.58,196.92,6
178,190.33,196.73,6
179,190.10,196.55,6
178,189.86,196.36,6
179,189.64,196.19,6
178,189.41,196.01,6
177,189.16,195.82,6
177,188.92,195.63,6
177,188.68,195.44,6
177,188.45,195.26,6
177,188.22,195.08,6
177,187.99,194.90,6
177,187.77,194.72,6
176,187.54,194.53,6
176,187.31,194.35,6
176,187.08,194.16,6
177,186.88,193.99,6
175,186.64,193.80,6
175,186.41,193.61,6
175,186.18,193.43,6
175,185.96,193.24,6
175,185.74,193.06,6
175,185.52,192.88,6
175,185.31,192.70,6
175,185.11,192.52,6
173,184.86,192.33,6
174,184.65,192.14,6
175,184.45,191.97,6
173,184.23,191.78,6
173,184.00,191.60,6
173,183.78,191.41,6
173,183.57,191.23,6
173,183.35,191.04,6
173,183.15,190.86,6
172,182.92,190.67,6
172,182.71,190.49,6
172,182.49,190.30,6
172,182.28,190.12,6
172,182.08,189.94,6
171,181.85,189.75,6
171,181.64,189.56,6
171,181.42,189.38,6
170,181.20,189.18,6
170,180.97,188.99,6
170,180.75,188.80,6
170,180.54,188.61,6
167,180.27,188.40,6
169,180.04,188.20,6
171,179.86,188.03,6
169,179.64,187.84,6
169,179.43,187.65,6
169,179.22,187.47,6
169,179.02,187.28,6
169,178.82,187.10,6
170,178.64,186.93,6
169,178.45,186.75,6
169,178.26,186.57,6
169,178.07,186.39,6
168,177.87,186.21,6
168,177.67,186.03,6
168,177.48,185.85,6
168,177.29,185.67,6
169,177.13,185.50,6
169,176.96,185.34,6
168,176.78,185.16,6
169,176.63,185.00,6
168,176.46,184.83,6
168,176.29,184.66,6
169,176.14,184.51,6
168,175.98,184.34,6
167,175.80,184.17,6
167,175.62,184.00,6
167,175.45,183.83,6
167,175.28,183.66,6
167,175.12,183.49,6
167,174.95,183.33,6
167,174.79,183.16,6
167,174.64,183.00,6
167,174.49,182.84,6
166,174.32,182.67,6
167,174.17,182.52,6
165,173.99,182.34,6
166,173.83,182.18,6
165,173.65,182.01,6
165,173.48,181.84,6
169,173.39,181.71,6
166,173.24,181.55,6
165,173.07,181.39,6
165,172.91,181.22,6
165,172.76,181.06,6
164,172.58,180.89,6
165,172.43,180.73,6
164,172.26,180.56,6
164,172.09,180.40,6
163,171.91,180.22,6
164,171.75,180.06,6
163,171.58,179.89,6
163,171.41,179.72,6
163,171.24,179.55,6
163,171.07,179.39,6
163,170.91,179.23,6
164,170.78,179.07,6
163,170.62,178.91,6
163,170.47,178.75,6
163,170.32,178.60,6
162,170.15,178.43,6
161,169.97,178.26,6
162,169.81,178.09,6
162,169.65,177.93,6
162,169.50,177.77,6
161,169.33,177.60,6
161,169.16,177.44,6
161,169.00,177.27,6
161,168.84,177.11,6
161,168.68,176.95,6
161,168.53,176.79,6
161,168.38,176.63,6
161,168.23,176.48,6
162,168.11,176.33,6
161,167.96,176.18,6
160,167.81,176.02,6
161,167.67,175.87,6
160,167.52,175.71,6
161,167.39,175.56,6
161,167.26,175.42,6
159,167.09,175.25,6
160,166.95,175.10,6
160,166.81,174.95,6
160,166.68,174.80,6
161,166.56,174.66,6
160,166.43,174.51,6
160,166.30,174.37,6
159,166.16,174.22,6
159,166.01,174.06,6
160,165.89,173.92,6
161,165.80,173.79,6
159,165.66,173.65,6
160,165.55,173.51,6
159,165.41,173.36,6
159,165.29,173.22,6
159,165.16,173.08,6
158,165.02,172.93,6
158,164.88,172.78,6
157,164.72,172.62,6
157,164.57,172.46,6
157,164.41,172.31,6
157,164.27,172.16,6
157,164.12,172.00,6
157,163.98,171.85,6
156,163.82,171.70,6
157,163.68,171.55,6
155,163.51,171.38,6
157,163.38,171.24,6
156,163.23,171.09,6
156,163.09,170.94,6
156,162.94,170.79,6
156,162.81,170.64,6
156,162.67,170.49,6
156,162.54,170.35,6
156,162.41,170.20,6
155,162.26,170.05,6
156,162.13,169.91,6
155,161.99,169.76,6
156,161.87,169.63,6
155,161.73,169.48,6
155,161.60,169.33,6
155,161.47,169.19,6
156,161.36,169.06,6
154,161.21,168.91,6
155,161.09,168.77,6
153,160.92,168.61,6
155,160.80,168.48,6
153,160.65,168.32,6
154,160.52,168.18,6
153,160.37,168.03,6
154,160.24,167.89,6
153,160.09,167.74,6
153,159.95,167.59,6
153,159.81,167.44,6
154,159.70,167.31,6
153,159.56,167.17,6
153,159.43,167.02,6
153,159.30,166.88,6
153,159.18,166.74,6
153,159.05,166.61,6
152,158.91,166.46,6
151,158.75,166.31,6
152,158.62,166.16,6
151,158.47,166.01,6
151,158.32,165.86,6
151,158.17,165.71,6
152,158.05,165.58,6
151,157.91,165.43,6
150,157.75,165.28,6
150,157.59,165.12,6
148,157.40,164.95,6
149,157.23,164.79,6
150,157.09,164.64,6
149,156.93,164.49,6
149,156.77,164.33,6
150,156.63,164.19,6
149,156.48,164.04,6
149,156.33,163.89,6
149,156.18,163.74,6
149,156.04,163.59,6
148,155.88,163.44,6
148,155.72,163.28,6
149,155.59,163.14,6
149,155.46,163.00,6
148,155.31,162.85,6
148,155.16,162.70,6
147,155.00,162.54,6
147,154.84,162.39,6
148,154.70,162.24,6
148,154.57,162.10,6
147,154.42,161.95,6
148,154.29,161.81,6
147,154.14,161.66,6
147,154.00,161.51,6
147,153.86,161.37,6
146,153.70,161.22,6
147,153.57,161.07,6
148,153.46,160.94,6
146,153.31,160.79,6
146,153.16,160.65,6
145,153.00,160.49,6
145,152.84,160.33,6
146,152.70,160.19,6
146,152.57,160.05,6
146,152.44,159.91,6
145,152.29,159.76,6
145,152.14,159.61,6
145,152.00,159.47,6
145,151.86,159.32,6
148,151.78,159.21,6
145,151.65,159.07,6
145,151.51,158.93,6
144,151.36,158.78,6
144,151.22,158.63,6
145,151.09,158.49,6
144,150.95,158.35,6
144,150.81,158.20,6
143,150.65,158.05,6
144,150.52,157.91,6
143,150.37,157.76,6
144,150.24,157.62,6
145,150.14,157.50,6
143,150.00,157.35,6
144,149.88,157.22,6
144,149.76,157.09,6
144,149.64,156.96,6
144,149.53,156.83,6
143,149.40,156.69,6
144,149.29,156.56,6
145,149.21,156.45,6
144,149.10,156.32,6
143,148.98,156.19,6
143,148.86,156.06,6
143,148.74,155.93,6
141,148.59,155.78,6
143,148.48,155.65,6
143,148.37,155.52,6
144,148.28,155.41,6
142,148.15,155.27,6
143,148.05,155.15,6
143,147.95,155.03,6
142,147.83,154.90,6
143,147.73,154.78,6
142,147.62,154.65,6
141,147.49,154.52,6
141,147.36,154.38,6
141,147.23,154.25,6
141,147.11,154.11,6
141,146.98,153.98,6
141,146.86,153.85,6
141,146.75,153.72,6
141,146.63,153.60,6
141,146.52,153.47,6
140,146.39,153.34,6
141,146.28,153.21,6
140,146.16,153.08,6
140,146.03,152.95,6
141,145.93,152.83,6
139,145.79,152.69,6
140,145.68,152.57,6
140,145.56,152.44,6
140,145.45,152.32,6
140,145.34,152.19,6
141,145.26,152.08,6
139,145.13,151.95,6
139,145.01,151.82,6
137,144.85,151.67,6
139,144.73,151.55,6
139,144.62,151.42,6
139,144.50,151.30,6
139,144.39,151.17,6
139,144.29,151.05,6
139,144.18,150.93,6
139,144.08,150.81,6
140,144.00,150.70,6
139,143.90,150.59,6
138,143.78,150.46,6
139,143.68,150.35,6
139,143.59,150.23,6
139,143.50,150.12,6
140,143.43,150.02,6
139,143.34,149.91,6
139,143.25,149.80,6
137,143.13,149.67,6
138,143.02,149.55,6
139,142.94,149.45,6
140,142.88,149.35,6
139,142.81,149.25,6
139,142.73,149.15,6
140,142.68,149.06,6
139,142.60,148.96,6
141,142.57,148.88,6
140,142.52,148.79,6
141,142.49,148.71,6
139,142.42,148.61,6
140,142.37,148.53,6
138,142.28,148.42,6
140,142.24,148.34,6
139,142.17,148.24,6
139,142.11,148.15,6
139,142.05,148.06,6
140,142.01,147.98,6
139,141.95,147.89,6
139,141.89,147.80,6
139,141.83,147.71,6
139,141.77,147.63,6
138,141.70,147.53,6
139,141.64,147.44,6
139,141.59,147.36,6
139,141.54,147.28,6
139,141.49,147.19,6
139,141.44,147.11,6
140,141.41,147.04,6
139,141.36,146.96,6
139,141.31,146.88,6
139,141.27,146.80,6
138,141.20,146.71,6
141,141.20,146.66,6
139,141.15,146.58,6
135,141.03,146.46,6
137,140.95,146.37,6
137,140.87,146.28,6
137,140.79,146.18,6
138,140.74,146.10,6
137,140.66,146.01,6
137,140.59,145.92,6
137,140.52,145.83,6
137,140.45,145.74,6
137,140.38,145.65,6
137,140.31,145.57,6
136,140.23,145.47,6
136,140.14,145.38,6
136,140.06,145.28,6
136,139.98,145.19,6
137,139.92,145.11,6
137,139.86,145.03,6
137,139.80,144.95,6
137,139.75,144.87,6
137,139.69,144.79,6
136,139.62,144.70,6
137,139.56,144.62,6
137,139.51,144.55,6
135,139.42,144.45,6
137,139.37,144.38,6
137,139.33,144.30,6
137,139.28,144.23,6
137,139.24,144.16,6
136,139.17,144.08,6
137,139.13,144.01,6
137,139.08,143.94,6
139,139.08,143.89,6
137,139.04,143.82,6
137,139.00,143.75,6
137,138.96,143.68,6
137,138.92,143.62,6
137,138.88,143.55,6
138,138.87,143.49,6
137,138.83,143.43,6
137,138.79,143.37,6
137,138.76,143.30,6
137,138.72,143.24,6
137,138.69,143.18,6
137,138.65,143.11,6
138,138.64,143.06,6
137,138.61,143.00,6
137,138.57,142.94,6
136,138.52,142.87,6
136,138.47,142.80,6
137,138.44,142.75,6
137,138.41,142.69,6
137,138.39,142.63,6
137,138.36,142.58,6
137,138.33,142.52,6
137,138.30,142.46,6
136,138.26,142.40,6
137,138.23,142.35,6
137,138.21,142.29,6
137,138.18,142.24,6
139,138.20,142.21,6
138,138.20,142.17,6
137,138.17,142.11,6
137,138.15,142.06,6
137,138.13,142.01,6
137,138.10,141.96,6
138,138.10,141.92,6
137,138.08,141.87,6
138,138.08,141.83,6
137,138.06,141.79,6
138,138.06,141.75,6
137,138.03,141.70,6
137,138.01,141.65,6
137,137.99,141.61,6
138,137.99,141.57,6
139,138.01,141.55,6
137,137.99,141.50,6
139,138.01,141.47,6
140,138.05,141.46,6
139,138.07,141.44,6
139,138.09,141.41,6
140,138.13,141.40,6
139,138.15,141.37,6
139,138.16,141.35,6
139,138.18,141.33,6
138,138.18,141.29,6
138,138.17,141.26,6
140,138.21,141.25,6
138,138.21,141.21,6
139,138.22,141.19,6
139,138.24,141.17,6
139,138.25,141.15,6
139,138.27,141.13,6
139,138.28,141.11,6
138,138.28,141.07,6
135,138.21,141.01,6
139,138.23,140.99,6
137,138.20,140.95,6
139,138.22,140.93,6
137,138.19,140.90,6
138,138.19,140.87,6
137,138.17,140.83,6
137,138.14,140.79,6
139,138.16,140.77,6
139,138.18,140.75,6
137,138.15,140.72,6
138,138.15,140.69,6
137,138.13,140.65,6
137,138.10,140.62,6
139,138.12,140.60,6
138,138.12,140.57,6
138,138.12,140.55,6
138,138.12,140.52,6
137,138.09,140.49,6
137,138.07,140.45,6
139,138.09,140.44,6
139,138.11,140.42,6
137,138.09,140.39,6
138,138.08,140.37,6
139,138.10,140.35,6
137,138.08,140.32,6
138,138.08,140.29,6
137,138.06,140.26,6
138,138.06,140.24,6
137,138.03,140.21,6
137,138.01,140.17,6
140,138.05,140.17,6
138,138.05,140.15,6
137,138.03,140.12,6
137,138.01,140.09,6
137,137.99,140.06,6
137,137.97,140.03,6
137,137.95,140.00,6
137,137.93,139.97,6
140,137.97,139.97,6
137,137.95,139.94,6
137,137.94,139.91,6
139,137.96,139.90,6
138,137.96,139.88,6
137,137.94,139.85,6
137,137.92,139.82,6
138,137.92,139.80,6
139,137.94,139.80,6
139,137.96,139.79,6
138,137.96,139.77,6
137,137.95,139.74,6
137,137.93,139.72,6
137,137.91,139.69,6
139,137.93,139.68,6
139,137.95,139.67,6
139,137.97,139.67,6
141,138.03,139.68,6
139,138.05,139.67,6
143,138.15,139.71,6
141,138.21,139.72,6
143,138.30,139.75,6
141,138.36,139.77,6
142,138.43,139.79,6
143,138.52,139.82,6
142,138.59,139.84,6
143,138.68,139.87,6
142,138.75,139.89,6
143,138.83,139.93,6
142,138.89,139.95,6
143,138.98,139.98,6
144,139.08,140.02,6
145,139.20,140.07,6
143,139.27,140.10,6
145,139.39,140.15,6
144,139.48,140.18,6
145,139.59,140.23,6
145,139.70,140.28,6
148,139.86,140.36,6
151,140.09,140.46,6
151,140.30,140.57,6
151,140.52,140.67,6
153,140.77,140.80,7
156,141.07,140.95,7
156,141.37,141.10,7
157,141.68,141.26,7
155,141.95,141.40,7
156,142.23,141.54,7
156,142.51,141.69,7
157,142.80,141.84,7
157,143.08,141.99,7
156,143.34,142.13,7
156,143.59,142.27,7
157,143.86,142.42,7
157,144.12,142.56,7
157,144.38,142.71,7
157,144.63,142.85,7
159,144.92,143.01,7
157,145.16,143.15,7
160,145.46,143.32,7
159,145.73,143.48,7
159,145.99,143.63,7
161,146.29,143.81,7
161,146.59,143.98,7
159,146.84,144.13,7
163,147.16,144.32,7
163,147.48,144.50,7
163,147.79,144.69,7
164,148.11,144.88,7
163,148.41,145.06,7
164,148.72,145.25,7
163,149.01,145.43,7
164,149.31,145.62,7
163,149.58,145.79,7
166,149.91,145.99,7
167,150.25,146.20,7
165,150.55,146.39,7
165,150.84,146.58,7
166,151.14,146.77,7
167,151.46,146.97,7
167,151.77,147.17,7
166,152.05,147.36,7
166,152.33,147.55,7
167,152.62,147.74,7
166,152.89,147.92,7
166,153.15,148.10,7
166,153.41,148.28,7
165,153.64,148.45,7
168,153.93,148.65,7
168,154.21,148.84,7
168,154.49,149.03,7
169,154.78,149.23,7
170,155.08,149.44,7
169,155.36,149.63,7
170,155.65,149.84,7
171,155.96,150.05,7
172,156.28,150.27,7
171,156.57,150.48,7
171,156.86,150.68,7
171,157.15,150.89,7
169,157.38,151.07,7
169,157.62,151.25,7
169,157.84,151.42,7
170,158.09,151.61,7
169,158.30,151.78,7
171,158.56,151.98,7
172,158.83,152.18,7
172,159.09,152.37,7
172,159.35,152.57,7
172,159.60,152.76,7
171,159.83,152.95,7
172,160.07,153.14,7
172,160.31,153.33,7
173,160.57,153.52,7
173,160.81,153.72,7
175,161.10,153.93,7
175,161.38,154.14,7
175,161.65,154.35,7
175,161.92,154.56,7
175,162.18,154.76,7
175,162.43,154.96,7
176,162.70,155.17,7
175,162.95,155.37,7
178,163.25,155.60,7
179,163.57,155.83,7
179,163.88,156.06,7
179,164.18,156.29,7
181,164.51,156.54,7
185,164.92,156.82,7
185,165.33,157.11,7
184,165.70,157.38,7
187,166.13,157.67,7
189,166.58,157.98,7
191,167.07,158.31,7
189,167.51,158.62,7
190,167.96,158.94,7
194,168.48,159.29,7
195,169.01,159.64,7
197,169.57,160.02,7
195,170.08,160.37,7
197,170.62,160.73,7
197,171.15,161.10,7
199,171.70,161.47,7
201,172.29,161.87,7
200,172.84,162.25,7
202,173.43,162.65,7
202,174.00,163.04,7
201,174.54,163.42,7
203,175.11,163.82,7
205,175.70,164.23,7
203,176.25,164.62,7
204,176.81,165.01,7
203,177.33,165.39,7
205,177.88,165.79,7
205,178.42,166.18,7
205,178.96,166.57,7
205,179.48,166.95,7
206,180.01,167.34,7
207,180.55,167.74,7
209,181.12,168.15,7
211,181.71,168.58,7
210,182.28,168.99,7
211,182.85,169.41,7
211,183.42,169.83,7
210,183.95,170.23,7
209,184.45,170.62,7
213,185.02,171.04,7
211,185.54,171.44,7
213,186.09,171.86,7
211,186.59,172.25,7
212,187.10,172.65,7
211,187.57,173.03,7
211,188.04,173.41,7
211,188.50,173.79,7
211,188.95,174.16,7
212,189.41,174.54,7
211,189.84,174.90,7
211,190.27,175.26,7
212,190.70,175.63,7
213,191.15,176.00,7
212,191.57,176.36,7
215,192.03,176.75,7
215,192.49,177.13,7
216,192.96,177.52,7
215,193.40,177.90,7
215,193.84,178.27,7
217,194.30,178.65,7
216,194.73,179.03,7
217,195.18,179.41,7
220,195.68,179.81,7
217,196.10,180.19,7
218,196.54,180.56,7
220,197.01,180.96,7
220,197.47,181.35,7
220,197.92,181.73,7
220,198.36,182.12,7
220,198.79,182.50,7
219,199.20,182.86,7
221,199.63,183.24,7
221,200.06,183.62,7
222,200.50,184.00,7
222,200.93,184.38,7
221,201.33,184.75,7
221,201.72,185.11,7
227,202.23,185.53,7
223,202.65,185.91,7
226,203.11,186.31,7
228,203.61,186.72,7
226,204.06,187.12,7
226,204.50,187.51,7
228,204.97,187.91,7
228,205.43,188.31,7
228,205.88,188.71,7
229,206.34,189.11,7
228,206.77,189.50,7
228,207.20,189.89,7
229,207.64,190.28,7
229,208.06,190.66,7
228,208.46,191.04,7
229,208.87,191.42,7
228,209.25,191.78,7
229,209.65,192.15,7
229,210.04,192.52,7
229,210.42,192.89,7
229,210.79,193.25,7
230,211.17,193.62,7
229,211.53,193.97,7
231,211.92,194.34,7
229,212.26,194.69,7
229,212.59,195.03,7
229,212.92,195.37,7
229,213.24,195.71,7
231,213.60,196.06,7
229,213.91,196.39,7
229,214.21,196.71,7
229,214.50,197.04,7
229,214.79,197.36,7
229,215.08,197.67,7
229,215.36,197.99,7
229,215.63,198.30,7
228,215.88,198.59,7
229,216.14,198.90,7
229,216.40,199.20,7
231,216.69,199.52,7
229,216.94,199.81,7
227,217.14,200.08,7
227,217.33,200.35,7
228,217.55,200.63,7
226,217.72,200.88,7
227,217.90,201.14,7
227,218.08,201.40,7
225,218.22,201.64,7
227,218.40,201.89,7
227,218.57,202.14,7
225,218.70,202.37,7
225,218.82,202.60,7
225,218.95,202.82,7
225,219.07,203.04,7
224,219.17,203.25,7
226,219.30,203.48,7
223,219.38,203.68,7
224,219.47,203.88,7
223,219.54,204.07,7
223,219.61,204.26,7
223,219.68,204.45,7
223,219.74,204.63,7
222,219.79,204.81,7
221,219.81,204.97,7
221,219.84,205.13,7
221,219.86,205.29,7
221,219.88,205.44,7
221,219.91,205.60,7
221,219.93,205.75,7
219,219.91,205.89,7
221,219.93,206.04,7
219,219.91,206.17,7
220,219.91,206.31,7
220,219.92,206.44,7
219,219.90,206.57,7
219,219.88,206.69,7
218,219.84,206.81,7
218,219.81,206.92,7
221,219.83,207.06,7
217,219.77,207.16,7
216,219.70,207.25,7
217,219.64,207.34,7
216,219.57,207.43,7
216,219.50,207.52,7
216,219.43,207.60,7
215,219.34,207.68,7
215,219.25,207.75,7
215,219.17,207.82,7
214,219.07,207.88,7
215,218.98,207.95,7
213,218.86,208.00,7
213,218.75,208.05,7
214,218.65,208.11,7
215,218.58,208.18,7
215,218.51,208.25,7
213,218.40,208.30,7
213,218.29,208.35,7
215,218.22,208.41,7
214,218.14,208.47,7
213,218.04,208.51,7
214,217.96,208.57,7
212,217.84,208.60,7
212,217.72,208.64,7
211,217.59,208.66,7
213,217.49,208.70,7
211,217.36,208.73,7
212,217.26,208.76,7
211,217.13,208.78,7
210,216.99,208.79,7
210,216.85,208.81,7
210,216.71,208.82,7
209,216.56,208.82,7
209,216.41,208.82,7
209,216.26,208.82,7
209,216.11,208.82,7
208,215.95,208.82,7
208,215.79,208.81,7
207,215.62,208.79,7
207,215.44,208.77,7
207,215.28,208.75,7
207,215.11,208.74,7
207,214.95,208.72,7
206,214.77,208.69,7
205,214.57,208.66,7
206,214.40,208.63,7
206,214.23,208.60,7
205,214.05,208.57,7
205,213.87,208.53,7
204,213.67,208.49,7
204,213.48,208.44,7
204,213.29,208.40,7
203,213.08,208.34,7
204,212.90,208.30,7
202,212.68,208.24,7
203,212.49,208.18,7
202,212.28,208.12,7
201,212.05,208.05,7
201,211.83,207.98,7
202,211.64,207.92,7
201,211.42,207.85,7
201,211.21,207.78,7
201,211.01,207.71,7
202,210.83,207.66,7
201,210.63,207.59,7
201,210.44,207.53,7
200,210.23,207.45,7
201,210.05,207.39,7
201,209.87,207.32,7
200,209.67,207.25,7
204,209.56,207.22,7
199,209.34,207.13,7
199,209.14,207.05,7
200,208.95,206.98,7
200,208.78,206.91,7
199,208.58,206.83,7
198,208.37,206.74,7
197,208.14,206.65,7
197,207.92,206.55,7
197,207.70,206.46,7
199,207.53,206.38,7
197,207.32,206.29,7
197,207.11,206.19,7
197,206.91,206.10,7
195,206.67,205.99,7
196,206.46,205.89,7
194,206.21,205.77,7
195,205.98,205.66,7
195,205.76,205.56,7
195,205.55,205.45,8
194,205.32,205.34,8
195,205.11,205.23,9
194,204.89,205.12,9
194,204.67,205.01,9
193,204.44,204.89,9
193,204.21,204.77,9
193,203.98,204.65,9
193,203.76,204.54,9
192,203.53,204.41,9
192,203.30,204.29,9
193,203.09,204.18,9
192,202.87,204.05,9
192,202.65,203.93,9
191,202.42,203.80,9
192,202.21,203.69,9
191,201.99,203.56,9
191,201.77,203.43,9
191,201.55,203.31,9
191,201.34,203.19,9
190,201.11,203.05,9
191,200.91,202.93,9
190,200.69,202.80,9
191,200.50,202.69,9
189,200.27,202.55,9
189,200.04,202.41,9
189,199.82,202.28,9
190,199.63,202.16,9
189,199.41,202.03,9
190,199.23,201.90,9
189,199.02,201.78,9
189,198.82,201.65,9
188,198.61,201.51,9
187,198.37,201.37,9
188,198.17,201.23,9
187,197.94,201.09,9
187,197.72,200.95,9
187,197.51,200.81,9
187,197.30,200.67,9
186,197.07,200.53,9
185,196.83,200.37,9
186,196.61,200.23,9
185,196.38,200.07,9
186,196.17,199.93,9
186,195.97,199.79,9
185,195.75,199.65,9
186,195.56,199.51,9
185,195.35,199.36,9
185,195.14,199.22,9
185,194.94,199.08,9
185,194.74,198.94,9
185,194.54,198.80,9
184,194.33,198.65,9
184,194.13,198.50,9
183,193.90,198.35,9
183,193.68,198.20,9
182,193.45,198.03,9
182,193.22,197.87,9
181,192.98,197.70,9
183,192.78,197.56,9
182,192.56,197.40,9
183,192.37,197.26,9
181,192.14,197.10,9
181,191.92,196.93,9
181,191.70,196.78,9
181,191.49,196.62,9
181,191.28,196.46,9
181,191.07,196.31,9
181,190.87,196.15,9
180,190.65,195.99,9
180,190.44,195.83,9
179,190.21,195.66,9
180,190.01,195.51,9
179,189.79,195.34,9
180,189.59,195.19,9
180,189.40,195.04,9
179,189.19,194.88,9
179,188.99,194.72,9
178,188.77,194.55,9
177,188.53,194.37,9
178,188.32,194.21,9
177,188.10,194.04,9
177,187.87,193.87,9
177,187.66,193.70,9
177,187.44,193.53,9
177,187.23,193.37,9
176,187.01,193.19,9
175,186.77,193.01,9
176,186.55,192.84,9
175,186.32,192.66,9
175,186.10,192.49,9
173,185.83,192.29,9
175,185.62,192.12,9
175,185.41,191.95,9
175,185.20,191.78,9
174,184.97,191.60,9
173,184.73,191.41,9
173,184.50,191.23,9
174,184.29,191.06,9
173,184.06,190.88,9
174,183.86,190.71,9
174,183.67,190.54,9
173,183.45,190.37,9
173,183.24,190.19,9
173,183.04,190.02,9
173,182.84,189.85,9
173,182.64,189.68,9
172,182.43,189.51,9
172,182.22,189.33,9
171,181.99,189.15,9
172,181.80,188.98,9
171,181.58,188.80,9
171,181.37,188.62,9
171,181.16,188.44,9
171,180.96,188.27,9
169,180.72,188.07,9
170,180.50,187.89,9
170,180.29,187.71,9
170,180.09,187.54,9
169,179.87,187.35,9
170,179.67,187.18,9
170,179.48,187.01,9
169,179.27,186.83,9
169,179.06,186.65,9
169,178.86,186.47,9
169,178.66,186.30,9
169,178.47,186.12,9
169,178.28,185.95,9
169,178.09,185.78,9
169,177.91,185.62,9
171,177.77,185.47,9
168,177.58,185.29,9
169,177.41,185.13,9
169,177.24,184.97,9
168,177.05,184.80,9
167,176.85,184.62,9
167,176.66,184.45,9
167,176.46,184.27,9
168,176.29,184.11,9
167,176.11,183.94,9
167,175.93,183.77,9
166,175.73,183.59,9
167,175.55,183.43,9
167,175.38,183.26,9
167,175.21,183.10,9
166,175.03,182.93,9
165,174.83,182.75,9
165,174.63,182.57,9
166,174.46,182.41,9
165,174.27,182.23,9
166,174.11,182.07,9
165,173.92,181.90,9
165,173.74,181.73,9
165,173.57,181.56,9
165,173.40,181.40,9
166,173.25,181.24,9
166,173.11,181.09,9
165,172.94,180.93,9
164,172.76,180.76,9
165,172.61,180.60,9
165,172.46,180.45,9
165,172.31,180.29,9
165,172.16,180.14,9
164,172.00,179.98,9
165,171.86,179.83,9
166,171.74,179.69,9
165,171.61,179.54,9
165,171.47,179.40,9
165,171.34,179.25,9
165,171.22,179.11,9
165,171.09,178.97,9
165,170.97,178.83,9
165,170.85,178.69,9
164,170.72,178.54,9
165,170.60,178.41,9
163,170.45,178.25,9
164,170.32,178.11,9
163,170.17,177.96,9
163,170.03,177.81,9
164,169.91,177.67,9
164,169.79,177.54,9
164,169.68,177.40,9
164,169.56,177.27,9
163,169.43,177.12,9
163,169.30,176.98,9
163,169.18,176.84,9
163,169.05,176.71,9
163,168.93,176.57,9
162,168.79,176.42,9
162,168.66,176.28,9
162,168.52,176.14,9
161,168.37,175.98,9
161,168.23,175.83,9
161,168.08,175.69,9
161,167.94,175.54,9
161,167.80,175.39,9
161,167.66,175.25,9
162,167.55,175.12,9
161,167.42,174.98,9
161,167.29,174.84,9
159,167.13,174.68,9
161,167.00,174.54,9
161,166.88,174.41,9
161,166.77,174.27,9
159,166.61,174.12,9
160,166.48,173.98,9
160,166.35,173.84,9
160,166.22,173.70,9
161,166.12,173.57,9
160,166.00,173.44,9
160,165.88,173.30,9
159,165.74,173.16,9
161,165.64,173.04,9
160,165.53,172.91,9
161,165.44,172.79,9
160,165.33,172.66,9
160,165.22,172.53,9
159,165.10,172.40,9
160,165.00,172.27,9
160,164.90,172.15,9
160,164.80,172.03,9
159,164.68,171.90,9
159,164.57,171.77,9
159,164.46,171.64,9
159,164.35,171.52,9
159,164.24,171.39,9
159,164.14,171.27,9
159,164.03,171.15,9
158,163.91,171.01,9
158,163.80,170.88,9
158,163.68,170.75,9
158,163.57,170.63,9
157,163.44,170.49,9
157,163.31,170.36,9
157,163.18,170.22,9
157,163.06,170.09,9
159,162.98,169.98,9
158,162.88,169.86,9
157,162.76,169.73,9
156,162.62,169.59,9
155,162.47,169.45,9
157,162.36,169.32,9
158,162.27,169.21,9
157,162.17,169.09,9
157,162.07,168.97,9
157,161.96,168.85,9
158,161.88,168.74,9
157,161.79,168.62,9
157,161.69,168.51,9
157,161.60,168.39,9
157,161.51,168.28,9
157,161.42,168.16,9
156,161.31,168.04,9
157,161.22,167.93,9
157,161.14,167.82,9
157,161.05,167.71,9
156,160.95,167.60,9
156,160.85,167.48,9
156,160.76,167.37,9
157,160.68,167.26,9
157,160.61,167.16,9
156,160.52,167.05,9
156,160.43,166.94,9
160,160.42,166.87,9
157,160.35,166.77,9
157,160.28,166.67,9
156,160.20,166.57,9
156,160.11,166.46,9
155,160.01,166.35,9
158,159.97,166.26,9
156,159.89,166.16,9
156,159.81,166.06,9
156,159.74,165.96,9
156,159.66,165.86,9
156,159.59,165.76,9
156,159.52,165.66,9
155,159.43,165.55,9
155,159.34,165.45,9
155,159.25,165.34,9
159,159.25,165.28,9
155,159.16,165.18,9
155,159.08,165.08,9
153,158.96,164.96,9
155,158.88,164.86,9
154,158.78,164.75,9
154,158.68,164.64,9
153,158.57,164.52,9
153,158.46,164.41,9
154,158.37,164.30,9
154,158.28,164.20,9
153,158.18,164.09,9
155,158.11,164.00,9
155,158.05,163.91,9
153,157.95,163.80,9
153,157.85,163.69,9
152,157.73,163.57,9
153,157.64,163.47,9
153,157.55,163.36,9
153,157.46,163.26,9
153,157.37,163.16,9
154,157.30,163.07,9
155,157.25,162.99,9
153,157.17,162.89,9
154,157.10,162.80,9
153,157.02,162.70,9
153,156.94,162.60,9
153,156.86,162.51,9
153,156.79,162.41,9
153,156.71,162.32,9
153,156.64,162.22,9
152,156.54,162.12,9
152,156.45,162.02,9
152,156.36,161.92,9
150,156.24,161.80,9
152,156.15,161.70,9
153,156.09,161.62,9
152,156.01,161.52,9
152,155.93,161.42,9
152,155.85,161.33,9
152,155.77,161.24,9
153,155.72,161.15,9
152,155.64,161.06,9
152,155.57,160.97,9
152,155.50,160.88,9
153,155.45,160.80,9
152,155.38,160.72,9
151,155.29,160.62,9
152,155.22,160.53,9
151,155.14,160.44,9
153,155.10,160.36,9
152,155.04,160.28,9
151,154.95,160.19,9
151,154.88,160.09,9
152,154.82,160.01,9
151,154.74,159.92,9
152,154.69,159.84,9
151,154.61,159.76,9
151,154.54,159.67,9
149,154.43,159.56,9
151,154.36,159.48,9
151,154.29,159.39,9
150,154.21,159.30,9
151,154.14,159.21,9
151,154.08,159.13,9
151,154.02,159.05,9
151,153.96,158.97,9
151,153.90,158.89,9
151,153.84,158.81,9
151,153.79,158.73,9
151,153.73,158.66,9
152,153.70,158.59,9
151,153.64,158.51,9
152,153.61,158.45,9
151,153.56,158.37,9
151,153.51,158.30,9
151,153.46,158.23,9
152,153.43,158.17,9
150,153.36,158.08,9
151,153.31,158.01,9
149,153.22,157.92,9
149,153.14,157.83,9
149,153.06,157.74,9
149,152.98,157.66,9
150,152.92,157.58,9
149,152.84,157.50,9
149,152.76,157.41,9
150,152.71,157.34,9
151,152.67,157.27,9
149,152.60,157.19,9
149,152.53,157.11,9
149,152.46,157.03,9
150,152.41,156.96,9
150,152.36,156.89,9
149,152.29,156.81,9
149,152.23,156.73,9
149,152.16,156.65,9
149,152.10,156.58,9
149,152.04,156.50,9
149,151.98,156.43,9
149,151.92,156.35,9
149,151.86,156.28,9
149,151.80,156.21,9
150,151.76,156.14,9
148,151.69,156.06,9
149,151.64,155.99,9
149,151.58,155.92,9
149,151.53,155.85,9
147,151.44,155.76,9
149,151.39,155.70,9
147,151.30,155.61,9
151,151.30,155.56,9
149,151.25,155.50,9
149,151.21,155.43,9
149,151.16,155.37,9
149,151.12,155.30,9
151,151.12,155.26,9
150,151.09,155.21,9
149,151.05,155.15,9
149,151.01,155.08,9
149,150.97,155.02,9
149,150.93,154.96,9
151,150.93,154.92,9
149,150.89,154.87,9
150,150.88,154.82,9
151,150.88,154.78,9
151,150.88,154.74,9
151,150.88,154.70,9
151,150.89,154.67,9
151,150.89,154.63,9
151,150.89,154.59,9
151,150.89,154.56,9
151,150.90,154.52,9
151,150.90,154.49,9
151,150.90,154.45,9
151,150.90,154.42,9
151,150.90,154.38,9
149,150.87,154.33,9
149,150.83,154.28,9
151,150.83,154.24,9
151,150.83,154.21,9
151,150.84,154.18,9
151,150.84,154.15,9
150,150.82,154.11,9
151,150.83,154.07,9
151,150.83,154.04,9
151,150.83,154.01,9
152,150.86,153.99,9
152,150.88,153.97,9
156,150.98,153.99,9
152,151.00,153.97,9
151,151.00,153.94,9
153,151.04,153.93,9
153,151.08,153.92,9
153,151.12,153.92,9
152,151.14,153.90,9
152,151.16,153.88,9
152,151.17,153.86,9
153,151.21,153.85,9
152,151.23,153.83,9
153,151.26,153.82,9
153,151.30,153.81,9
153,151.33,153.81,9
153,151.36,153.80,9
153,151.40,153.79,9
155,151.47,153.80,9
153,151.50,153.79,9
153,151.53,153.79,9
153,151.56,153.78,9
153,151.59,153.77,9
153,151.61,153.76,9
153,151.64,153.76,9
155,151.71,153.77,9
154,151.76,153.77,9
153,151.78,153.76,9
153,151.80,153.76,9
153,151.83,153.75,9
155,151.89,153.76,9
153,151.91,153.75,9
153,151.94,153.75,9
153,151.96,153.74,9
154,152.00,153.74,9
154,152.04,153.74,9
153,152.06,153.74,9
153,152.08,153.73,9
154,152.11,153.73,9
154,152.15,153.73,9
154,152.19,153.74,9
155,152.25,153.75,9
154,152.28,153.75,9
155,152.34,153.76,9
155,152.39,153.78,9
156,152.46,153.80,9
156,152.53,153.82,9
157,152.62,153.85,9
157,152.71,153.88,9
156,152.77,153.90,9
157,152.86,153.94,9
158,152.96,153.98,9
157,153.04,154.01,9
157,153.12,154.04,9
157,153.20,154.07,9
157,153.28,154.10,9
157,153.35,154.12,9
155,153.38,154.13,9
158,153.48,154.17,9
157,153.55,154.20,9
157,153.61,154.23,9
157,153.68,154.26,9
158,153.77,154.29,9
157,153.83,154.32,9
157,153.90,154.35,9
157,153.96,154.37,9
158,154.04,154.41,9
157,154.10,154.44,9
157,154.16,154.46,9
157,154.21,154.49,9
158,154.29,154.52,9
157,154.34,154.55,9
157,154.40,154.57,9
158,154.47,154.61,9
158,154.54,154.64,10
157,154.59,154.66,10
158,154.66,154.70,11
157,154.70,154.72,11
158,154.77,154.75,12
159,154.85,154.80,12
159,154.94,154.84,13
158,155.00,154.87,13
160,155.10,154.92,13
158,155.16,154.95,13
156,155.17,154.96,13
159,155.25,155.00,13
157,155.28,155.02,13
160,155.38,155.07,13
158,155.43,155.10,13
158,155.48,155.13,13
158,155.53,155.16,13
159,155.60,155.20,13
159,155.67,155.24,13
159,155.74,155.27,13
159,155.80,155.31,13
161,155.91,155.37,13
158,155.95,155.39,13
158,155.99,155.42,13
158,156.03,155.45,13
159,156.09,155.48,13
159,156.15,155.52,13
158,156.18,155.54,13
159,156.24,155.58,13
161,156.34,155.63,13
159,156.39,155.66,13
160,156.46,155.71,13
160,156.53,155.75,13
159,156.58,155.78,13
159,156.63,155.81,13
159,156.68,155.85,13
159,156.72,155.88,13
160,156.79,155.92,13
160,156.85,155.96,13
159,156.90,155.99,13
160,156.96,156.03,13
158,156.98,156.05,13
159,157.02,156.08,13
159,157.06,156.11,13
159,157.10,156.14,13
160,157.16,156.18,13
159,157.19,156.20,13
158,157.21,156.22,13
159,157.24,156.25,13
159,157.28,156.28,13
159,157.31,156.30,13
159,157.35,156.33,13
158,157.36,156.35,13
159,157.39,156.37,13
159,157.43,156.40,13
158,157.44,156.42,13
164,157.57,156.49,13
159,157.60,156.52,13
159,157.63,156.54,13
159,157.65,156.57,13
162,157.74,156.62,13
162,157.83,156.68,13
161,157.89,156.72,13
159,157.91,156.74,13
161,157.97,156.78,13
161,158.03,156.83,13
159,158.05,156.85,13
160,158.09,156.88,13
159,158.11,156.90,13
161,158.17,156.94,13
160,158.20,156.97,13
160,158.24,157.00,13
159,158.26,157.02,13
161,158.31,157.06,13
161,158.36,157.10,13
161,158.42,157.14,13
160,158.45,157.17,13
161,158.50,157.21,13
162,158.57,157.26,13
160,158.60,157.28,13
161,158.65,157.32,13
161,158.69,157.36,13
161,158.74,157.39,13
162,158.80,157.44,13
164,158.91,157.51,13
163,158.99,157.56,13
162,159.05,157.60,13
162,159.11,157.65,13
162,159.17,157.69,13
162,159.22,157.74,13
161,159.26,157.77,13
164,159.35,157.83,13
161,159.39,157.86,13
162,159.44,157.90,13
162,159.49,157.94,13
162,159.54,157.98,13
162,159.59,158.02,13
161,159.62,158.05,13
161,159.65,158.08,13
161,159.67,158.11,13
163,159.74,158.16,13
162,159.78,158.20,13
162,159.83,158.24,13
162,159.87,158.28,13
163,159.94,158.32,13
163,160.00,158.37,13
165,160.10,158.44,13
163,160.15,158.48,13
164,160.23,158.54,13
166,160.35,158.61,13
166,160.46,158.69,13
166,160.57,158.76,13
165,160.66,158.82,13
166,160.77,158.89,13
165,160.85,158.95,13
166,160.95,159.02,13
165,161.03,159.08,13
166,161.13,159.15,13
166,161.23,159.22,13
167,161.35,159.30,13
167,161.46,159.38,13
167,161.57,159.45,13
168,161.70,159.54,13
168,161.83,159.62,13
168,161.95,159.71,13
167,162.05,159.78,13
167,162.15,159.85,13
167,162.25,159.92,13
168,162.36,160.00,13
169,162.49,160.09,13
169,162.62,160.18,13
169,162.75,160.27,13
171,162.92,160.38,13
172,163.10,160.49,13
173,163.30,160.62,13
172,163.47,160.73,13
172,163.64,160.85,13
172,163.81,160.96,13
173,163.99,161.08,13
177,164.25,161.24,13
177,164.51,161.40,13
177,164.76,161.55,13
177,165.00,161.71,13
177,165.24,161.86,13
178,165.50,162.02,13
178,165.75,162.18,13
178,165.99,162.34,13
179,166.25,162.50,13
179,166.51,162.67,13
180,166.78,162.84,13
183,167.10,163.04,13
185,167.46,163.26,13
183,167.77,163.46,13
185,168.11,163.68,13
184,168.43,163.88,13
187,168.80,164.11,13
189,169.21,164.36,13
188,169.58,164.60,13
190,169.99,164.85,13
191,170.41,165.11,13
190,170.80,165.36,13
189,171.17,165.60,13
194,171.62,165.88,13
193,172.05,166.15,13
193,172.47,166.42,13
192,172.86,166.68,13
195,173.30,166.96,13
195,173.74,167.24,13
194,174.14,167.51,13
195,174.56,167.78,13
194,174.95,168.05,13
196,175.37,168.32,13
195,175.76,168.59,13
194,176.13,168.85,13
195,176.51,169.11,13
198,176.94,169.40,13
196,177.32,169.66,13
198,177.73,169.95,13
200,178.18,170.25,13
201,178.63,170.55,13
198,179.02,170.83,13
198,179.40,171.10,13
199,179.79,171.38,13
202,180.24,171.68,13
200,180.63,171.97,13
201,181.04,172.26,13
200,181.42,172.54,13
200,181.79,172.81,13
200,182.15,173.08,13
200,182.51,173.35,13
200,182.86,173.62,13
200,183.20,173.88,13
201,183.56,174.15,13
200,183.89,174.41,13
201,184.23,174.68,13
202,184.58,174.95,13
201,184.91,175.21,13
203,185.27,175.49,13
202,185.61,175.75,13
203,185.96,176.03,13
203,186.30,176.30,13
203,186.63,176.56,13
204,186.98,176.84,13
205,187.34,177.12,13
204,187.67,177.39,13
204,188.00,177.65,13
206,188.36,177.94,13
208,188.75,178.24,13
207,189.12,178.53,13
207,189.48,178.81,13
208,189.85,179.10,13
210,190.25,179.41,13
210,190.64,179.72,13
210,191.03,180.02,13
212,191.45,180.34,13
210,191.82,180.64,13
212,192.22,180.95,13
213,192.64,181.27,13
215,193.09,181.61,13
215,193.53,181.94,13
214,193.94,182.26,13
217,194.40,182.61,13
219,194.89,182.97,13
217,195.33,183.31,13
218,195.78,183.66,13
221,196.29,184.03,13
221,196.78,184.40,13
219,197.23,184.75,13
222,197.72,185.12,13
222,198.21,185.49,13
224,198.72,185.88,13
223,199.21,186.25,13
223,199.69,186.62,13
223,200.15,186.98,13
225,200.65,187.36,13
224,201.12,187.73,13
224,201.57,188.09,13
225,202.04,188.46,13
226,202.52,188.83,13
226,202.99,189.20,13
225,203.43,189.56,13
225,203.86,189.92,13
233,204.45,190.35,13
233,205.02,190.77,13
231,205.54,191.18,13
233,206.09,191.59,13
235,206.66,192.03,13
234,207.21,192.45,13
233,207.73,192.85,13
233,208.23,193.26,13
234,208.75,193.66,13
235,209.27,194.08,13
233,209.75,194.47,13
233,210.21,194.85,13
232,210.65,195.22,13
232,211.07,195.59,13
233,211.51,195.96,13
232,211.92,196.32,13
235,212.38,196.71,13
234,212.82,197.08,13
234,213.24,197.45,13
233,213.64,197.81,13
232,214.00,198.15,13
234,214.40,198.51,13
235,214.81,198.87,13
233,215.18,199.22,13
234,215.55,199.56,13
234,215.92,199.91,13
236,216.33,200.27,13
236,216.72,200.63,13
236,217.10,200.98,13
235,217.46,201.32,13
237,217.85,201.68,13
237,218.24,202.03,13
239,218.65,202.40,13
238,219.04,202.76,13
240,219.46,203.13,13
245,219.97,203.55,13
240,220.37,203.91,13
242,220.80,204.29,13
245,221.29,204.70,13
247,221.80,205.12,13
247,222.30,205.54,13
246,222.78,205.95,13
249,223.30,206.38,13
251,223.86,206.82,13
252,224.42,207.27,13
252,224.97,207.72,13
256,225.59,208.20,13
255,226.18,208.67,13
257,226.80,209.16,13
257,227.40,209.63,13
259,228.03,210.13,13
259,228.65,210.62,13
259,229.26,211.10,13
259,229.85,211.58,13
258,230.42,212.04,13
260,231.01,212.52,13
262,231.63,213.02,13
260,232.19,213.49,13
261,232.77,213.96,13
260,233.32,214.42,13
260,233.85,214.88,13
260,234.37,215.33,13
261,234.90,215.79,13
260,235.41,216.23,13
260,235.90,216.67,13
259,236.36,217.09,13
258,236.79,217.50,13
258,237.22,217.90,13
258,237.63,218.31,13
257,238.02,218.69,13
261,238.48,219.12,13
257,238.85,219.49,13
257,239.21,219.87,13
256,239.55,220.23,13
256,239.88,220.59,13
256,240.20,220.94,13
256,240.52,221.29,13
256,240.83,221.64,13
256,241.13,221.98,13
255,241.41,222.31,13
254,241.66,222.63,13
255,241.93,222.95,13
254,242.17,223.26,13
254,242.40,223.57,13
253,242.62,223.87,13
253,242.82,224.16,13
255,243.07,224.47,13
253,243.27,224.75,13
253,243.46,225.03,13
253,243.65,225.31,13
253,243.84,225.59,13
253,244.02,225.86,13
253,244.20,226.14,13
252,244.36,226.39,13
252,244.51,226.65,13
252,244.66,226.90,13
251,244.79,227.14,13
251,244.91,227.38,13
251,245.03,227.62,13
251,245.15,227.85,13
250,245.25,228.07,13
250,245.34,228.29,13
250,245.44,228.51,13
249,245.51,228.72,13
249,245.58,228.92,13
247,245.61,229.10,13
248,245.65,229.29,13
247,245.68,229.47,13
247,245.71,229.64,13
246,245.71,229.80,13
246,245.72,229.97,13
246,245.73,230.13,13
245,245.71,230.28,13
245,245.70,230.42,13
244,245.66,230.56,13
243,245.61,230.68,13
244,245.58,230.82,13
243,245.53,230.94,13
243,245.47,231.06,13
242,245.41,231.17,13
243,245.36,231.29,13
243,245.31,231.40,13
242,245.24,231.51,13
242,245.18,231.61,13
241,245.10,231.71,13
241,245.01,231.80,13
241,244.93,231.89,13
241,244.85,231.98,13
240,244.76,232.06,13
240,244.66,232.14,13
239,244.55,232.21,13
239,244.44,232.28,13
238,244.31,232.34,13
238,244.18,232.39,13
237,244.04,232.44,13
238,243.92,232.50,13
236,243.76,232.53,13
237,243.63,232.58,13
236,243.47,232.61,13
235,243.30,232.63,13
233,243.10,232.64,13
235,242.94,232.66,13
235,242.78,232.68,13
234,242.60,232.70,13
234,242.43,232.71,13
235,242.28,232.73,13
235,242.13,232.76,13
232,241.93,232.75,13
233,241.75,232.75,13
232,241.56,232.74,13
233,241.39,232.75,13
233,241.22,232.75,13
232,241.04,232.74,13
233,240.87,232.74,13
233,240.72,232.75,13
231,240.52,232.73,13
232,240.35,232.72,13
231,240.17,232.70,13
230,239.96,232.68,13
229,239.74,232.64,13
230,239.55,232.61,13
231,239.38,232.60,13
228,239.15,232.55,13
228,238.93,232.51,13
229,238.73,232.47,13
228,238.51,232.43,13
227,238.28,232.37,13
228,238.08,232.33,13
228,237.88,232.29,13
227,237.66,232.23,13
226,237.43,232.17,13
226,237.20,232.11,13
228,237.01,232.07,13
227,236.81,232.02,13
225,236.58,231.95,13
225,236.34,231.88,13
225,236.12,231.81,13
225,235.90,231.74,13
224,235.66,231.66,13
224,235.42,231.59,13
224,235.20,231.51,13
223,234.95,231.43,13
223,234.71,231.34,13
222,234.46,231.25,13
222,234.21,231.16,13
222,233.97,231.06,13
222,233.73,230.97,13
221,233.47,230.87,13
221,233.22,230.77,13
221,232.98,230.68,13
221,232.74,230.58,13
222,232.52,230.49,13
221,232.29,230.40,13
220,232.05,230.30,13
220,231.81,230.19,13
220,231.57,230.09,13
219,231.32,229.98,13
220,231.09,229.88,13
219,230.85,229.77,13
220,230.63,229.67,13
220,230.42,229.58,13
220,230.21,229.48,13
218,229.97,229.37,13
218,229.73,229.25,13
218,229.49,229.14,13
218,229.26,229.03,13
218,229.04,228.92,14
218,228.82,228.81,14
217,228.58,228.69,15
217,228.35,228.57,15
217,228.12,228.46,15
217,227.90,228.34,15
216,227.66,228.22,15
216,227.43,228.10,15
216,227.20,227.98,15
215,226.96,227.85,15
216,226.74,227.73,15
216,226.52,227.61,15
215,226.29,227.49,15
213,226.03,227.34,15
213,225.77,227.20,15
214,225.53,227.07,15
213,225.28,226.92,15
214,225.05,226.80,15
213,224.81,226.66,15
214,224.60,226.53,15
212,224.35,226.39,15
212,224.10,226.24,15
212,223.86,226.10,15
211,223.60,225.95,15
211,223.35,225.80,15
211,223.10,225.65,15
211,222.86,225.50,15
211,222.62,225.36,15
212,222.41,225.23,15
210,222.16,225.07,15
210,221.92,224.92,15
209,221.66,224.76,15
209,221.41,224.61,15
209,221.16,224.45,15
209,220.91,224.30,15
210,220.70,224.15,15
208,220.44,223.99,15
207,220.17,223.82,15
208,219.93,223.66,15
208,219.69,223.51,15
207,219.44,223.34,15
207,219.19,223.18,15
207,218.95,223.02,15
207,218.71,222.86,15
207,218.47,222.70,15
206,218.22,222.53,15
206,217.98,222.36,15
206,217.74,222.20,15
207,217.52,222.05,15
206,217.29,221.89,15
209,217.13,221.76,15
205,216.88,221.59,15
205,216.65,221.43,15
205,216.41,221.26,15
205,216.19,221.10,15
205,215.96,220.94,15
205,215.74,220.78,15
204,215.51,220.61,15
205,215.30,220.46,15
204,215.07,220.29,15
203,214.83,220.12,15
204,214.61,219.96,15
203,214.38,219.79,15
203,214.15,219.62,15
203,213.93,219.45,15
204,213.73,219.30,15
204,213.54,219.15,15
205,213.37,219.00,15
203,213.16,218.84,15
202,212.94,218.68,15
203,212.74,218.52,15
203,212.54,218.36,15
202,212.33,218.20,15
203,212.15,218.05,15
203,211.96,217.90,15
204,211.80,217.76,15
204,211.65,217.62,15
202,211.45,217.46,15
202,211.27,217.31,15
202,211.08,217.16,15
202,210.90,217.01,15
202,210.72,216.86,15
201,210.53,216.70,15
201,210.34,216.54,15
203,210.19,216.40,15
205,210.09,216.29,15
201,209.90,216.14,15
201,209.73,215.99,15
200,209.53,215.83,15
201,209.36,215.68,15
200,209.17,215.52,15
202,209.03,215.39,15
201,208.87,215.24,15
200,208.69,215.09,15
199,208.50,214.93,15
199,208.31,214.77,15
199,208.12,214.61,15
199,207.94,214.46,15
200,207.78,214.31,15
202,207.66,214.19,15
199,207.49,214.04,15
199,207.32,213.89,15
198,207.14,213.73,15
199,206.97,213.58,15
198,206.79,213.42,15
198,206.62,213.27,15
201,206.50,213.15,15
199,206.35,213.01,15
199,206.21,212.87,15
197,206.02,212.71,15
198,205.86,212.56,15
198,205.71,212.41,15
197,205.53,212.26,15
197,205.36,212.11,15
197,205.19,211.96,15
199,205.07,211.83,15
196,204.89,211.67,15
195,204.69,211.50,15
196,204.52,211.35,15
196,204.35,211.19,15
195,204.16,211.03,15
194,203.96,210.86,15
197,203.82,210.72,15
198,203.70,210.60,15
196,203.55,210.45,15
194,203.36,210.28,15
194,203.17,210.12,15
195,203.01,209.97,15
195,202.85,209.82,15
194,202.67,209.66,15
196,202.54,209.53,15
196,202.40,209.39,15
195,202.26,209.25,15
195,202.11,209.10,15
194,201.95,208.95,15
195,201.81,208.81,15
195,201.67,208.68,15
194,201.52,208.53,15
194,201.37,208.38,15
196,201.26,208.26,15
192,201.08,208.10,15
193,200.92,207.95,15
194,200.78,207.81,15
193,200.62,207.66,15
193,200.47,207.51,15
192,200.30,207.36,15
194,200.17,207.22,15
195,200.07,207.10,15
192,199.91,206.95,15
192,199.75,206.80,15
192,199.60,206.65,15
192,199.44,206.51,15
191,199.28,206.35,15
191,199.11,206.20,15
193,198.99,206.07,15
195,198.91,205.96,15
193,198.79,205.83,15
191,198.63,205.68,15
192,198.50,205.54,15
192,198.37,205.41,15
192,198.24,205.27,15
191,198.10,205.13,15
191,197.96,204.99,15
194,197.88,204.88,15
191,197.74,204.74,15
191,197.61,204.60,15
191,197.47,204.47,15
191,197.34,204.33,15
191,197.22,204.20,15
191,197.09,204.07,15
192,196.99,203.94,15
193,196.91,203.84,15
191,196.79,203.71,15
192,196.70,203.59,15
191,196.58,203.46,15
192,196.49,203.35,15
189,196.34,203.21,15
191,196.23,203.08,15
193,196.17,202.98,15
194,196.13,202.89,15
191,196.02,202.77,15
191,195.92,202.66,15
191,195.83,202.54,15
192,195.75,202.43,15
191,195.65,202.32,15
190,195.54,202.20,15
189,195.41,202.06,15
192,195.34,201.96,15
190,195.23,201.84,15
190,195.13,201.73,15
187,194.97,201.58,15
189,194.85,201.45,15
190,194.75,201.34,15
190,194.66,201.23,15
192,194.60,201.13,15
191,194.53,201.03,15
190,194.44,200.92,15
187,194.29,200.78,15
187,194.15,200.64,15
190,194.06,200.54,15
188,193.94,200.41,15
188,193.82,200.29,15
189,193.73,200.18,15
190,193.65,200.07,15
187,193.52,199.94,15
187,193.39,199.81,15
186,193.24,199.68,15
187,193.12,199.55,15
186,192.97,199.41,15
185,192.81,199.27,15
185,192.66,199.13,15
188,192.56,199.01,15
186,192.43,198.88,15
185,192.28,198.75,15
184,192.12,198.60,15
185,191.98,198.46,15
185,191.84,198.33,15
186,191.72,198.20,15
186,191.61,198.08,15
186,191.49,197.96,15
183,191.32,197.81,15
183,191.16,197.66,15
183,190.99,197.52,15
184,190.85,197.38,15
183,190.70,197.24,15
184,190.56,197.11,15
182,190.39,196.96,15
185,190.28,196.84,15
182,190.12,196.69,15
181,189.94,196.53,15
182,189.78,196.38,15
182,189.62,196.24,15
183,189.49,196.11,15
183,189.36,195.98,15
182,189.21,195.84,15
184,189.11,195.72,15
182,188.97,195.58,15
181,188.81,195.44,15
181,188.65,195.29,15
182,188.52,195.16,15
182,188.39,195.03,15
182,188.26,194.90,15
183,188.15,194.78,15
182,188.03,194.65,15
182,187.91,194.52,15
179,187.73,194.37,15
181,187.60,194.24,15
180,187.45,194.09,15
180,187.30,193.95,15
182,187.19,193.83,15
182,187.09,193.71,15
182,186.99,193.60,15
181,186.87,193.47,15
179,186.71,193.33,15
180,186.57,193.19,15
180,186.44,193.06,15
179,186.29,192.92,15
181,186.19,192.80,15
181,186.08,192.68,15
179,185.94,192.55,15
179,185.80,192.41,15
179,185.67,192.28,15
178,185.51,192.13,15
178,185.36,191.99,15
178,185.22,191.85,15
178,185.07,191.71,15
179,184.95,191.59,15
178,184.81,191.45,15
176,184.64,191.30,15
177,184.48,191.15,15
178,184.35,191.02,15
178,184.23,190.89,15
177,184.08,190.75,15
176,183.92,190.61,15
176,183.76,190.46,15
176,183.61,190.31,15
176,183.45,190.17,15
176,183.31,190.03,15
176,183.16,189.89,15
176,183.02,189.75,15
175,182.86,189.60,15
175,182.70,189.46,15
175,182.54,189.31,15
175,182.39,189.17,15
175,182.25,189.03,15
175,182.10,188.89,15
175,181.96,188.75,15
174,181.80,188.60,15
175,181.66,188.47,15
174,181.51,188.32,15
174,181.36,188.18,15
174,181.21,188.04,15
175,181.09,187.91,15
175,180.97,187.78,15
174,180.83,187.64,15
174,180.69,187.50,15
174,180.56,187.37,15
174,180.43,187.23,15
174,180.30,187.10,15
174,180.17,186.97,15
174,180.05,186.84,15
173,179.91,186.70,15
174,179.79,186.57,15
173,179.65,186.44,15
172,179.50,186.29,15
173,179.37,186.16,15
173,179.24,186.03,15
172,179.10,185.89,15
172,178.96,185.75,15
172,178.82,185.61,15
173,178.70,185.49,15
173,178.59,185.36,15
172,178.46,185.23,15
172,178.33,185.10,15
172,178.20,184.97,15
172,178.08,184.84,15
172,177.95,184.71,15
171,177.81,184.57,15
172,177.70,184.44,15
172,177.58,184.32,15
171,177.45,184.19,15
172,177.34,184.07,15
171,177.22,183.93,15
171,177.09,183.81,15
171,176.97,183.68,15
171,176.85,183.55,15
171,176.73,183.43,15
171,176.62,183.30,15
171,176.51,183.18,15
170,176.38,183.05,15
170,176.25,182.92,15
170,176.12,182.79,15
168,175.96,182.64,15
170,175.84,182.51,15
169,175.71,182.38,15
169,175.57,182.24,15
169,175.44,182.11,15
169,175.31,181.98,15
169,175.19,181.85,15
168,175.04,181.71,15
168,174.90,181.57,15
168,174.76,181.44,15
167,174.61,181.29,15
167,174.46,181.15,15
167,174.31,181.01,15
167,174.16,180.87,15
168,174.04,180.74,15
167,173.90,180.60,15
167,173.76,180.47,15
167,173.62,180.33,15
167,173.49,180.20,15
167,173.36,180.07,15
166,173.21,179.93,15
166,173.07,179.79,15
167,172.95,179.66,15
167,172.83,179.53,15
167,172.71,179.41,15
166,172.58,179.27,15
167,172.47,179.15,15
167,172.36,179.03,15
167,172.25,178.91,15
167,172.15,178.79,15
167,172.04,178.67,15
166,171.92,178.55,15
167,171.82,178.43,15
167,171.73,178.32,15
167,171.63,178.20,15
167,171.54,178.09,15
167,171.45,177.98,15
167,171.36,177.87,15
167,171.27,177.76,15
168,171.21,177.66,15
168,171.14,177.57,15
168,171.08,177.47,15
167,171.00,177.37,15
167,170.92,177.26,15
167,170.84,177.16,15
168,170.78,177.07,15
168,170.73,176.98,15
168,170.67,176.89,15
168,170.62,176.80,15
168,170.57,176.71,15
168,170.52,176.62,15
168,170.47,176.54,15
167,170.40,176.44,15
167,170.33,176.35,15
169,170.30,176.27,15
168,170.26,176.19,15
167,170.19,176.10,15
168,170.15,176.02,15
169,170.12,175.95,15
168,170.08,175.87,15
168,170.04,175.79,15
168,170.00,175.71,15
168,169.96,175.64,15
168,169.92,175.56,15
168,169.88,175.48,15
168,169.84,175.41,15
168,169.81,175.33,15
167,169.75,175.25,15
167,169.70,175.17,15
166,169.62,175.08,15
167,169.57,175.00,15
167,169.52,174.92,15
168,169.49,174.85,15
168,169.46,174.78,15
168,169.43,174.71,15
168,169.40,174.64,15
168,169.37,174.58,15
167,169.32,174.50,15
167,169.28,174.43,15
165,169.19,174.33,15
167,169.15,174.26,15
168,169.13,174.20,15
168,169.10,174.13,15
167,169.06,174.06,15
167,169.02,173.99,15
167,168.98,173.92,15
166,168.92,173.84,15
167,168.88,173.77,15
166,168.82,173.70,15
167,168.79,173.63,15
166,168.73,173.55,15
167,168.70,173.49,15
166,168.64,173.41,15
165,168.57,173.33,15
166,168.52,173.26,15
166,168.47,173.18,15
167,168.44,173.12,15
167,168.41,173.06,15
167,168.38,173.00,15
167,168.35,172.94,15
167,168.33,172.88,15
167,168.30,172.82,15
167,168.27,172.76,15
167,168.25,172.71,15
166,168.20,172.64,15
166,168.16,172.57,15
166,168.12,172.51,15
166,168.07,172.44,15
167,168.05,172.39,15
166,168.01,172.32,15
166,167.97,172.26,15
166,167.93,172.20,15
166,167.89,172.14,15
167,167.88,172.08,15
165,167.82,172.01,15
168,167.82,171.97,15
167,167.81,171.92,15
167,167.79,171.87,15
166,167.75,171.82,15
167,167.74,171.77,15
167,167.72,171.72,15
167,167.71,171.67,15
167,167.70,171.63,15
168,167.70,171.59,15
166,167.67,171.53,15
167,167.65,171.49,15
166,167.62,171.43,15
167,167.61,171.39,15
166,167.58,171.34,15
165,167.52,171.27,15
165,167.47,171.21,15
165,167.42,171.15,15
165,167.38,171.09,15
165,167.33,171.02,15
165,167.28,170.96,15
165,167.24,170.90,15
164,167.17,170.84,15
165,167.13,170.78,15
164,167.07,170.71,15
165,167.02,170.65,15
165,166.98,170.60,15
164,166.92,170.53,15
165,166.89,170.47,15
166,166.87,170.43,15
165,166.83,170.38,15
166,166.81,170.33,15
165,166.78,170.28,15
164,166.72,170.22,15
164,166.67,170.15,15
166,166.65,170.11,15
164,166.60,170.05,15
164,166.55,169.99,15
163,166.48,169.92,15
164,166.43,169.86,15
164,166.38,169.80,15
164,166.33,169.74,15
164,166.29,169.69,15
162,166.20,169.61,15
163,166.14,169.54,15
163,166.07,169.48,15
164,166.03,169.42,15
163,165.97,169.36,15
163,165.91,169.30,15
163,165.85,169.23,15
163,165.80,169.17,15
163,165.74,169.11,15
163,165.69,169.05,15
162,165.61,168.98,15
162,165.54,168.91,15
162,165.47,168.84,15
161,165.38,168.76,15
161,165.29,168.68,15
162,165.23,168.62,15
161,165.14,168.54,15
162,165.08,168.47,15
161,165.00,168.40,15
161,164.92,168.33,15
161,164.84,168.25,15
162,164.78,168.19,15
163,164.75,168.14,15
163,164.71,168.09,15
163,164.68,168.04,15
163,164.64,167.99,15
163,164.61,167.94,15
163,164.58,167.89,15
163,164.55,167.84,15
163,164.52,167.79,15
163,164.49,167.74,15
163,164.46,167.69,15
163,164.43,167.65,15
163,164.40,167.60,15
163,164.37,167.55,15
163,164.34,167.51,15
163,164.32,167.46,15
163,164.29,167.42,15
161,164.22,167.35,15
163,164.20,167.31,15
163,164.18,167.27,15
163,164.15,167.23,15
162,164.11,167.17,15
162,164.07,167.12,15
163,164.05,167.08,15
163,164.02,167.04,15
161,163.96,166.98,15
162,163.93,166.93,15
163,163.91,166.89,15
162,163.87,166.84,15
162,163.83,166.79,15
162,163.79,166.74,15
161,163.74,166.69,15
161,163.68,166.63,15
162,163.65,166.58,15
162,163.62,166.54,15
162,163.58,166.49,15
162,163.55,166.45,15
161,163.50,166.39,15
161,163.45,166.34,15
162,163.42,166.30,15
162,163.39,166.25,15
162,163.37,166.21,15
162,163.34,166.17,15
161,163.29,166.12,15
161,163.25,166.07,15
161,163.20,166.02,15
162,163.18,165.97,15
163,163.17,165.95,15
162,163.15,165.91,15
163,163.15,165.88,15
165,163.18,165.87,15
165,163.22,165.86,15
164,163.24,165.84,15
166,163.29,165.84,15
166,163.35,165.84,15
165,163.38,165.84,15
165,163.41,165.83,15
165,163.44,165.82,15
166,163.49,165.82,15
166,163.54,165.82,15
166,163.59,165.82,15
166,163.64,165.83,15
165,163.67,165.82,15
166,163.72,165.82,15
165,163.74,165.81,15
165,163.77,165.80,15
165,163.79,165.80,15
166,163.84,165.80,15
165,163.86,165.79,15
165,163.88,165.78,15
165,163.90,165.77,15
165,163.93,165.77,15
166,163.97,165.77,15
165,163.99,165.76,15
165,164.01,165.75,15
165,164.03,165.75,15
165,164.05,165.74,15
165,164.07,165.73,15
165,164.09,165.72,15
164,164.08,165.71,15
165,164.10,165.70,15
165,164.12,165.69,15
165,164.14,165.68,15
163,164.11,165.66,15
164,164.11,165.64,15
164,164.11,165.63,15
164,164.11,165.61,15
163,164.09,165.58,15
164,164.08,165.57,15
165,164.10,165.56,15
164,164.10,165.55,15
164,164.10,165.53,15
163,164.08,165.50,15
164,164.07,165.49,15
164,164.07,165.47,15
164,164.07,165.46,15
164,164.07,165.45,15
164,164.07,165.43,15
165,164.09,165.43,15
164,164.09,165.41,15
164,164.08,165.40,15
165,164.10,165.39,15
165,164.12,165.39,15
164,164.12,165.38,15
164,164.12,165.36,15
165,164.13,165.36,15
164,164.13,165.35,15
166,164.17,165.35,15
166,164.20,165.36,15
165,164.22,165.36,15
165,164.24,165.35,15
165,164.25,165.35,15
166,164.29,165.35,15
165,164.30,165.35,15
165,164.31,165.35,15
167,164.37,165.36,15
167,164.42,165.38,15
167,164.47,165.40,15
168,164.54,165.42,15
168,164.61,165.45,15
169,164.70,165.48,15
168,164.77,165.51,15
165,164.77,165.50,15
167,164.82,165.52,15
167,164.86,165.53,15
167,164.90,165.55,15
166,164.92,165.55,15
167,164.97,165.57,15
167,165.01,165.58,15
167,165.05,165.60,15
167,165.09,165.61,15
167,165.12,165.62,15
167,165.16,165.64,15
167,165.20,165.65,15
168,165.25,165.67,15
168,165.31,165.70,15
168,165.36,165.72,15
168,165.42,165.74,15
168,165.47,165.77,15
168,165.52,165.79,15
169,165.59,165.82,15
169,165.66,165.85,15
169,165.72,165.88,15
168,165.77,165.91,15
168,165.81,165.93,16
168,165.86,165.95,16
168,165.90,165.97,17
168,165.94,165.99,17
168,165.98,166.01,18
169,166.04,166.04,18
169,166.10,166.07,19
169,166.16,166.10,19
170,166.24,166.14,20
169,166.29,166.16,20
168,166.33,166.18,20
171,166.42,166.23,20
170,166.49,166.27,20
170,166.56,166.31,20
172,166.67,166.36,20
172,166.78,166.42,20
172,166.88,166.47,20
173,167.00,166.54,20
175,167.16,166.62,20
175,167.32,166.71,20
175,167.47,166.79,20
174,167.60,166.86,20
176,167.77,166.95,20
178,167.98,167.07,20
178,168.18,167.17,20
178,168.37,167.28,20
178,168.57,167.39,20
178,168.76,167.50,20
179,168.96,167.61,20
179,169.16,167.73,20
180,169.38,167.85,20
179,169.57,167.96,20
179,169.76,168.07,20
180,169.96,168.19,20
180,170.16,168.31,20
179,170.34,168.41,20
179,170.51,168.52,20
180,170.70,168.63,20
179,170.87,168.74,20
180,171.05,168.85,20
180,171.23,168.96,20
180,171.41,169.07,20
181,171.60,169.19,20
181,171.79,169.31,20
181,171.97,169.43,20
182,172.17,169.55,20
182,172.37,169.68,20
181,172.54,169.79,20
180,172.69,169.89,20
182,172.88,170.01,20
179,173.00,170.10,20
180,173.14,170.20,20
181,173.30,170.31,20
180,173.43,170.41,20
182,173.60,170.52,20
182,173.77,170.64,20
181,173.91,170.74,20
181,174.06,170.84,20
181,174.19,170.95,20
184,174.39,171.08,20
183,174.56,171.20,20
185,174.77,171.33,20
184,174.96,171.46,20
184,175.14,171.59,20
186,175.35,171.73,20
188,175.61,171.89,20
187,175.84,172.04,20
185,176.02,172.17,20
187,176.24,172.32,20
188,176.47,172.48,20
189,176.72,172.64,20
188,176.95,172.80,20
188,177.17,172.95,20
189,177.41,173.11,20
189,177.64,173.27,20
189,177.87,173.43,20
189,178.09,173.58,20
191,178.35,173.76,20
189,178.56,173.91,20
191,178.81,174.08,20
191,179.05,174.25,20
191,179.29,174.42,20
191,179.53,174.58,20
191,179.76,174.75,20
192,180.00,174.92,20
192,180.24,175.09,20
192,180.48,175.26,20
193,180.73,175.44,20
193,180.97,175.61,20
194,181.23,175.80,20
191,181.43,175.95,20
192,181.64,176.11,20
192,181.85,176.27,20
192,182.05,176.42,20
194,182.29,176.60,20
192,182.48,176.75,20
192,182.67,176.91,20
193,182.88,177.07,20
192,183.06,177.22,20
191,183.22,177.35,20
191,183.38,177.49,20
193,183.57,177.65,20
191,183.72,177.78,20
191,183.86,177.91,20
192,184.03,178.05,20
192,184.19,178.19,20
191,184.32,178.32,20
191,184.45,178.45,20
193,184.63,178.59,20
191,184.75,178.72,20
191,184.88,178.84,20
190,184.98,178.95,20
191,185.10,179.07,20
193,185.26,179.21,20
192,185.39,179.34,20
192,185.53,179.47,20
192,185.66,179.59,20
191,185.76,179.70,20
191,185.87,179.82,20
191,185.97,179.93,20
191,186.07,180.04,20
192,186.19,180.16,20
191,186.29,180.27,20
189,186.34,180.36,20
189,186.39,180.44,20
190,186.46,180.54,20
189,186.52,180.62,20
188,186.55,180.70,20
189,186.59,180.78,20
191,186.68,180.88,20
189,186.73,180.96,20
187,186.73,181.02,20
187,186.74,181.08,20
187,186.74,181.14,20
186,186.73,181.19,20
186,186.72,181.24,20
187,186.72,181.30,20
188,186.75,181.36,20
185,186.71,181.40,20
185,186.68,181.44,20
185,186.64,181.47,20
185,186.61,181.51,20
184,186.56,181.53,20
184,186.51,181.56,20
184,186.46,181.58,20
186,186.45,181.62,20
183,186.38,181.64,20
182,186.29,181.64,20
182,186.21,181.65,20
183,186.14,181.66,20
182,186.06,181.66,20
181,185.96,181.66,20
182,185.88,181.66,20
183,185.82,181.67,20
181,185.72,181.67,20
181,185.63,181.66,20
181,185.54,181.65,20
181,185.45,181.65,20
181,185.36,181.64,20
180,185.25,181.62,20
182,185.19,181.63,20
182,185.12,181.63,20
180,185.02,181.61,20
179,184.90,181.59,20
179,184.78,181.56,20
179,184.67,181.54,20
178,184.53,181.50,20
178,184.40,181.47,20
178,184.27,181.43,20
177,184.13,181.39,20
177,183.99,181.34,20
177,183.85,181.30,20
176,183.69,181.25,20
176,183.54,181.19,20
175,183.36,181.13,20
175,183.20,181.07,20
175,183.03,181.01,20
175,182.87,180.95,20
176,182.74,180.90,20
175,182.58,180.84,20
175,182.43,180.78,20
174,182.26,180.72,20
174,182.10,180.65,20
174,181.93,180.58,20
174,181.77,180.52,20
173,181.60,180.44,20
173,181.43,180.37,20
173,181.26,180.29,20
173,181.09,180.22,20
173,180.93,180.15,20
173,180.77,180.08,20
172,180.60,180.00,20
173,180.45,179.93,20
171,180.26,179.84,20
172,180.09,179.76,20
172,179.93,179.68,20
171,179.75,179.59,20
171,179.58,179.51,21
171,179.40,179.42,21
168,179.18,179.31,21
171,179.01,179.23,21
171,178.85,179.14,21
170,178.68,179.05,21
171,178.52,178.97,21
171,178.37,178.89,21
171,178.22,178.81,21
170,178.06,178.72,21
170,177.90,178.64,21
171,177.76,178.56,21
170,177.61,178.48,21
170,177.45,178.39,21
170,177.30,178.31,21
170,177.16,178.22,21
170,177.01,178.14,21
169,176.85,178.05,21
169,176.70,177.96,21
170,176.56,177.88,21
169,176.41,177.79,21
169,176.26,177.70,21
169,176.12,177.62,21
169,175.98,177.53,21
170,175.86,177.45,21
168,175.70,177.36,21
169,175.57,177.28,21
168,175.41,177.18,21
168,175.27,177.09,21
169,175.14,177.01,21
168,175.00,176.92,21
168,174.86,176.83,21
168,174.72,176.74,21
168,174.59,176.66,21
168,174.45,176.57,21
167,174.31,176.47,21
167,174.16,176.38,21
165,173.98,176.27,21
167,173.84,176.17,21
167,173.70,176.08,21
166,173.55,175.98,21
168,173.44,175.90,21
168,173.33,175.82,21
167,173.20,175.73,21
166,173.06,175.64,21
167,172.93,175.55,21
166,172.80,175.45,21
167,172.68,175.37,21
167,172.57,175.29,21
166,172.44,175.19,21
167,172.33,175.11,21
166,172.20,175.02,21
166,172.08,174.93,21
166,171.95,174.84,21
165,171.82,174.74,21
165,171.68,174.64,21
165,171.55,174.55,21
166,171.43,174.46,21
166,171.33,174.38,21
165,171.20,174.28,21
165,171.08,174.19,21
164,170.93,174.09,21
163,170.78,173.98,21
163,170.62,173.87,21
164,170.49,173.77,21
164,170.36,173.67,21
164,170.23,173.58,21
163,170.09,173.47,21
164,169.96,173.38,21
163,169.82,173.27,21
162,169.67,173.16,21
162,169.52,173.05,21
163,169.38,172.95,21
164,169.28,172.86,21
162,169.13,172.75,21
162,168.99,172.64,21
162,168.85,172.53,21
162,168.71,172.43,21
161,168.56,172.32,21
161,168.41,172.20,21
161,168.26,172.09,21
161,168.11,171.98,21
162,167.99,171.88,21
164,167.91,171.80,21
161,167.77,171.69,21
161,167.64,171.59,21
160,167.48,171.47,21
162,167.38,171.37,21
161,167.25,171.27,21
162,167.14,171.18,21
161,167.02,171.08,21
160,166.88,170.97,21
161,166.76,170.87,21
161,166.65,170.77,21
161,166.53,170.67,21
161,166.42,170.57,21
162,166.33,170.49,21
159,166.19,170.37,21
163,166.12,170.30,21
162,166.04,170.22,21
162,165.96,170.13,21
162,165.88,170.05,21
161,165.78,169.96,21
161,165.69,169.87,21
161,165.59,169.78,21
162,165.52,169.71,21
162,165.45,169.63,21
162,165.38,169.55,21
161,165.30,169.47,21
161,165.21,169.38,21
161,165.13,169.30,21
161,165.04,169.22,21
161,164.96,169.13,21
161,164.88,169.05,21
161,164.81,168.97,21
161,164.73,168.89,21
160,164.63,168.80,21
161,164.56,168.72,21
165,164.57,168.69,21
161,164.50,168.61,21
161,164.43,168.53,21
161,164.36,168.46,21
162,164.31,168.39,21
162,164.27,168.33,21
162,164.22,168.27,21
161,164.16,168.19,21
161,164.09,168.12,21
161,164.03,168.05,21
161,163.97,167.98,21
162,163.93,167.92,21
162,163.89,167.86,21
162,163.86,167.80,21
162,163.82,167.75,21
162,163.78,167.69,21
161,163.73,167.62,21
161,163.67,167.55,21
162,163.64,167.50,21
159,163.55,167.41,21
161,163.50,167.35,21
163,163.49,167.31,21
162,163.46,167.25,21
162,163.43,167.20,21
162,163.40,167.15,21
161,163.35,167.09,21
161,163.30,167.03,21
163,163.30,166.99,21
162,163.27,166.94,21
162,163.25,166.89,21
161,163.20,166.83,21
161,163.16,166.77,21
161,163.11,166.71,21
161,163.07,166.66,21
159,162.99,166.58,21
165,163.03,166.56,21
160,162.97,166.50,21
161,162.93,166.44,21
160,162.87,166.38,21
160,162.81,166.31,21
160,162.76,166.25,21
159,162.68,166.18,21
160,162.63,166.12,21
159,162.56,166.05,21
159,162.49,165.98,21
160,162.44,165.92,21
160,162.39,165.86,21
159,162.32,165.79,21
159,162.25,165.72,21
159,162.19,165.65,21
160,162.14,165.60,21
160,162.10,165.54,21
160,162.06,165.48,21
159,162.00,165.42,21
158,161.92,165.35,21
158,161.84,165.27,21
159,161.78,165.21,21
158,161.71,165.14,21
158,161.63,165.07,21
157,161.54,164.99,21
159,161.49,164.93,21
158,161.42,164.86,21
157,161.33,164.78,21
157,161.24,164.70,21
157,161.16,164.62,21
157,161.08,164.55,21
157,161.00,164.47,21
156,160.90,164.39,21
157,160.82,164.31,21
157,160.74,164.24,21
156,160.65,164.16,21
156,160.55,164.08,21
155,160.44,163.98,21
156,160.35,163.90,21
156,160.27,163.83,21
156,160.18,163.75,21
157,160.12,163.68,21
156,160.03,163.60,21
156,159.95,163.53,21
156,159.88,163.45,21
155,159.78,163.37,21
156,159.70,163.29,21
156,159.63,163.22,21
156,159.56,163.15,21
156,159.48,163.08,21
156,159.41,163.01,21
155,159.33,162.93,21
155,159.24,162.85,21
155,159.16,162.77,21
156,159.09,162.70,21
154,158.99,162.61,21
155,158.91,162.54,21
155,158.83,162.46,21
154,158.74,162.38,21
154,158.64,162.29,21
155,158.57,162.22,21
154,158.48,162.14,21
154,158.39,162.06,21
154,158.30,161.98,21
155,158.23,161.91,21
154,158.15,161.83,21
154,158.07,161.75,21
154,157.98,161.67,21
154,157.90,161.60,21
154,157.83,161.52,21
153,157.73,161.43,21
154,157.66,161.36,21
154,157.58,161.29,21
155,157.53,161.22,21
154,157.46,161.15,21
154,157.39,161.08,21
155,157.34,161.02,21
154,157.28,160.95,21
154,157.21,160.88,21
154,157.15,160.81,21
154,157.08,160.74,21
154,157.02,160.68,21
154,156.96,160.61,21
154,156.90,160.54,21
155,156.86,160.49,21
154,156.81,160.42,21
154,156.75,160.36,21
154,156.70,160.29,21
154,156.64,160.23,21
154,156.59,160.17,21
154,156.54,160.11,21
154,156.49,160.05,21
153,156.42,159.98,21
154,156.37,159.92,21
154,156.32,159.86,21
153,156.25,159.79,21
153,156.19,159.72,21
154,156.15,159.66,21
153,156.08,159.60,21
153,156.02,159.53,21
153,155.96,159.47,21
153,155.90,159.40,21
152,155.82,159.33,21
153,155.77,159.26,21
152,155.69,159.19,21
149,155.56,159.09,21
152,155.49,159.02,21
152,155.42,158.95,21
151,155.33,158.87,21
152,155.26,158.80,21
152,155.20,158.73,21
152,155.13,158.66,21
152,155.07,158.60,21
152,155.01,158.53,21
151,154.93,158.46,21
151,154.85,158.38,21
151,154.77,158.31,21
152,154.72,158.24,21
152,154.66,158.18,21
152,154.61,158.12,21
151,154.54,158.05,21
153,154.51,158.00,21
152,154.46,157.94,21
152,154.41,157.88,21
151,154.34,157.81,21
153,154.31,157.76,21
152,154.27,157.70,21
152,154.22,157.65,21
151,154.16,157.58,21
152,154.11,157.53,21
153,154.09,157.48,21
152,154.05,157.43,21
152,154.01,157.37,21
152,153.97,157.32,21
152,153.93,157.26,21
152,153.89,157.21,21
152,153.85,157.16,21
152,153.82,157.11,21
152,153.78,157.06,21
152,153.74,157.01,21
152,153.71,156.96,21
152,153.67,156.91,21
152,153.64,156.86,21
152,153.61,156.81,21
152,153.58,156.76,21
152,153.54,156.71,21
151,153.49,156.66,21
152,153.46,156.61,21
152,153.43,156.56,21
152,153.41,156.52,21
152,153.38,156.47,21
154,153.39,156.45,21
152,153.36,156.40,21
153,153.36,156.37,21
152,153.33,156.33,21
151,153.28,156.27,21
151,153.24,156.22,21
152,153.21,156.18,21
152,153.19,156.14,21
152,153.16,156.09,21
151,153.12,156.04,21
153,153.12,156.01,21
152,153.10,155.97,21
152,153.07,155.93,21
153,153.07,155.90,21
152,153.05,155.86,21
152,153.03,155.83,21
152,153.01,155.79,21
152,152.99,155.75,21
152,152.97,155.71,21
152,152.95,155.68,21
151,152.91,155.63,21
152,152.89,155.59,21
152,152.87,155.56,21
151,152.84,155.51,21
152,152.82,155.48,21
151,152.78,155.43,21
152,152.77,155.40,21
152,152.75,155.36,21
151,152.72,155.32,21
151,152.68,155.28,21
151,152.65,155.23,21
151,152.62,155.19,21
151,152.58,155.15,21
151,152.55,155.11,21
151,152.52,155.07,21
151,152.49,155.03,21
151,152.46,154.99,21
151,152.43,154.95,21
151,152.40,154.91,21
151,152.38,154.87,21
150,152.33,154.82,21
151,152.30,154.78,21
151,152.28,154.74,21
150,152.23,154.70,21
151,152.21,154.66,21
151,152.18,154.62,21
150,152.14,154.58,21
150,152.09,154.53,21
150,152.05,154.48,21
150,152.01,154.44,21
150,151.97,154.40,21
150,151.93,154.35,21
150,151.89,154.31,21
151,151.88,154.27,21
151,151.86,154.24,21
151,151.84,154.21,21
150,151.80,154.17,21
151,151.79,154.14,21
150,151.75,154.09,21
150,151.72,154.05,21
150,151.68,154.01,21
150,151.65,153.97,21
150,151.62,153.93,21
151,151.60,153.90,21
151,151.59,153.87,21
150,151.56,153.84,21
150,151.53,153.80,21
150,151.50,153.76,21
151,151.49,153.73,21
151,151.48,153.70,21
150,151.45,153.67,21
150,151.42,153.63,21
150,151.39,153.59,21
150,151.36,153.56,21
150,151.34,153.52,21
149,151.29,153.48,21
150,151.26,153.44,21
150,151.24,153.41,21
149,151.19,153.36,21
149,151.15,153.32,21
149,151.11,153.28,21
152,151.12,153.26,21
150,151.10,153.23,21
150,151.08,153.20,21
149,151.04,153.16,21
149,151.00,153.12,21
149,150.96,153.08,21
150,150.94,153.04,21
150,150.92,153.01,21
150,150.90,152.98,21
150,150.88,152.95,21
150,150.87,152.92,21
150,150.85,152.90,21
149,150.81,152.86,21
150,150.80,152.83,21
150,150.78,152.80,21
149,150.74,152.76,21
149,150.71,152.72,21
148,150.65,152.68,21
150,150.64,152.65,21
150,150.63,152.62,21
149,150.60,152.59,21
149,150.56,152.55,21
150,150.55,152.53,21
150,150.54,152.50,21
151,150.55,152.49,21
150,150.54,152.46,21
150,150.53,152.44,21
150,150.52,152.41,21
150,150.51,152.39,21
149,150.48,152.35,21
149,150.45,152.32,21
149,150.42,152.29,21
150,150.41,152.26,21
150,150.40,152.24,21
150,150.40,152.22,21
149,150.37,152.19,21
150,150.36,152.16,21
149,150.33,152.13,21
148,150.29,152.09,21
149,150.26,152.06,21
149,150.24,152.03,21
148,150.19,151.99,21
147,150.13,151.94,21
149,150.10,151.91,21
150,150.10,151.89,21
149,150.08,151.86,21
150,150.08,151.84,21
149,150.06,151.82,21
148,150.02,151.78,21
148,149.98,151.74,21
150,149.98,151.72,21
148,149.94,151.69,21
149,149.92,151.66,21
149,149.90,151.63,21
149,149.88,151.61,21
149,149.86,151.58,21
148,149.83,151.54,21
147,149.77,151.50,21
149,149.75,151.47,21
150,149.76,151.46,21
149,149.74,151.43,21
149,149.73,151.41,21
149,149.71,151.39,21
149,149.70,151.36,21
148,149.67,151.33,21
147,149.61,151.28,21
149,149.60,151.26,21
149,149.59,151.24,21
150,149.60,151.23,21
149,149.59,151.20,21
149,149.57,151.18,21
149,149.56,151.16,21
150,149.57,151.15,21
149,149.56,151.13,21
149,149.55,151.11,21
148,149.52,151.08,21
149,149.51,151.05,21
149,149.50,151.03,21
149,149.49,151.01,21
148,149.46,150.98,21
148,149.43,150.95,21
147,149.38,150.91,21
148,149.35,150.89,21
147,149.30,150.85,21
149,149.30,150.83,21
149,149.29,150.81,21
148,149.27,150.78,21
148,149.24,150.75,21
148,149.22,150.73,21
148,149.19,150.70,21
148,149.17,150.67,21
148,149.15,150.65,21
148,149.12,150.62,21
148,149.10,150.59,21
147,149.06,150.56,21
148,149.04,150.53,21
148,149.02,150.51,21
147,148.98,150.47,21
148,148.96,150.45,21
148,148.94,150.42,21
148,148.92,150.40,21
149,148.92,150.38,21
149,148.92,150.37,21
148,148.90,150.35,21
149,148.91,150.33,21
148,148.89,150.31,21
147,148.85,150.28,21
147,148.81,150.24,21
147,148.78,150.21,21
148,148.76,150.19,21
148,148.75,150.17,21
148,148.73,150.15,21
148,148.72,150.12,21
147,148.68,150.09,21
148,148.67,150.07,21
147,148.63,150.04,21
149,148.64,150.03,21
148,148.63,150.01,21
147,148.60,149.98,21
147,148.56,149.95,21
148,148.55,149.93,21
147,148.52,149.90,21
147,148.49,149.87,21
147,148.46,149.84,21
147,148.43,149.82,21
148,148.42,149.80,21
148,148.42,149.78,21
147,148.39,149.75,21
148,148.38,149.73,21
148,148.37,149.72,21
147,148.34,149.69,21
147,148.32,149.66,21
148,148.31,149.65,21
148,148.31,149.63,21
148,148.30,149.61,21
148,148.29,149.60,21
147,148.27,149.57,21
147,148.24,149.55,21
147,148.22,149.52,21
147,148.19,149.49,21
149,148.21,149.49,21
148,148.20,149.47,21
148,148.20,149.46,21
147,148.18,149.44,21
147,148.15,149.41,21
147,148.13,149.39,21
147,148.11,149.36,21
147,148.09,149.34,21
148,148.08,149.33,21
148,148.08,149.31,21
147,148.06,149.29,21
147,148.04,149.27,21
148,148.04,149.25,21
147,148.02,149.23,21
147,148.00,149.21,21
147,147.98,149.19,21
147,147.96,149.17,21
147,147.94,149.14,21
147,147.92,149.12,21
147,147.90,149.10,21
146,147.86,149.07,21
147,147.85,149.05,21
147,147.83,149.03,21
146,147.79,149.00,21
147,147.78,148.98,21
147,147.76,148.96,21
147,147.75,148.94,21
147,147.73,148.92,21
147,147.72,148.90,21
146,147.68,148.87,21
147,147.67,148.85,21
146,147.64,148.82,21
146,147.60,148.80,21
147,147.59,148.78,21
147,147.58,148.76,21
149,147.61,148.76,21
147,147.59,148.75,21
146,147.56,148.72,21
147,147.55,148.70,21
146,147.52,148.67,21
145,147.47,148.64,21
146,147.44,148.61,21
146,147.41,148.58,21
146,147.38,148.56,21
146,147.36,148.53,21
145,147.31,148.50,21
146,147.28,148.47,21
146,147.26,148.45,21
146,147.23,148.42,21
146,147.21,148.40,21
145,147.16,148.37,21
145,147.12,148.33,21
146,147.10,148.31,21
146,147.08,148.29,21
146,147.05,148.26,21
145,147.01,148.23,21
146,146.99,148.21,21
145,146.95,148.18,21
144,146.89,148.13,21
145,146.86,148.10,21
145,146.82,148.07,21
144,146.76,148.03,21
145,146.73,148.00,21
145,146.69,147.97,21
144,146.64,147.93,21
144,146.59,147.89,21
144,146.53,147.85,21
145,146.50,147.82,21
144,146.45,147.79,21
144,146.40,147.75,21
144,146.36,147.71,21
144,146.31,147.67,21
144,146.26,147.64,21
144,146.22,147.60,21
144,146.17,147.56,21
144,146.13,147.53,21
144,146.09,147.49,21
144,146.05,147.46,21
144,146.00,147.42,21
144,145.96,147.39,21
144,145.93,147.36,21
143,145.87,147.31,21
144,145.83,147.28,21
144,145.79,147.25,21
144,145.76,147.21,21
144,145.72,147.18,21
144,145.69,147.15,21
144,145.65,147.12,21
144,145.62,147.09,21
143,145.57,147.05,21
144,145.54,147.02,21
143,145.49,146.98,21
144,145.46,146.95,21
142,145.39,146.90,21
143,145.34,146.86,21
143,145.29,146.82,21
144,145.27,146.79,21
143,145.22,146.75,21
143,145.18,146.72,21
143,145.13,146.68,21
143,145.09,146.64,21
143,145.05,146.60,21
143,145.01,146.57,21
142,144.95,146.52,21
143,144.91,146.49,21
143,144.87,146.45,21
143,144.83,146.42,21
143,144.80,146.38,21
143,144.76,146.35,21
144,144.75,146.33,21
144,144.73,146.30,21
143,144.70,146.27,21
143,144.66,146.24,21
142,144.61,146.20,21
143,144.58,146.16,21
143,144.55,146.13,21
143,144.51,146.10,21
143,144.48,146.07,21
143,144.45,146.04,21
143,144.43,146.01,21
143,144.40,145.98,21
143,144.37,145.95,21
143,144.34,145.92,21
143,144.31,145.89,21
143,144.29,145.86,21
143,144.26,145.83,21
142,144.22,145.79,21
143,144.19,145.77,21
143,144.17,145.74,21
143,144.15,145.71,21
143,144.12,145.68,21
142,144.08,145.65,21
143,144.06,145.62,21
143,144.04,145.59,21
143,144.02,145.57,21
143,144.00,145.54,21
143,143.98,145.52,21
143,143.96,145.49,21
143,143.94,145.47,21
142,143.90,145.43,21
141,143.84,145.39,21
143,143.82,145.36,21
142,143.79,145.33,21
143,143.77,145.31,21
142,143.74,145.27,21
143,143.72,145.25,21
143,143.71,145.23,21
142,143.67,145.20,21
143,143.66,145.17,21
142,143.63,145.14,21
142,143.59,145.11,21
142,143.56,145.08,21
143,143.55,145.06,21
142,143.52,145.03,21
141,143.47,144.99,21
142,143.44,144.96,21
142,143.41,144.93,21
142,143.38,144.90,21
141,143.34,144.86,21
142,143.31,144.83,21
142,143.28,144.80,21
142,143.26,144.78,21
141,143.21,144.74,21
141,143.17,144.70,21
141,143.12,144.66,21
141,143.08,144.63,21
141,143.04,144.59,21
141,143.00,144.55,21
142,142.98,144.53,21
141,142.94,144.49,21
141,142.90,144.46,21
141,142.86,144.42,21
141,142.83,144.39,21
141,142.79,144.36,21
141,142.75,144.32,21
137,142.64,144.25,21
141,142.61,144.22,21
142,142.59,144.20,21
141,142.56,144.16,21
141,142.53,144.13,21
141,142.50,144.10,21
139,142.43,144.05,21
141,142.40,144.02,21
139,142.33,143.97,21
139,142.27,143.92,21
141,142.24,143.89,21
140,142.20,143.85,21
142,142.19,143.83,21
139,142.13,143.78,21
140,142.09,143.75,21
139,142.02,143.70,21
139,141.96,143.65,21
141,141.94,143.63,21
139,141.89,143.58,21
140,141.85,143.54,21
139,141.79,143.50,21
139,141.74,143.45,21
140,141.70,143.42,21
139,141.65,143.37,21
139,141.59,143.33,21
140,141.56,143.30,21
139,141.51,143.25,21
140,141.48,143.22,21
139,141.43,143.18,21
142,141.44,143.17,21
140,141.41,143.14,21
139,141.37,143.09,21
139,141.32,143.05,21
141,141.31,143.03,21
139,141.27,142.99,21
140,141.24,142.96,21
140,141.22,142.93,21
139,141.17,142.89,21
139,141.13,142.85,21
139,141.08,142.82,21
139,141.04,142.78,21
140,141.02,142.75,21
140,141.00,142.72,21
140,140.98,142.70,21
139,140.94,142.66,21
139,140.90,142.62,21
140,140.89,142.60,21
139,140.85,142.56,21
139,140.81,142.52,21
140,140.79,142.50,21
139,140.76,142.46,21
139,140.72,142.43,21
139,140.69,142.39,21
139,140.66,142.36,21
139,140.62,142.33,21
139,140.59,142.29,21
139,140.56,142.26,21
139,140.53,142.23,21
138,140.48,142.19,21
140,140.47,142.16,21
140,140.46,142.14,21
140,140.45,142.12,21
140,140.44,142.10,21
139,140.41,142.07,21
139,140.38,142.04,21
138,140.33,142.00,21
138,140.29,141.96,21
139,140.26,141.93,21
139,140.24,141.90,21
141,140.25,141.89,21
139,140.23,141.86,21
138,140.18,141.82,21
139,140.16,141.79,21
138,140.12,141.76,21
138,140.07,141.72,21
138,140.03,141.68,21
141,140.05,141.67,21
140,140.05,141.66,21
138,140.01,141.62,21
138,139.97,141.59,21
138,139.93,141.55,21
143,139.99,141.56,21
138,139.95,141.53,21
139,139.93,141.50,21
138,139.89,141.47,21
140,139.90,141.45,21
138,139.86,141.42,21
138,139.82,141.38,21
138,139.78,141.35,21
138,139.75,141.32,21
138,139.71,141.28,21
139,139.70,141.26,21
138,139.67,141.23,21
140,139.67,141.22,21
138,139.64,141.18,21
138,139.61,141.15,21
138,139.57,141.12,21
138,139.54,141.09,21
138,139.51,141.06,21
138,139.48,141.03,21
138,139.45,141.00,21
137,139.40,140.96,21
137,139.35,140.92,21
136,139.29,140.87,21
138,139.26,140.84,21
137,139.22,140.80,21
137,139.17,140.76,21
137,139.13,140.73,21
139,139.13,140.71,21
137,139.08,140.67,21
137,139.04,140.64,21
138,139.02,140.61,21
138,139.00,140.58,21
138,138.98,140.56,21
137,138.94,140.52,21
138,138.92,140.50,21
140,138.94,140.49,21
137,138.90,140.46,21
137,138.87,140.42,21
137,138.83,140.39,21
137,138.79,140.35,21
136,138.74,140.31,21
137,138.70,140.28,21
136,138.65,140.23,21
137,138.62,140.20,21
137,138.58,140.17,21
137,138.55,140.14,21
137,138.52,140.11,21
137,138.49,140.08,21
136,138.44,140.04,21
136,138.39,139.99,21
136,138.34,139.95,21
138,138.34,139.94,21
137,138.31,139.91,21
136,138.26,139.87,21
137,138.24,139.84,21
137,138.21,139.81,21
137,138.19,139.78,21
137,138.17,139.75,21
138,138.16,139.74,21
138,138.16,139.72,21
137,138.14,139.69,21
136,138.09,139.65,21
136,138.05,139.62,21
137,138.03,139.59,21
136,137.99,139.56,21
136,137.95,139.52,21
136,137.91,139.49,21
138,137.91,139.47,21
137,137.89,139.45,21
137,137.88,139.42,21
137,137.86,139.40,21
137,137.84,139.37,21
136,137.81,139.34,21
138,137.81,139.33,21
137,137.79,139.30,21
137,137.78,139.28,21
138,137.78,139.27,21
137,137.77,139.24,21
137,137.75,139.22,21
137,137.74,139.20,21
136,137.70,139.17,21
136,137.67,139.14,21
138,137.67,139.12,21
137,137.66,139.10,21
137,137.65,139.08,21
137,137.63,139.06,21
137,137.62,139.04,21
137,137.61,139.02,21
136,137.58,138.99,21
137,137.57,138.97,21
137,137.55,138.95,21
136,137.52,138.92,21
137,137.51,138.90,21
137,137.50,138.88,21
137,137.49,138.86,21
137,137.48,138.85,21
137,137.47,138.83,21
136,137.44,138.80,21
137,137.43,138.78,21
137,137.43,138.76,21
136,137.40,138.74,21
136,137.37,138.71,21
137,137.36,138.69,21
137,137.35,138.67,21
137,137.35,138.66,21
136,137.32,138.63,21
136,137.29,138.60,21
137,137.29,138.59,21
136,137.26,138.56,21
136,137.24,138.54,21
136,137.21,138.51,21
137,137.21,138.50,21
137,137.20,138.48,21
136,137.18,138.46,21
137,137.18,138.44,21
136,137.15,138.42,21
141,137.23,138.44,21
136,137.21,138.42,21
136,137.18,138.39,21
136,137.16,138.37,21
137,137.15,138.36,21
136,137.13,138.33,21
137,137.13,138.32,21
136,137.11,138.30,21
136,137.08,138.27,21
137,137.08,138.26,21
137,137.08,138.25,21
136,137.06,138.23,21
136,137.04,138.20,21
136,137.02,138.18,21
137,137.02,138.17,21
136,137.00,138.15,21
136,136.98,138.13,21
136,136.96,138.11,21
136,136.94,138.08,21
137,136.94,138.07,21
136,136.92,138.05,21
135,136.88,138.02,21
137,136.88,138.01,21
136,136.87,137.99,21
133,136.79,137.94,21
136,136.77,137.92,21
136,136.76,137.90,21
137,136.76,137.89,21
136,136.75,137.88,21
136,136.73,137.86,21
136,136.72,137.84,21
136,136.70,137.82,21
136,136.69,137.80,21
136,136.68,137.78,21
135,136.64,137.76,21
138,136.67,137.76,21
136,136.66,137.74,21
134,136.60,137.70,21
136,136.59,137.69,21
135,136.56,137.66,21
136,136.55,137.64,21
135,136.52,137.62,21
135,136.49,137.59,21
135,136.46,137.56,21
135,136.43,137.54,21
134,136.38,137.50,21
134,136.33,137.47,21
134,136.28,137.43,21
135,136.26,137.41,21
135,136.23,137.39,21
135,136.21,137.36,21
135,136.19,137.34,21
134,136.14,137.30,21
134,136.10,137.27,21
135,136.08,137.25,21
134,136.04,137.22,21
135,136.01,137.19,21
134,135.97,137.16,21
135,135.95,137.14,21
136,135.96,137.13,21
136,135.96,137.12,21
134,135.92,137.09,21
135,135.90,137.07,21
135,135.88,137.05,21
136,135.88,137.03,21
135,135.87,137.01,21
135,135.85,136.99,21
136,135.85,136.98,21
134,135.81,136.95,21
134,135.78,136.92,21
135,135.76,136.91,21
135,135.75,136.89,21
136,135.75,136.88,21
135,135.74,136.86,21
135,135.72,136.84,21
136,135.73,136.83,21
134,135.69,136.80,21
135,135.68,136.79,21
135,135.67,136.77,21
136,135.67,136.76,21
135,135.66,136.74,21
135,135.65,136.73,21
136,135.65,136.72,21
136,135.66,136.71,21
135,135.65,136.69,21
135,135.63,136.68,21
135,135.62,136.66,21
134,135.59,136.63,21
135,135.58,136.62,21
135,135.57,136.60,21
134,135.53,136.57,21
135,135.52,136.56,21
135,135.51,136.54,21
134,135.48,136.52,21
134,135.45,136.49,21
134,135.42,136.47,21
135,135.42,136.45,21
134,135.39,136.43,21
135,135.38,136.41,21
135,135.37,136.40,21
135,135.36,136.39,21
134,135.34,136.36,21
134,135.31,136.34,21
134,135.28,136.32,21
134,135.26,136.29,21
138,135.31,136.31,21
135,135.31,136.30,21
135,135.30,136.28,21
