Teste de posicionamento 1(EMG ao centro do bíceps (Vermelho A, Verde B) + Ref no pulso) - 16/09/2024 - teste5 - 5 contrações
long frequencia = 1000;                 //frequência de aquisição do sinal, neste caso, 1000 sinais por segundo
float fator1 = 0.02, fator2 = 0.01;
float incerteza = 0.13;
float pico_basal = 130; // Mínimo para ser considerado um pico de contração
int filtro_horizontal=200000; //intervalo de 200ms valores não pode ter mais de 1 contração

Biceps_D,mediaMovel_1,mediaMovel_2,Contracao
113,2.26,1.13,0
112,4.45,2.24,0
113,6.63,3.35,0
114,8.77,4.45,0
115,10.90,5.56,0
113,12.94,6.63,0
113,14.94,7.70,0
113,16.90,8.75,0
113,18.82,9.79,0
116,20.77,10.85,0
114,22.63,11.89,0
112,24.42,12.89,0
111,26.15,13.87,0
113,27.89,14.86,0
113,29.59,15.84,0
113,31.26,16.81,0
112,32.87,17.76,0
112,34.46,18.71,0
111,35.99,19.63,0
113,37.53,20.56,0
113,39.04,21.49,0
113,40.52,22.40,0
112,41.95,23.30,0
113,43.37,24.20,0
113,44.76,25.08,0
114,46.14,25.97,0
113,47.48,26.84,0
111,48.75,27.68,0
112,50.02,28.53,0
113,51.28,29.37,0
113,52.51,30.21,0
115,53.76,31.06,0
114,54.97,31.89,0
114,56.15,32.71,0
113,57.28,33.51,0
115,58.44,34.32,0
118,59.63,35.16,0
112,60.68,35.93,0
113,61.72,36.70,0
113,62.75,37.46,0
114,63.77,38.23,0
114,64.78,38.99,0
112,65.72,39.72,0
113,66.67,40.45,0
112,67.57,41.17,0
116,68.54,41.91,0
115,69.47,42.64,0
113,70.34,43.35,0
113,71.20,44.04,0
113,72.03,44.73,0
113,72.85,45.42,0
115,73.69,46.11,0
113,74.48,46.78,0
113,75.25,47.44,0
113,76.01,48.10,0
113,76.75,48.75,0
115,77.51,49.41,0
114,78.24,50.06,0
112,78.92,50.68,0
113,79.60,51.30,0
113,80.27,51.92,0
114,80.94,52.54,0
113,81.58,53.14,0
113,82.21,53.74,0
112,82.81,54.32,0
113,83.41,54.91,0
116,84.06,55.52,0
113,84.64,56.10,0
113,85.21,56.66,0
113,85.76,57.23,0
113,86.31,57.79,0
113,86.84,58.34,0
113,87.36,58.88,0
113,87.88,59.43,0
118,88.48,60.01,0
112,88.95,60.53,0
115,89.47,61.08,0
113,89.94,61.60,0
112,90.38,62.10,0
113,90.84,62.61,0
113,91.28,63.11,0
115,91.75,63.63,0
113,92.18,64.12,0
113,92.59,64.61,0
111,92.96,65.08,0
113,93.36,65.56,0
113,93.76,66.03,0
114,94.16,66.51,0
113,94.54,66.98,0
112,94.89,67.43,0
113,95.25,67.88,0
113,95.60,68.33,0
113,95.95,68.78,0
113,96.29,69.22,0
112,96.61,69.65,0
113,96.94,70.08,0
117,97.34,70.55,0
116,97.71,71.01,0
114,98.04,71.44,0
113,98.33,71.85,0
112,98.61,72.25,0
113,98.90,72.66,0
115,99.22,73.08,0
114,99.51,73.49,0
112,99.76,73.88,0
113,100.03,74.27,0
112,100.27,74.65,0
115,100.56,75.05,0
116,100.87,75.46,0
112,101.09,75.83,0
114,101.35,76.21,0
113,101.58,76.58,0
114,101.83,76.95,0
114,102.08,77.32,0
112,102.27,77.67,0
114,102.51,78.03,0
112,102.70,78.37,0
114,102.93,78.73,0
114,103.15,79.08,0
114,103.36,79.43,0
112,103.54,79.75,0
115,103.77,80.11,0
116,104.01,80.47,0
114,104.21,80.80,0
112,104.37,81.11,0
113,104.54,81.43,0
114,104.73,81.76,0
115,104.93,82.09,0
113,105.09,82.40,0
112,105.23,82.69,0
113,105.39,83.00,0
116,105.60,83.33,0
114,105.77,83.63,0
114,105.93,83.94,0
112,106.05,84.22,0
114,106.21,84.52,0
114,106.37,84.81,0
115,106.54,85.11,0
113,106.67,85.39,0
113,106.80,85.67,0
114,106.94,85.95,0
114,107.08,86.23,0
113,107.20,86.50,0
112,107.30,86.75,0
112,107.39,87.01,0
113,107.50,87.27,0
114,107.63,87.53,0
114,107.76,87.80,0
111,107.83,88.03,0
112,107.91,88.27,0
112,107.99,88.51,0
115,108.13,88.77,0
114,108.25,89.03,0
112,108.32,89.26,0
112,108.40,89.48,0
113,108.49,89.72,0
114,108.60,89.96,0
114,108.71,90.20,0
111,108.75,90.41,0
112,108.82,90.62,0
114,108.92,90.86,0
114,109.02,91.09,0
114,109.12,91.32,0
112,109.18,91.53,0
112,109.24,91.73,0
116,109.37,91.97,0
114,109.46,92.19,0
119,109.66,92.46,0
112,109.70,92.66,0
113,109.77,92.86,0
114,109.85,93.07,0
114,109.94,93.28,0
114,110.02,93.49,0
112,110.06,93.67,0
113,110.12,93.87,0
114,110.19,94.07,0
114,110.27,94.27,0
114,110.34,94.46,0
112,110.38,94.64,0
112,110.41,94.81,0
114,110.48,95.01,0
113,110.53,95.19,0
112,110.56,95.35,0
113,110.61,95.53,0
114,110.68,95.71,0
116,110.78,95.92,0
114,110.85,96.10,0
114,110.91,96.28,0
112,110.93,96.43,0
113,110.97,96.60,0
114,111.03,96.77,0
115,111.11,96.96,0
112,111.13,97.11,0
113,111.17,97.27,0
114,111.23,97.43,0
115,111.30,97.61,0
114,111.36,97.77,0
113,111.39,97.93,0
113,111.42,98.08,0
114,111.47,98.24,0
114,111.52,98.39,0
115,111.59,98.56,0
112,111.60,98.69,0
114,111.65,98.85,0
114,111.70,99.00,0
115,111.76,99.16,0
115,111.83,99.32,0
112,111.83,99.44,0
114,111.87,99.59,0
114,111.92,99.73,0
114,111.96,99.88,0
113,111.98,100.01,0
113,112.00,100.14,0
114,112.04,100.28,0
115,112.10,100.42,0
115,112.16,100.57,0
114,112.19,100.70,0
113,112.21,100.83,0
114,112.24,100.96,0
115,112.30,101.10,0
115,112.35,101.24,0
113,112.37,101.35,0
113,112.38,101.47,0
115,112.43,101.61,0
117,112.52,101.76,0
115,112.57,101.89,0
114,112.60,102.01,0
113,112.61,102.12,0
116,112.68,102.26,0
115,112.72,102.39,0
113,112.73,102.50,0
116,112.79,102.63,0
113,112.80,102.73,0
116,112.86,102.87,0
115,112.91,102.99,0
113,112.91,103.09,0
114,112.93,103.20,0
113,112.93,103.30,0
115,112.97,103.41,0
115,113.01,103.53,0
112,112.99,103.61,0
113,112.99,103.71,0
115,113.03,103.82,0
117,113.11,103.95,0
114,113.13,104.05,0
113,113.13,104.14,0
115,113.16,104.25,0
114,113.18,104.35,0
116,113.24,104.46,0
113,113.23,104.55,0
115,113.27,104.65,0
114,113.28,104.75,0
116,113.34,104.86,0
115,113.37,104.96,0
113,113.36,105.04,0
113,113.36,105.12,0
115,113.39,105.22,0
115,113.42,105.32,0
114,113.43,105.41,0
114,113.44,105.49,0
115,113.48,105.59,0
115,113.51,105.68,0
116,113.56,105.78,0
114,113.56,105.87,0
113,113.55,105.94,0
115,113.58,106.03,0
115,113.61,106.12,0
115,113.64,106.21,0
113,113.63,106.27,0
113,113.61,106.34,0
115,113.64,106.43,0
117,113.71,106.53,0
113,113.69,106.60,0
113,113.68,106.66,0
114,113.69,106.74,0
116,113.73,106.83,0
115,113.76,106.91,0
114,113.76,106.98,0
113,113.75,107.04,0
115,113.77,107.12,0
116,113.82,107.21,0
115,113.84,107.29,0
114,113.84,107.35,0
114,113.85,107.42,0
114,113.85,107.49,0
115,113.87,107.56,0
115,113.90,107.64,0
113,113.88,107.69,0
115,113.90,107.76,0
115,113.92,107.84,0
116,113.96,107.92,0
115,113.98,107.99,0
115,114.00,108.06,0
113,113.98,108.11,0
117,114.05,108.20,0
116,114.08,108.27,0
113,114.06,108.32,0
113,114.04,108.37,0
116,114.08,108.44,0
116,114.12,108.52,0
114,114.12,108.58,0
113,114.09,108.62,0
115,114.11,108.68,0
116,114.15,108.76,0
115,114.17,108.82,0
114,114.16,108.87,0
114,114.16,108.92,0
114,114.16,108.97,0
115,114.17,109.03,0
115,114.19,109.09,0
113,114.17,109.13,0
115,114.18,109.19,0
115,114.20,109.25,0
115,114.22,109.31,0
115,114.23,109.36,0
114,114.23,109.41,0
113,114.20,109.45,0
115,114.22,109.50,0
116,114.25,109.57,0
113,114.23,109.60,0
115,114.24,109.65,0
114,114.24,109.70,0
115,114.25,109.75,0
114,114.25,109.79,0
113,114.22,109.83,0
114,114.22,109.87,0
116,114.26,109.93,0
116,114.29,109.99,0
114,114.28,110.03,0
113,114.26,110.06,0
115,114.27,110.11,0
115,114.29,110.16,0
116,114.32,110.22,0
113,114.30,110.24,0
115,114.31,110.29,0
115,114.32,110.34,0
115,114.34,110.38,0
115,114.35,110.43,0
115,114.36,110.48,0
115,114.38,110.52,0
115,114.39,110.57,0
114,114.38,110.60,0
115,114.39,110.64,0
115,114.41,110.69,0
113,114.38,110.71,0
115,114.39,110.75,0
117,114.44,110.82,0
114,114.43,110.85,0
114,114.42,110.88,0
115,114.44,110.92,0
116,114.47,110.97,0
113,114.44,110.99,0
115,114.45,111.03,0
115,114.46,111.07,0
114,114.45,111.10,0
117,114.50,111.16,0
115,114.51,111.20,0
115,114.52,111.24,0
117,114.57,111.29,0
116,114.60,111.34,0
116,114.63,111.39,0
113,114.60,111.40,0
116,114.62,111.45,0
114,114.61,111.48,0
117,114.66,111.53,0
117,114.71,111.59,0
116,114.73,111.63,0
117,114.78,111.68,0
117,114.82,111.74,0
117,114.87,111.79,0
116,114.89,111.83,0
116,114.91,111.87,0
117,114.95,111.92,0
119,115.03,112.00,0
119,115.11,112.07,0
117,115.15,112.11,0
116,115.17,112.15,0
117,115.20,112.20,0
119,115.28,112.27,0
117,115.31,112.32,0
120,115.41,112.39,0
117,115.44,112.44,0
115,115.43,112.47,0
119,115.50,112.53,0
119,115.57,112.60,0
116,115.58,112.63,0
118,115.63,112.68,0
118,115.68,112.74,0
119,115.74,112.80,0
117,115.77,112.84,0
119,115.83,112.90,0
117,115.86,112.94,0
120,115.94,113.01,0
120,116.02,113.08,0
117,116.04,113.12,0
117,116.06,113.16,0
120,116.14,113.23,0
119,116.19,113.29,0
117,116.21,113.33,0
119,116.27,113.38,0
117,116.28,113.42,0
118,116.32,113.46,0
116,116.31,113.49,0
116,116.30,113.51,0
116,116.30,113.54,0
118,116.33,113.58,0
117,116.34,113.62,0
117,116.36,113.65,0
115,116.33,113.67,0
116,116.32,113.69,0
115,116.30,113.70,0
118,116.33,113.74,0
115,116.30,113.76,0
117,116.32,113.79,0
115,116.29,113.80,0
115,116.27,113.81,0
115,116.24,113.83,0
115,116.22,113.84,0
116,116.21,113.86,0
115,116.19,113.87,0
117,116.20,113.90,0
117,116.22,113.93,0
113,116.16,113.92,0
115,116.13,113.93,0
116,116.13,113.96,0
115,116.11,113.97,0
115,116.09,113.98,0
114,116.04,113.98,0
115,116.02,113.99,0
114,115.98,113.99,0
115,115.96,114.00,0
113,115.90,113.99,0
113,115.85,113.98,0
113,115.79,113.97,0
114,115.75,113.97,0
111,115.66,113.94,0
113,115.60,113.93,0
113,115.55,113.92,0
113,115.50,113.91,0
113,115.45,113.90,0
113,115.40,113.89,0
112,115.33,113.87,0
115,115.33,113.88,0
113,115.28,113.88,0
113,115.24,113.87,0
115,115.23,113.88,0
113,115.19,113.87,0
113,115.14,113.86,0
113,115.10,113.85,0
113,115.06,113.84,0
112,115.00,113.82,0
112,114.94,113.81,0
111,114.86,113.78,0
113,114.82,113.77,0
113,114.78,113.76,0
113,114.75,113.76,0
111,114.67,113.73,0
115,114.68,113.74,0
115,114.69,113.75,0
113,114.65,113.75,0
115,114.66,113.76,0
113,114.63,113.75,0
116,114.65,113.77,0
113,114.62,113.77,0
113,114.59,113.76,0
114,114.58,113.76,0
112,114.53,113.74,0
115,114.53,113.76,0
113,114.50,113.75,0
112,114.45,113.73,0
112,114.40,113.71,0
113,114.38,113.71,0
113,114.35,113.70,0
113,114.32,113.69,0
112,114.28,113.67,0
113,114.25,113.67,0
113,114.23,113.66,0
115,114.24,113.67,0
112,114.20,113.66,0
113,114.17,113.65,0
113,114.15,113.64,0
114,114.15,113.65,0
114,114.14,113.65,0
113,114.12,113.65,0
114,114.12,113.65,0
115,114.14,113.66,0
116,114.17,113.69,0
113,114.15,113.68,0
114,114.15,113.68,0
113,114.12,113.68,0
113,114.10,113.67,0
117,114.16,113.70,0
115,114.18,113.71,0
113,114.15,113.71,0
115,114.17,113.72,0
116,114.21,113.74,0
113,114.18,113.74,0
113,114.16,113.73,0
114,114.15,113.73,0
113,114.13,113.72,0
115,114.15,113.74,0
113,114.13,113.73,0
113,114.10,113.72,0
114,114.10,113.72,0
114,114.10,113.73,0
111,114.04,113.70,0
113,114.02,113.69,0
116,114.06,113.72,0
114,114.06,113.72,0
113,114.03,113.71,0
113,114.01,113.70,0
115,114.03,113.72,0
113,114.01,113.71,0
113,113.99,113.70,0
116,114.03,113.73,0
114,114.03,113.73,0
112,113.99,113.71,0
112,113.95,113.69,0
113,113.93,113.69,0
113,113.91,113.68,0
114,113.92,113.68,0
112,113.88,113.67,0
111,113.82,113.64,0
113,113.80,113.63,0
113,113.79,113.63,0
111,113.73,113.60,0
113,113.72,113.60,0
112,113.68,113.58,0
111,113.63,113.55,0
113,113.62,113.55,0
110,113.54,113.51,0
111,113.49,113.49,0
111,113.44,113.46,0
111,113.39,113.44,0
111,113.35,113.41,0
111,113.30,113.39,0
109,113.21,113.35,0
111,113.17,113.32,0
110,113.11,113.29,0
111,113.06,113.27,0
109,112.98,113.22,0
109,112.90,113.18,0
111,112.86,113.16,0
111,112.83,113.14,0
111,112.79,113.12,0
110,112.74,113.09,0
111,112.70,113.06,0
111,112.67,113.04,0
109,112.59,113.00,0
111,112.56,112.98,0
112,112.55,112.97,0
113,112.56,112.97,0
111,112.53,112.95,0
111,112.50,112.93,0
111,112.47,112.92,0
112,112.46,112.91,0
111,112.43,112.89,0
111,112.40,112.87,0
109,112.33,112.83,0
109,112.27,112.79,0
111,112.24,112.77,0
111,112.22,112.76,0
111,112.19,112.74,0
110,112.15,112.71,0
111,112.12,112.69,0
111,112.10,112.68,0
111,112.08,112.66,0
109,112.02,112.62,0
110,111.98,112.60,0
111,111.96,112.58,0
109,111.90,112.55,0
109,111.84,112.51,0
111,111.82,112.49,0
109,111.77,112.46,0
112,111.77,112.46,0
111,111.76,112.44,0
111,111.74,112.43,0
111,111.73,112.41,0
111,111.71,112.40,0
113,111.74,112.40,0
111,111.72,112.39,0
110,111.69,112.37,0
111,111.68,112.35,0
111,111.66,112.34,0
111,111.65,112.33,0
112,111.66,112.32,0
110,111.62,112.30,0
111,111.61,112.29,0
113,111.64,112.29,0
113,111.67,112.30,0
111,111.65,112.29,0
110,111.62,112.26,0
111,111.61,112.25,0
111,111.59,112.24,0
112,111.60,112.24,0
111,111.59,112.22,0
111,111.58,112.21,0
111,111.57,112.20,0
113,111.60,112.21,0
109,111.54,112.18,0
110,111.51,112.15,0
111,111.50,112.14,0
110,111.47,112.12,0
111,111.46,112.11,0
113,111.49,112.12,0
109,111.44,112.09,0
110,111.42,112.07,0
109,111.37,112.04,0
111,111.36,112.03,0
109,111.31,112.00,0
110,111.29,111.98,0
109,111.24,111.95,0
111,111.24,111.94,0
112,111.25,111.94,0
109,111.21,111.91,0
110,111.18,111.89,0
111,111.18,111.88,0
109,111.13,111.85,0
111,111.13,111.84,0
111,111.13,111.83,0
111,111.13,111.83,0
111,111.12,111.82,0
109,111.08,111.79,0
109,111.04,111.76,0
110,111.02,111.74,0
112,111.04,111.75,0
110,111.02,111.73,0
110,111.00,111.71,0
111,111.00,111.70,0
109,110.96,111.68,0
111,110.96,111.67,0
109,110.92,111.64,0
110,110.90,111.63,0
109,110.86,111.60,0
112,110.89,111.61,0
114,110.95,111.63,0
112,110.97,111.63,0
112,110.99,111.64,0
110,110.97,111.62,0
111,110.97,111.61,0
113,111.01,111.63,0
114,111.07,111.65,0
112,111.09,111.65,0
111,111.09,111.65,0
111,111.09,111.64,0
115,111.16,111.68,0
111,111.16,111.67,0
112,111.18,111.67,0
109,111.13,111.65,0
113,111.17,111.66,0
111,111.17,111.65,0
111,111.16,111.65,0
111,111.16,111.64,0
112,111.18,111.64,0
112,111.19,111.65,0
111,111.19,111.64,0
111,111.19,111.63,0
112,111.20,111.64,0
114,111.26,111.66,0
116,111.35,111.70,0
111,111.35,111.70,0
114,111.40,111.72,0
115,111.47,111.75,0
113,111.50,111.77,0
113,111.53,111.78,0
113,111.56,111.79,0
113,111.59,111.80,0
111,111.58,111.79,0
113,111.61,111.81,0
112,111.62,111.81,0
113,111.64,111.82,0
113,111.67,111.83,0
112,111.68,111.83,0
113,111.70,111.85,0
113,111.73,111.86,0
113,111.75,111.87,0
112,111.76,111.87,0
113,111.78,111.88,0
118,111.91,111.94,0
112,111.91,111.94,0
113,111.93,111.95,0
115,111.99,111.98,0
113,112.01,111.99,0
113,112.03,112.00,0
112,112.03,112.00,0
113,112.05,112.01,0
112,112.05,112.01,0
113,112.07,112.02,0
111,112.05,112.01,0
114,112.09,112.03,0
113,112.11,112.04,0
113,112.12,112.05,0
112,112.12,112.05,0
111,112.10,112.04,0
112,112.10,112.04,0
113,112.11,112.05,0
113,112.13,112.06,0
111,112.11,112.05,0
113,112.13,112.06,0
114,112.17,112.08,0
114,112.20,112.10,0
113,112.22,112.11,0
111,112.19,112.10,0
113,112.21,112.10,0
113,112.23,112.11,0
115,112.28,112.14,0
114,112.32,112.16,0
113,112.33,112.17,0
112,112.32,112.17,0
115,112.38,112.20,0
115,112.43,112.22,0
115,112.48,112.25,0
113,112.49,112.26,0
114,112.52,112.28,0
113,112.53,112.28,0
115,112.58,112.31,0
113,112.59,112.32,0
118,112.70,112.37,0
113,112.70,112.38,0
115,112.75,112.41,0
116,112.81,112.44,0
113,112.82,112.45,0
116,112.88,112.48,0
113,112.88,112.49,0
118,112.99,112.54,0
115,113.03,112.57,0
121,113.19,112.65,0
115,113.22,112.68,0
119,113.34,112.74,0
116,113.39,112.77,0
117,113.46,112.81,0
117,113.53,112.86,0
116,113.58,112.89,0
115,113.61,112.91,0
115,113.64,112.93,0
115,113.67,112.95,0
119,113.77,113.01,0
118,113.86,113.06,0
119,113.96,113.12,0
117,114.02,113.16,0
116,114.06,113.19,0
121,114.20,113.27,0
119,114.30,113.32,0
117,114.35,113.36,0
117,114.40,113.40,0
117,114.45,113.43,0
118,114.53,113.48,0
119,114.61,113.53,0
119,114.70,113.59,0
119,114.79,113.64,0
118,114.85,113.69,0
117,114.90,113.72,0
118,114.96,113.76,0
121,115.08,113.83,0
122,115.22,113.92,0
119,115.29,113.97,0
118,115.35,114.01,0
120,115.44,114.07,0
121,115.55,114.14,0
120,115.64,114.19,0
120,115.73,114.25,0
119,115.79,114.30,0
121,115.90,114.37,0
119,115.96,114.41,0
126,116.16,114.53,0
120,116.24,114.58,0
119,116.29,114.63,0
121,116.39,114.69,0
121,116.48,114.76,0
119,116.53,114.80,0
122,116.64,114.87,0
121,116.73,114.93,0
121,116.81,114.99,0
125,116.97,115.09,0
127,117.18,115.21,0
125,117.33,115.31,0
123,117.44,115.39,0
125,117.60,115.48,0
130,117.84,115.63,0
125,117.99,115.72,0
123,118.09,115.79,0
123,118.19,115.87,0
128,118.38,115.99,0
128,118.57,116.11,0
127,118.74,116.22,0
127,118.91,116.32,0
127,119.07,116.43,0
126,119.21,116.53,0
128,119.38,116.64,0
130,119.60,116.77,0
125,119.70,116.86,0
125,119.81,116.94,0
125,119.91,117.02,0
129,120.10,117.14,0
127,120.23,117.24,0
127,120.37,117.34,0
127,120.50,117.43,0
125,120.59,117.51,0
126,120.70,117.59,0
127,120.83,117.69,0
125,120.91,117.76,0
126,121.01,117.84,0
125,121.09,117.91,0
129,121.25,118.02,0
126,121.34,118.10,0
127,121.46,118.19,0
129,121.61,118.30,0
131,121.80,118.43,0
127,121.90,118.51,0
127,122.00,118.60,0
129,122.14,118.70,0
135,122.40,118.87,0
131,122.57,118.99,0
134,122.80,119.14,0
129,122.92,119.24,0
129,123.05,119.33,0
133,123.24,119.47,0
139,123.56,119.67,0
131,123.71,119.78,0
131,123.85,119.89,0
131,124.00,120.00,0
139,124.30,120.19,0
141,124.63,120.40,0
135,124.84,120.55,0
131,124.96,120.65,0
133,125.12,120.77,0
138,125.38,120.95,0
140,125.67,121.14,0
143,126.02,121.36,0
137,126.24,121.51,0
135,126.41,121.65,0
137,126.63,121.80,0
135,126.79,121.93,0
140,127.06,122.11,0
136,127.24,122.25,0
139,127.47,122.42,0
135,127.62,122.55,0
136,127.79,122.68,0
138,127.99,122.83,0
141,128.25,123.01,0
141,128.51,123.19,0
139,128.72,123.35,0
141,128.96,123.53,0
140,129.19,123.69,0
144,129.48,123.90,0
139,129.67,124.05,0
139,129.86,124.20,0
142,130.10,124.38,0
145,130.40,124.58,0
143,130.65,124.77,0
141,130.86,124.93,0
141,131.06,125.09,0
141,131.26,125.25,0
141,131.45,125.41,0
143,131.69,125.58,0
143,131.91,125.76,0
141,132.09,125.91,0
145,132.35,126.10,0
142,132.54,126.26,0
142,132.73,126.42,0
143,132.94,126.58,0
143,133.14,126.75,0
149,133.46,126.97,0
145,133.69,127.15,0
142,133.85,127.30,0
145,134.08,127.47,0
146,134.32,127.66,0
145,134.53,127.83,0
143,134.70,127.98,0
143,134.87,128.13,0
145,135.07,128.30,0
141,135.19,128.43,0
142,135.32,128.57,0
143,135.48,128.71,0
145,135.67,128.87,0
151,135.97,129.09,0
149,136.23,129.29,0
145,136.41,129.45,0
145,136.58,129.61,0
153,136.91,129.84,0
153,137.23,130.07,0
151,137.51,130.28,0
147,137.70,130.45,0
149,137.92,130.63,0
150,138.16,130.83,0
149,138.38,131.01,0
152,138.65,131.22,0
155,138.98,131.46,0
153,139.26,131.67,0
149,139.46,131.85,0
151,139.69,132.04,0
151,139.91,132.23,0
151,140.13,132.41,0
149,140.31,132.58,0
152,140.55,132.77,0
149,140.71,132.94,0
150,140.90,133.11,0
149,141.06,133.27,0
150,141.24,133.43,0
148,141.38,133.58,0
149,141.53,133.73,0
149,141.68,133.89,0
147,141.78,134.02,0
147,141.89,134.15,0
148,142.01,134.29,0
148,142.13,134.42,0
149,142.27,134.57,0
148,142.38,134.70,0
147,142.48,134.83,0
149,142.61,134.97,0
151,142.77,135.13,0
149,142.90,135.27,0
148,143.00,135.39,0
147,143.08,135.51,0
149,143.20,135.64,0
149,143.31,135.78,0
147,143.39,135.89,0
148,143.48,136.01,0
145,143.51,136.10,0
147,143.58,136.21,0
147,143.65,136.32,0
148,143.74,136.44,0
146,143.78,136.53,0
145,143.81,136.62,0
145,143.83,136.70,0
145,143.85,136.78,0
145,143.88,136.86,0
144,143.88,136.94,0
148,143.96,137.05,0
147,144.02,137.15,0
145,144.04,137.22,0
145,144.06,137.30,0
146,144.10,137.39,0
146,144.14,137.48,0
145,144.15,137.55,0
144,144.15,137.62,0
144,144.15,137.68,0
141,144.09,137.71,0
145,144.10,137.79,0
145,144.12,137.86,0
143,144.10,137.91,0
145,144.12,137.98,0
145,144.13,138.05,0
145,144.15,138.12,0
144,144.15,138.18,0
145,144.17,138.25,0
144,144.16,138.30,0
145,144.18,138.37,0
143,144.16,138.42,0
143,144.13,138.46,0
143,144.11,138.51,0
142,144.07,138.54,0
141,144.01,138.57,0
142,143.97,138.60,0
142,143.93,138.64,0
141,143.87,138.66,0
141,143.81,138.68,0
141,143.76,138.71,0
144,143.76,138.76,0
143,143.74,138.80,0
141,143.69,138.82,0
141,143.64,138.85,0
141,143.58,138.87,0
139,143.49,138.87,0
143,143.48,138.91,0
141,143.43,138.93,0
140,143.36,138.94,0
141,143.32,138.96,0
139,143.23,138.96,0
141,143.19,138.98,0
141,143.14,139.00,0
140,143.08,139.01,0
139,143.00,139.01,0
140,142.94,139.02,0
139,142.86,139.02,0
137,142.74,139.00,0
141,142.71,139.02,0
140,142.65,139.03,0
139,142.58,139.03,0
141,142.55,139.05,0
139,142.48,139.05,0
139,142.41,139.05,0
140,142.36,139.06,0
139,142.29,139.06,0
137,142.19,139.04,0
138,142.10,139.03,0
138,142.02,139.02,0
137,141.92,139.00,0
137,141.82,138.98,0
139,141.77,138.98,0
137,141.67,138.96,0
137,141.58,138.94,0
136,141.47,138.91,0
137,141.38,138.89,0
137,141.29,138.87,0
137,141.20,138.85,0
136,141.10,138.82,0
136,141.00,138.80,0
137,140.92,138.78,0
137,140.84,138.76,0
136,140.74,138.73,0
137,140.67,138.72,0
137,140.59,138.70,0
136,140.50,138.67,0
136,140.41,138.64,0
135,140.30,138.61,0
133,140.16,138.55,0
135,140.05,138.52,0
136,139.97,138.49,0
134,139.85,138.45,0
134,139.74,138.40,0
135,139.64,138.37,0
134,139.53,138.32,0
133,139.40,138.27,0
133,139.27,138.22,0
134,139.16,138.18,0
133,139.04,138.12,0
135,138.96,138.09,0
135,138.88,138.06,0
133,138.76,138.01,0
133,138.65,137.96,0
132,138.52,137.90,0
133,138.41,137.85,0
133,138.30,137.80,0
132,138.17,137.75,0
133,138.07,137.70,0
133,137.97,137.65,0
132,137.85,137.60,0
133,137.75,137.55,0
131,137.62,137.48,0
133,137.52,137.44,1
131,137.39,137.37,1
132,137.28,137.32,2
132,137.18,137.27,2
133,137.10,137.22,3
132,136.99,137.17,3
131,136.87,137.11,3
131,136.76,137.05,3
131,136.64,136.99,3
132,136.55,136.94,3
131,136.44,136.88,3
132,136.35,136.83,3
130,136.22,136.76,3
132,136.14,136.72,3
131,136.03,136.66,3
132,135.95,136.61,3
130,135.83,136.55,3
129,135.70,136.47,3
129,135.56,136.40,3
130,135.45,136.33,3
130,135.34,136.27,3
130,135.24,136.21,3
130,135.13,136.14,3
129,135.01,136.07,3
129,134.89,136.00,3
130,134.79,135.94,3
129,134.68,135.87,3
129,134.56,135.80,3
128,134.43,135.72,3
129,134.32,135.66,3
129,134.22,135.59,3
128,134.09,135.52,3
129,133.99,135.45,3
129,133.89,135.39,3
130,133.81,135.33,3
128,133.70,135.26,3
128,133.58,135.19,3
129,133.49,135.12,3
129,133.40,135.06,3
129,133.31,135.00,3
131,133.27,134.96,3
127,133.14,134.88,3
127,133.02,134.80,3
127,132.90,134.73,3
128,132.80,134.66,3
127,132.68,134.58,3
126,132.55,134.50,3
126,132.42,134.41,3
127,132.31,134.34,3
127,132.20,134.26,3
125,132.06,134.17,3
126,131.94,134.09,3
126,131.82,134.01,3
127,131.72,133.94,3
125,131.59,133.85,3
125,131.46,133.76,3
124,131.31,133.66,3
126,131.20,133.59,3
125,131.08,133.50,3
125,130.96,133.42,3
124,130.82,133.32,3
125,130.70,133.24,3
125,130.59,133.16,3
125,130.48,133.07,3
125,130.37,132.99,3
124,130.24,132.90,3
125,130.13,132.82,3
125,130.03,132.75,3
126,129.95,132.68,3
124,129.83,132.59,3
125,129.74,132.52,3
125,129.64,132.44,3
125,129.55,132.37,3
124,129.44,132.28,3
123,129.31,132.19,3
124,129.20,132.11,3
123,129.08,132.02,3
123,128.96,131.93,3
122,128.82,131.83,3
123,128.70,131.74,3
123,128.59,131.65,3
124,128.49,131.58,3
123,128.39,131.49,3
123,128.28,131.40,3
122,128.15,131.31,3
124,128.07,131.24,3
122,127.95,131.14,3
121,127.81,131.04,3
121,127.67,130.94,3
123,127.58,130.86,3
124,127.51,130.80,3
123,127.42,130.72,3
123,127.33,130.64,3
125,127.28,130.58,3
124,127.22,130.52,3
122,127.11,130.43,3
123,127.03,130.36,3
123,126.95,130.28,3
121,126.83,130.19,3
121,126.71,130.10,3
123,126.64,130.03,3
121,126.53,129.94,3
121,126.42,129.85,3
121,126.31,129.76,3
121,126.20,129.67,3
121,126.10,129.59,3
121,126.00,129.50,3
122,125.92,129.43,3
120,125.80,129.33,3
121,125.70,129.25,3
120,125.59,129.16,3
120,125.48,129.06,3
120,125.37,128.97,3
121,125.28,128.89,3
119,125.15,128.79,3
119,125.03,128.70,3
119,124.91,128.60,3
121,124.83,128.52,3
121,124.75,128.45,3
119,124.64,128.35,3
119,124.53,128.26,3
120,124.44,128.18,3
120,124.35,128.10,3
119,124.24,128.01,3
119,124.14,127.92,3
119,124.03,127.83,3
119,123.93,127.74,3
117,123.79,127.63,3
117,123.66,127.52,3
117,123.52,127.42,3
120,123.45,127.34,3
117,123.33,127.24,3
117,123.20,127.14,3
117,123.07,127.04,3
118,122.97,126.95,3
117,122.85,126.85,3
117,122.74,126.75,3
117,122.62,126.65,3
117,122.51,126.56,3
116,122.38,126.45,3
117,122.27,126.36,3
116,122.15,126.25,3
117,122.04,126.16,3
116,121.92,126.06,3
117,121.82,125.97,3
117,121.73,125.88,3
117,121.63,125.79,3
116,121.52,125.69,3
117,121.43,125.60,3
117,121.34,125.52,3
115,121.21,125.41,3
116,121.11,125.32,3
116,121.01,125.23,3
117,120.93,125.14,3
116,120.83,125.05,3
115,120.71,124.95,3
116,120.62,124.86,3
116,120.53,124.77,3
115,120.42,124.68,3
115,120.31,124.58,3
115,120.20,124.48,3
115,120.10,124.39,3
114,119.98,124.28,3
113,119.84,124.17,3
117,119.78,124.10,3
115,119.68,124.01,3
116,119.61,123.93,3
113,119.48,123.82,3
113,119.35,123.71,3
113,119.22,123.60,3
113,119.10,123.50,3
113,118.97,123.39,3
114,118.88,123.30,3
114,118.78,123.21,3
115,118.70,123.12,3
115,118.63,123.04,3
114,118.54,122.95,3
113,118.42,122.85,3
117,118.40,122.79,3
118,118.39,122.75,3
115,118.32,122.67,3
116,118.27,122.60,3
115,118.21,122.53,3
117,118.18,122.47,3
116,118.14,122.41,3
115,118.08,122.33,3
116,118.04,122.27,3
117,118.02,122.22,3
117,118.00,122.16,3
118,118.00,122.12,3
115,117.94,122.05,3
115,117.88,121.98,3
116,117.84,121.92,3
117,117.82,121.87,3
117,117.81,121.82,3
115,117.75,121.75,3
118,117.76,121.72,3
118,117.76,121.68,3
117,117.74,121.63,3
116,117.71,121.58,3
117,117.70,121.53,3
117,117.68,121.49,3
119,117.71,121.46,3
116,117.67,121.41,3
117,117.66,121.36,3
116,117.63,121.31,3
116,117.59,121.26,3
117,117.58,121.21,3
115,117.53,121.15,3
116,117.50,121.10,3
116,117.47,121.05,3
116,117.44,121.00,3
116,117.41,120.95,3
116,117.38,120.90,3
115,117.34,120.84,3
117,117.33,120.80,3
115,117.28,120.74,3
114,117.22,120.68,3
113,117.13,120.60,3
113,117.05,120.52,3
115,117.01,120.47,3
116,116.99,120.42,3
113,116.91,120.35,3
113,116.83,120.28,3
113,116.75,120.20,3
115,116.72,120.15,3
116,116.71,120.11,3
114,116.65,120.05,3
113,116.58,119.98,3
114,116.53,119.92,3
116,116.52,119.88,3
115,116.49,119.83,3
115,116.46,119.78,3
113,116.39,119.71,3
114,116.34,119.66,3
117,116.35,119.63,3
115,116.33,119.58,3
113,116.26,119.52,3
115,116.23,119.47,3
116,116.23,119.44,3
115,116.20,119.39,3
113,116.14,119.33,3
113,116.08,119.27,3
116,116.08,119.23,3
115,116.05,119.19,3
115,116.03,119.15,3
113,115.97,119.09,3
115,115.95,119.05,3
115,115.93,119.01,3
116,115.94,118.98,3
113,115.88,118.92,3
113,115.82,118.86,3
114,115.78,118.81,3
117,115.81,118.79,3
115,115.79,118.75,3
114,115.76,118.71,3
115,115.74,118.67,3
115,115.73,118.63,3
115,115.71,118.60,3
113,115.66,118.54,3
114,115.62,118.49,3
113,115.57,118.44,3
113,115.52,118.38,3
113,115.47,118.33,3
113,115.42,118.28,3
113,115.37,118.22,3
113,115.32,118.17,3
113,115.28,118.12,3
113,115.23,118.07,3
112,115.17,118.01,3
113,115.12,117.96,3
112,115.06,117.90,3
112,115.00,117.84,3
111,114.92,117.77,3
111,114.84,117.70,3
111,114.77,117.64,3
111,114.69,117.57,3
112,114.64,117.51,3
111,114.56,117.45,3
111,114.49,117.39,3
111,114.42,117.32,3
113,114.39,117.28,3
111,114.33,117.22,3
110,114.24,117.14,3
111,114.17,117.08,3
112,114.13,117.03,3
111,114.07,116.97,3
111,114.01,116.91,3
111,113.95,116.85,3
109,113.85,116.77,3
111,113.79,116.72,3
111,113.74,116.66,3
109,113.64,116.58,3
110,113.57,116.52,3
109,113.48,116.44,3
109,113.39,116.37,3
109,113.30,116.29,3
109,113.21,116.22,3
109,113.13,116.15,3
105,112.97,116.04,3
111,112.93,115.99,3
109,112.85,115.92,3
108,112.75,115.84,3
109,112.68,115.77,3
110,112.62,115.71,3
109,112.55,115.64,3
109,112.48,115.58,3
110,112.43,115.52,3
109,112.36,115.46,3
109,112.29,115.39,3
113,112.31,115.37,3
109,112.24,115.30,3
109,112.18,115.24,3
110,112.13,115.19,3
109,112.07,115.13,3
109,112.01,115.07,3
109,111.95,115.00,3
109,111.89,114.94,3
109,111.83,114.89,3
109,111.78,114.83,3
108,111.70,114.76,3
107,111.61,114.68,3
108,111.53,114.61,3
109,111.48,114.56,3
108,111.41,114.49,3
107,111.33,114.42,3
107,111.24,114.34,3
108,111.17,114.28,3
109,111.13,114.23,3
108,111.07,114.16,3
105,110.95,114.07,3
107,110.87,114.00,3
107,110.79,113.93,3
107,110.71,113.86,3
109,110.68,113.81,3
107,110.61,113.75,3
107,110.53,113.68,3
108,110.48,113.62,3
109,110.45,113.58,3
108,110.41,113.52,3
107,110.34,113.45,3
105,110.23,113.37,3
105,110.13,113.29,3
106,110.04,113.21,3
105,109.94,113.13,3
106,109.86,113.06,3
106,109.79,112.99,3
105,109.69,112.91,3
105,109.60,112.83,3
105,109.50,112.75,3
107,109.45,112.69,3
107,109.41,112.64,3
105,109.32,112.56,3
105,109.23,112.49,3
104,109.13,112.40,3
104,109.02,112.32,3
105,108.94,112.24,3
105,108.86,112.17,3
104,108.77,112.09,3
104,108.67,112.01,3
107,108.64,111.96,3
105,108.57,111.89,3
105,108.49,111.82,3
104,108.40,111.74,3
103,108.30,111.65,3
104,108.21,111.58,3
105,108.15,111.51,3
103,108.04,111.43,3
103,107.94,111.34,3
101,107.80,111.24,3
103,107.71,111.16,3
101,107.57,111.06,3
102,107.46,110.96,3
101,107.33,110.87,3
103,107.25,110.79,3
102,107.14,110.70,3
101,107.02,110.60,3
102,106.92,110.52,3
103,106.84,110.44,3
103,106.76,110.37,3
102,106.67,110.28,3
103,106.59,110.21,3
102,106.50,110.13,3
104,106.45,110.07,3
103,106.38,110.00,3
101,106.28,109.91,3
101,106.17,109.82,3
101,106.07,109.73,3
103,106.01,109.66,3
102,105.93,109.58,3
101,105.83,109.50,3
101,105.73,109.41,3
101,105.64,109.33,3
102,105.56,109.26,3
101,105.47,109.17,3
101,105.38,109.09,3
101,105.29,109.01,3
101,105.21,108.93,3
103,105.16,108.87,3
99,105.04,108.77,3
100,104.94,108.69,3
101,104.86,108.61,3
100,104.76,108.52,3
102,104.71,108.46,3
101,104.63,108.38,3
101,104.56,108.31,3
101,104.49,108.24,3
101,104.42,108.16,3
101,104.35,108.09,3
101,104.29,108.02,3
101,104.22,107.95,3
101,104.16,107.88,3
101,104.09,107.81,3
101,104.03,107.74,3
100,103.95,107.67,3
99,103.85,107.58,3
99,103.75,107.49,3
99,103.66,107.41,3
100,103.59,107.34,3
99,103.49,107.25,3
101,103.44,107.19,3
102,103.42,107.14,3
102,103.39,107.09,3
100,103.32,107.02,3
100,103.25,106.94,3
101,103.21,106.89,3
101,103.16,106.83,3
100,103.10,106.76,3
100,103.04,106.69,3
101,103.00,106.63,3
101,102.96,106.58,3
99,102.88,106.50,3
100,102.82,106.44,3
98,102.72,106.35,3
101,102.69,106.30,3
101,102.66,106.25,3
100,102.60,106.18,3
100,102.55,106.12,3
100,102.50,106.06,3
101,102.47,106.01,3
103,102.48,105.98,3
101,102.45,105.93,3
99,102.38,105.86,3
99,102.31,105.79,3
101,102.29,105.74,3
101,102.26,105.70,3
99,102.20,105.63,3
100,102.15,105.57,3
99,102.09,105.51,3
101,102.07,105.46,3
99,102.01,105.40,3
99,101.95,105.33,3
100,101.91,105.28,3
100,101.87,105.23,3
101,101.85,105.19,3
100,101.82,105.13,3
100,101.78,105.08,3
99,101.72,105.02,3
100,101.69,104.97,3
101,101.68,104.93,3
99,101.62,104.87,3
99,101.57,104.81,3
99,101.52,104.76,3
99,101.47,104.70,3
98,101.40,104.63,3
98,101.33,104.56,3
98,101.26,104.50,3
98,101.20,104.43,3
98,101.13,104.37,3
100,101.11,104.33,3
99,101.07,104.27,3
98,101.01,104.21,3
99,100.97,104.16,3
100,100.95,104.12,3
101,100.95,104.09,3
99,100.91,104.03,3
101,100.91,104.00,3
99,100.87,103.95,3
99,100.84,103.90,3
99,100.80,103.86,3
98,100.74,103.80,3
98,100.69,103.74,3
98,100.64,103.68,3
99,100.60,103.63,3
96,100.51,103.56,3
98,100.46,103.50,3
98,100.41,103.45,3
98,100.36,103.39,3
98,100.32,103.34,3
99,100.29,103.30,3
98,100.24,103.24,3
100,100.24,103.21,3
98,100.19,103.16,3
99,100.17,103.12,3
98,100.13,103.07,3
96,100.04,102.99,3
95,99.94,102.91,3
97,99.88,102.86,3
95,99.79,102.78,3
97,99.73,102.72,3
97,99.68,102.66,3
98,99.64,102.62,3
97,99.59,102.56,3
99,99.58,102.52,3
96,99.51,102.46,3
96,99.44,102.39,3
95,99.35,102.32,3
95,99.26,102.25,3
97,99.22,102.19,3
97,99.17,102.14,3
97,99.13,102.09,3
96,99.07,102.03,3
97,99.02,101.98,3
97,98.98,101.93,3
97,98.94,101.88,3
97,98.90,101.83,3
96,98.85,101.77,3
96,98.79,101.72,3
95,98.71,101.65,3
99,98.72,101.62,3
98,98.71,101.59,3
97,98.67,101.54,3
95,98.60,101.47,3
98,98.59,101.44,3
98,98.57,101.41,3
98,98.56,101.37,3
96,98.51,101.32,3
99,98.52,101.29,3
97,98.49,101.25,3
97,98.46,101.21,3
97,98.43,101.17,3
95,98.36,101.11,3
98,98.36,101.07,3
97,98.33,101.03,3
99,98.34,101.01,3
98,98.34,100.98,3
97,98.31,100.94,3
97,98.28,100.90,3
99,98.30,100.88,3
97,98.27,100.85,3
98,98.27,100.82,3
96,98.22,100.77,3
95,98.16,100.71,3
97,98.13,100.67,3
97,98.11,100.64,3
97,98.09,100.60,3
97,98.07,100.57,3
95,98.00,100.51,3
96,97.96,100.46,3
97,97.95,100.43,3
96,97.91,100.39,3
95,97.85,100.33,3
95,97.79,100.28,3
97,97.78,100.25,3
97,97.76,100.21,3
97,97.74,100.18,3
95,97.69,100.13,3
96,97.66,100.09,3
96,97.62,100.05,3
96,97.59,100.01,3
95,97.54,99.96,3
97,97.53,99.93,3
99,97.56,99.92,3
95,97.51,99.87,3
95,97.46,99.82,3
95,97.41,99.77,3
96,97.38,99.73,3
95,97.33,99.69,3
95,97.28,99.64,3
94,97.22,99.58,3
95,97.17,99.54,3
95,97.13,99.49,3
96,97.11,99.46,3
95,97.07,99.41,3
96,97.05,99.38,3
95,97.00,99.33,3
96,96.98,99.30,3
94,96.92,99.25,3
96,96.91,99.22,3
95,96.87,99.17,3
97,96.87,99.15,3
96,96.85,99.12,3
96,96.84,99.09,3
95,96.80,99.05,3
96,96.78,99.02,3
96,96.77,98.99,3
98,96.79,98.98,3
95,96.76,98.94,3
96,96.74,98.91,3
96,96.73,98.88,3
96,96.71,98.85,3
95,96.68,98.81,3
96,96.66,98.78,3
96,96.65,98.76,3
96,96.64,98.73,3
96,96.63,98.70,3
94,96.57,98.65,3
95,96.54,98.62,3
96,96.53,98.59,3
95,96.50,98.56,3
94,96.45,98.51,3
96,96.44,98.49,3
94,96.39,98.44,3
94,96.34,98.40,3
94,96.30,98.35,3
94,96.25,98.31,3
95,96.23,98.28,3
94,96.18,98.23,3
96,96.18,98.21,3
96,96.17,98.19,3
94,96.13,98.15,3
97,96.15,98.13,3
98,96.19,98.13,3
94,96.14,98.09,3
94,96.10,98.05,3
94,96.06,98.01,3
95,96.04,97.98,3
94,96.00,97.94,3
94,95.96,97.90,3
95,95.94,97.87,3
96,95.94,97.85,3
95,95.92,97.83,3
94,95.88,97.79,3
94,95.84,97.75,3
93,95.79,97.70,3
96,95.79,97.68,3
94,95.75,97.65,3
94,95.72,97.61,3
97,95.74,97.61,3
93,95.69,97.56,3
95,95.68,97.53,3
96,95.68,97.52,3
96,95.69,97.50,3
95,95.68,97.48,3
95,95.66,97.45,3
97,95.69,97.45,3
97,95.71,97.44,3
96,95.72,97.43,3
95,95.71,97.41,3
97,95.73,97.40,3
96,95.74,97.39,3
95,95.72,97.36,3
95,95.71,97.34,3
96,95.71,97.33,3
94,95.68,97.29,3
94,95.65,97.26,3
95,95.63,97.24,3
96,95.64,97.23,3
95,95.63,97.20,3
95,95.62,97.18,3
94,95.58,97.15,3
96,95.59,97.14,3
97,95.62,97.14,3
94,95.59,97.10,3
96,95.60,97.09,3
97,95.62,97.09,3
95,95.61,97.07,3
96,95.62,97.06,3
96,95.63,97.05,3
95,95.61,97.03,3
95,95.60,97.01,3
96,95.61,97.00,3
96,95.62,96.99,3
95,95.60,96.97,3
94,95.57,96.94,3
95,95.56,96.92,3
94,95.53,96.89,3
95,95.52,96.87,3
95,95.51,96.85,3
94,95.48,96.83,3
94,95.45,96.80,3
94,95.42,96.77,3
94,95.39,96.74,3
94,95.36,96.71,3
95,95.36,96.70,3
94,95.33,96.67,3
94,95.30,96.64,3
96,95.32,96.64,3
94,95.29,96.61,3
94,95.26,96.58,3
94,95.24,96.56,3
92,95.17,96.51,3
93,95.13,96.48,3
93,95.09,96.44,3
92,95.03,96.40,3
94,95.01,96.37,3
92,94.95,96.33,3
95,94.95,96.32,3
92,94.89,96.27,3
92,94.83,96.23,3
94,94.81,96.21,3
94,94.80,96.19,3
96,94.82,96.19,3
90,94.73,96.12,3
92,94.67,96.08,3
94,94.66,96.06,3
94,94.64,96.04,3
96,94.67,96.04,3
94,94.66,96.02,3
93,94.62,95.99,3
94,94.61,95.97,3
94,94.60,95.95,3
94,94.59,95.93,3
93,94.56,95.90,3
93,94.53,95.87,3
95,94.53,95.86,3
96,94.56,95.87,3
94,94.55,95.85,3
92,94.50,95.81,3
94,94.49,95.79,3
94,94.48,95.77,3
94,94.47,95.75,3
96,94.50,95.76,3
96,94.53,95.76,3
94,94.52,95.74,3
92,94.47,95.70,3
93,94.44,95.68,3
92,94.39,95.64,3
94,94.39,95.62,3
94,94.38,95.61,3
94,94.37,95.59,3
94,94.36,95.58,3
93,94.34,95.55,3
95,94.35,95.54,3
93,94.32,95.52,3
93,94.30,95.49,3
93,94.27,95.47,3
92,94.22,95.43,3
95,94.24,95.43,3
94,94.23,95.42,3
93,94.21,95.39,3
93,94.19,95.37,3
93,94.16,95.34,3
92,94.12,95.31,3
94,94.12,95.30,3
96,94.15,95.30,3
94,94.15,95.29,3
92,94.11,95.26,3
94,94.11,95.25,3
95,94.12,95.24,3
96,94.16,95.25,3
92,94.12,95.22,3
94,94.12,95.21,3
93,94.09,95.18,3
93,94.07,95.16,3
94,94.07,95.15,3
94,94.07,95.14,3
97,94.13,95.16,3
93,94.10,95.14,3
95,94.12,95.13,3
94,94.12,95.12,3
95,94.14,95.12,3
94,94.14,95.11,3
94,94.13,95.10,3
93,94.11,95.08,3
93,94.09,95.06,3
95,94.11,95.06,3
93,94.08,95.04,3
92,94.04,95.01,3
93,94.02,94.99,3
93,94.00,94.97,3
95,94.02,94.97,3
94,94.02,94.96,3
93,94.00,94.94,3
94,94.00,94.93,3
92,93.96,94.90,3
94,93.96,94.89,3
95,93.98,94.89,3
94,93.98,94.88,3
94,93.98,94.87,3
94,93.98,94.86,3
98,94.06,94.90,3
98,94.14,94.93,3
96,94.18,94.94,3
96,94.22,94.95,3
93,94.19,94.93,3
94,94.19,94.92,3
94,94.18,94.91,3
96,94.22,94.92,3
97,94.28,94.94,3
96,94.31,94.95,3
94,94.30,94.94,3
94,94.30,94.93,3
95,94.31,94.93,3
94,94.31,94.93,3
94,94.30,94.92,3
96,94.33,94.93,3
94,94.33,94.92,3
94,94.32,94.91,3
94,94.31,94.90,3
96,94.35,94.91,3
94,94.34,94.90,3
98,94.41,94.93,3
94,94.41,94.92,3
94,94.40,94.91,3
94,94.39,94.90,3
94,94.38,94.90,3
94,94.37,94.89,3
94,94.37,94.88,3
96,94.40,94.89,3
95,94.41,94.89,3
95,94.42,94.89,3
96,94.45,94.90,3
95,94.47,94.90,3
94,94.46,94.89,3
95,94.47,94.90,3
93,94.44,94.88,3
95,94.45,94.88,3
96,94.48,94.89,3
94,94.47,94.88,3
96,94.50,94.89,3
95,94.51,94.89,3
98,94.58,94.92,3
94,94.57,94.91,3
95,94.58,94.91,3
98,94.65,94.95,3
98,94.71,94.98,3
95,94.72,94.98,3
94,94.70,94.97,3
94,94.69,94.96,3
96,94.72,94.97,3
96,94.74,94.98,3
95,94.75,94.98,3
97,94.79,95.00,3
96,94.82,95.01,3
94,94.80,95.00,3
94,94.78,94.99,3
97,94.83,95.01,3
96,94.85,95.02,3
94,94.84,95.01,3
94,94.82,95.00,3
96,94.84,95.01,3
96,94.87,95.02,3
95,94.87,95.02,3
94,94.85,95.01,3
94,94.83,95.00,3
96,94.86,95.01,3
95,94.86,95.01,3
96,94.88,95.02,3
95,94.88,95.02,3
94,94.87,95.01,3
95,94.87,95.01,3
94,94.85,95.00,3
95,94.86,95.00,3
96,94.88,95.01,3
94,94.86,95.00,3
95,94.86,95.00,3
96,94.89,95.01,3
95,94.89,95.01,3
96,94.91,95.02,3
94,94.89,95.01,3
96,94.91,95.02,3
95,94.92,95.02,3
94,94.90,95.01,3
96,94.92,95.02,3
97,94.96,95.04,3
95,94.96,95.04,3
96,94.98,95.05,3
94,94.96,95.03,3
95,94.96,95.03,3
95,94.96,95.03,3
96,94.99,95.04,3
94,94.97,95.03,3
95,94.97,95.03,3
95,94.97,95.03,3
96,94.99,95.04,3
96,95.01,95.05,3
97,95.05,95.07,3
95,95.05,95.07,3
98,95.11,95.10,3
98,95.16,95.13,3
95,95.16,95.13,3
95,95.16,95.13,3
98,95.21,95.16,3
97,95.25,95.17,3
95,95.25,95.17,3
96,95.26,95.18,3
96,95.27,95.19,3
97,95.31,95.21,3
98,95.36,95.23,3
95,95.36,95.23,3
96,95.37,95.24,3
96,95.38,95.25,3
97,95.41,95.26,3
100,95.51,95.31,3
95,95.50,95.31,3
97,95.53,95.33,3
96,95.54,95.33,3
95,95.52,95.33,3
95,95.51,95.33,3
97,95.54,95.34,3
96,95.55,95.35,3
95,95.54,95.35,3
97,95.57,95.36,3
98,95.62,95.39,3
96,95.63,95.39,3
100,95.71,95.44,3
98,95.76,95.47,3
97,95.79,95.48,3
96,95.79,95.49,3
95,95.77,95.48,3
96,95.78,95.49,3
97,95.80,95.50,3
98,95.85,95.53,3
98,95.89,95.55,3
98,95.93,95.58,3
95,95.91,95.57,3
97,95.93,95.59,3
98,95.98,95.61,3
98,96.02,95.63,3
99,96.08,95.67,3
97,96.09,95.68,3
101,96.19,95.73,3
98,96.23,95.76,3
99,96.28,95.79,3
99,96.34,95.82,3
100,96.41,95.86,3
100,96.48,95.90,3
101,96.57,95.95,3
100,96.64,96.00,3
100,96.71,96.04,3
101,96.80,96.09,3
101,96.88,96.13,3
99,96.92,96.16,3
100,96.98,96.20,3
99,97.02,96.23,3
98,97.04,96.25,3
99,97.08,96.27,3
99,97.12,96.30,3
98,97.14,96.32,3
98,97.16,96.34,3
99,97.19,96.36,3
101,97.27,96.41,3
99,97.30,96.43,3
99,97.34,96.46,3
101,97.41,96.51,3
99,97.44,96.53,3
99,97.47,96.56,3
100,97.52,96.59,3
101,97.59,96.63,3
100,97.64,96.67,3
100,97.69,96.70,3
98,97.70,96.71,3
99,97.72,96.74,3
103,97.83,96.80,3
99,97.85,96.82,3
103,97.95,96.88,3
101,98.01,96.92,3
101,98.07,96.96,3
101,98.13,97.01,3
105,98.27,97.09,3
105,98.40,97.16,3
101,98.46,97.20,3
102,98.53,97.25,3
102,98.60,97.30,3
101,98.64,97.34,3
101,98.69,97.37,3
101,98.74,97.41,3
101,98.78,97.44,3
101,98.83,97.48,3
103,98.91,97.53,3
102,98.97,97.58,3
102,99.03,97.62,3
101,99.07,97.66,3
101,99.11,97.69,3
105,99.23,97.76,3
105,99.34,97.84,3
103,99.42,97.89,3
108,99.59,97.99,3
104,99.68,98.05,3
105,99.78,98.12,3
103,99.85,98.17,3
103,99.91,98.22,3
104,99.99,98.27,3
103,100.05,98.32,3
104,100.13,98.38,3
105,100.23,98.44,3
102,100.26,98.48,3
102,100.30,98.51,3
107,100.43,98.60,3
104,100.50,98.65,3
107,100.63,98.74,3
104,100.70,98.79,3
103,100.75,98.83,3
104,100.81,98.88,3
105,100.90,98.94,3
104,100.96,99.00,3
104,101.02,99.05,3
103,101.06,99.08,3
103,101.10,99.12,3
104,101.16,99.17,3
104,101.21,99.22,3
102,101.23,99.25,3
108,101.36,99.34,3
104,101.42,99.38,3
106,101.51,99.45,3
104,101.56,99.49,3
105,101.63,99.55,3
104,101.67,99.59,3
103,101.70,99.63,3
105,101.77,99.68,3
105,101.83,99.74,3
104,101.88,99.78,3
105,101.94,99.83,3
104,101.98,99.87,3
105,102.04,99.92,3
106,102.12,99.98,3
105,102.18,100.03,3
105,102.23,100.08,3
106,102.31,100.14,3
104,102.34,100.18,3
105,102.40,100.23,3
108,102.51,100.31,3
107,102.60,100.37,3
104,102.63,100.41,3
107,102.71,100.48,3
107,102.80,100.54,3
105,102.84,100.59,3
105,102.89,100.63,3
105,102.93,100.67,3
111,103.09,100.78,3
109,103.21,100.86,3
107,103.28,100.92,3
110,103.42,101.01,3
109,103.53,101.09,3
117,103.80,101.25,3
112,103.96,101.36,3
109,104.06,101.43,3
111,104.20,101.53,3
114,104.40,101.65,3
110,104.51,101.74,3
109,104.60,101.81,3
110,104.71,101.89,3
113,104.87,102.00,3
115,105.08,102.13,3
112,105.21,102.23,3
113,105.37,102.34,3
113,105.52,102.45,3
115,105.71,102.57,3
113,105.86,102.68,3
113,106.00,102.78,3
111,106.10,102.86,3
113,106.24,102.96,3
112,106.35,103.05,3
111,106.45,103.13,3
112,106.56,103.22,3
111,106.65,103.30,3
112,106.75,103.39,3
112,106.86,103.47,3
113,106.98,103.57,3
113,107.10,103.66,3
113,107.22,103.76,3
112,107.32,103.84,3
113,107.43,103.93,3
113,107.54,104.02,3
113,107.65,104.11,3
112,107.74,104.19,3
116,107.90,104.31,3
113,108.00,104.39,3
113,108.10,104.48,3
115,108.24,104.59,3
117,108.42,104.71,3
115,108.55,104.81,3
116,108.70,104.92,3
115,108.82,105.03,3
116,108.97,105.14,3
119,109.17,105.27,3
117,109.32,105.39,3
115,109.44,105.49,3
116,109.57,105.59,3
115,109.68,105.69,3
121,109.90,105.84,3
119,110.09,105.97,3
124,110.36,106.15,3
132,110.80,106.41,3
120,110.98,106.55,3
129,111.34,106.77,3
131,111.74,107.01,3
127,112.04,107.21,3
125,112.30,107.39,3
123,112.51,107.55,3
134,112.94,107.81,3
129,113.26,108.02,3
123,113.46,108.17,3
129,113.77,108.38,3
125,113.99,108.55,3
128,114.27,108.74,3
125,114.49,108.90,3
131,114.82,109.13,3
133,115.18,109.36,3
129,115.46,109.56,3
127,115.69,109.73,3
130,115.98,109.94,3
132,116.30,110.16,3
135,116.67,110.41,3
129,116.92,110.59,3
129,117.16,110.78,3
128,117.38,110.95,3
136,117.75,111.20,3
137,118.13,111.46,3
135,118.47,111.69,3
135,118.80,111.93,3
134,119.11,112.15,3
139,119.50,112.41,3
136,119.83,112.65,3
133,120.10,112.85,3
133,120.35,113.06,3
131,120.57,113.24,3
133,120.82,113.43,3
133,121.06,113.63,3
134,121.32,113.83,3
133,121.55,114.02,3
134,121.80,114.22,3
138,122.13,114.46,3
141,122.50,114.73,3
137,122.79,114.95,3
135,123.04,115.15,3
140,123.38,115.40,3
143,123.77,115.67,3
141,124.11,115.93,3
138,124.39,116.15,3
137,124.64,116.36,3
137,124.89,116.56,3
137,125.13,116.77,3
137,125.37,116.97,3
139,125.64,117.19,3
143,125.99,117.45,3
142,126.31,117.69,3
139,126.56,117.91,3
141,126.85,118.14,3
139,127.10,118.35,3
137,127.29,118.53,3
139,127.53,118.74,3
138,127.74,118.93,3
141,128.00,119.15,3
138,128.20,119.34,3
140,128.44,119.55,3
141,128.69,119.76,3
139,128.90,119.95,3
137,129.06,120.12,3
141,129.30,120.33,3
141,129.53,120.54,3
142,129.78,120.75,3
141,130.00,120.96,3
141,130.22,121.16,3
143,130.48,121.38,3
145,130.77,121.61,3
142,130.99,121.82,3
143,131.23,122.03,3
141,131.43,122.22,3
143,131.66,122.42,3
146,131.95,122.66,3
147,132.25,122.90,3
142,132.44,123.09,3
143,132.66,123.29,3
143,132.86,123.49,3
145,133.11,123.71,3
143,133.30,123.90,3
143,133.50,124.09,3
142,133.67,124.27,3
143,133.85,124.46,3
143,134.04,124.64,3
141,134.18,124.81,3
141,134.31,124.97,3
143,134.49,125.15,3
143,134.66,125.33,3
141,134.78,125.48,3
141,134.91,125.64,3
141,135.03,125.79,3
143,135.19,125.96,3
143,135.35,126.13,3
141,135.46,126.28,3
141,135.57,126.43,3
141,135.68,126.58,3
141,135.78,126.72,3
141,135.89,126.86,3
141,135.99,127.00,3
139,136.05,127.12,3
140,136.13,127.25,3
139,136.19,127.37,3
140,136.26,127.50,3
140,136.34,127.62,3
142,136.45,127.77,3
141,136.54,127.90,3
140,136.61,128.02,3
139,136.66,128.13,3
140,136.73,128.25,3
141,136.81,128.37,3
141,136.90,128.50,3
141,136.98,128.63,3
142,137.08,128.76,3
139,137.12,128.86,3
139,137.15,128.96,3
139,137.19,129.06,3
138,137.21,129.15,3
140,137.26,129.26,3
139,137.30,129.36,3
139,137.33,129.46,3
139,137.37,129.55,3
139,137.40,129.65,3
138,137.41,129.73,3
137,137.40,129.80,3
138,137.41,129.88,3
137,137.41,129.95,3
137,137.40,130.03,3
136,137.37,130.09,3
137,137.36,130.15,3
138,137.37,130.23,3
136,137.35,130.29,3
137,137.34,130.36,3
135,137.29,130.40,3
135,137.25,130.45,3
136,137.22,130.51,3
136,137.20,130.56,3
135,137.15,130.60,3
135,137.11,130.65,3
136,137.09,130.70,3
135,137.05,130.75,3
135,137.01,130.79,3
133,136.93,130.81,3
133,136.85,130.83,3
134,136.79,130.86,3
134,136.73,130.89,3
134,136.68,130.93,3
135,136.65,130.97,3
135,136.61,131.01,3
134,136.56,131.04,3
133,136.49,131.06,3
133,136.42,131.08,3
133,136.35,131.10,3
137,136.36,131.15,3
134,136.32,131.18,3
133,136.25,131.20,3
135,136.23,131.24,3
136,136.22,131.29,3
136,136.22,131.33,3
133,136.15,131.35,3
133,136.09,131.37,3
133,136.03,131.38,3
134,135.99,131.41,3
132,135.91,131.42,3
133,135.85,131.43,3
132,135.77,131.44,3
131,135.68,131.43,3
132,135.60,131.44,3
131,135.51,131.43,3
130,135.40,131.42,3
131,135.31,131.42,3
131,135.23,131.41,3
131,135.14,131.41,3
131,135.06,131.40,3
131,134.98,131.40,3
129,134.86,131.37,3
129,134.74,131.35,3
129,134.63,131.33,3
130,134.53,131.31,3
129,134.42,131.29,3
129,134.32,131.27,3
129,134.21,131.25,3
128,134.08,131.21,3
127,133.94,131.17,3
129,133.84,131.15,3
130,133.77,131.14,3
130,133.69,131.13,3
128,133.58,131.10,3
129,133.49,131.07,3
129,133.40,131.05,3
129,133.31,131.03,3
128,133.20,131.00,3
128,133.10,130.97,3
128,133.00,130.94,3
130,132.94,130.93,3
129,132.86,130.91,3
128,132.76,130.88,3
127,132.65,130.85,3
128,132.55,130.82,3
128,132.46,130.79,3
127,132.35,130.75,3
127,132.25,130.71,3
126,132.12,130.67,3
127,132.02,130.63,3
127,131.92,130.59,3
125,131.78,130.54,3
126,131.66,130.49,3
127,131.57,130.46,3
126,131.46,130.41,3
126,131.35,130.37,3
125,131.22,130.32,3
127,131.14,130.28,3
125,131.02,130.23,3
125,130.90,130.18,3
125,130.78,130.13,3
125,130.66,130.07,3
126,130.57,130.03,3
124,130.44,129.97,3
125,130.33,129.92,3
124,130.20,129.86,3
125,130.10,129.82,3
123,129.96,129.75,3
125,129.86,129.70,3
124,129.74,129.64,3
124,129.62,129.59,3
124,129.51,129.53,3
125,129.42,129.49,3
125,129.33,129.44,3
125,129.25,129.40,3
124,129.14,129.34,3
124,129.04,129.29,3
124,128.94,129.24,3
124,128.84,129.18,3
125,128.76,129.14,3
123,128.65,129.08,3
123,128.53,129.02,3
123,128.42,128.96,3
124,128.34,128.91,3
123,128.23,128.85,3
124,128.14,128.80,3
122,128.02,128.73,3
123,127.92,128.68,3
123,127.82,128.62,3
123,127.73,128.56,3
123,127.63,128.51,3
123,127.54,128.45,3
123,127.45,128.40,3
122,127.34,128.33,3
124,127.27,128.29,3
123,127.19,128.24,3
122,127.08,128.18,3
122,126.98,128.11,3
121,126.86,128.04,3
123,126.78,127.99,3
123,126.71,127.94,3
123,126.63,127.89,3
124,126.58,127.85,3
124,126.53,127.82,3
122,126.44,127.76,3
121,126.33,127.69,3
123,126.26,127.64,3
121,126.16,127.58,3
121,126.06,127.51,3
117,125.87,127.41,3
121,125.78,127.34,3
122,125.70,127.29,3
120,125.59,127.22,3
120,125.48,127.14,3
120,125.37,127.07,3
121,125.28,127.01,3
121,125.19,126.95,3
121,125.11,126.89,3
120,125.01,126.82,3
121,124.93,126.76,3
121,124.85,126.71,3
120,124.75,126.64,3
121,124.68,126.58,3
119,124.56,126.51,3
119,124.45,126.43,3
119,124.34,126.36,3
119,124.24,126.28,3
120,124.15,126.22,3
119,124.05,126.15,3
120,123.97,126.09,3
118,123.85,126.01,3
118,123.73,125.93,3
118,123.62,125.85,3
118,123.50,125.77,3
118,123.39,125.69,3
118,123.29,125.61,3
117,123.16,125.53,3
117,123.04,125.44,3
119,122.96,125.38,3
118,122.86,125.30,3
117,122.74,125.22,3
117,122.63,125.14,3
117,122.51,125.06,3
118,122.42,124.99,3
117,122.31,124.91,3
116,122.19,124.82,3
116,122.06,124.73,3
117,121.96,124.65,3
115,121.82,124.56,3
117,121.73,124.48,3
115,121.59,124.39,3
116,121.48,124.30,3
117,121.39,124.23,3
117,121.30,124.16,3
116,121.20,124.08,3
116,121.09,123.99,3
116,120.99,123.91,3
116,120.89,123.84,3
116,120.79,123.76,3
115,120.68,123.67,3
115,120.56,123.58,3
115,120.45,123.50,3
115,120.34,123.41,3
115,120.24,123.33,3
113,120.09,123.22,3
115,119.99,123.14,3
115,119.89,123.06,3
114,119.77,122.97,3
114,119.66,122.88,3
113,119.52,122.78,3
115,119.43,122.70,3
115,119.35,122.63,3
115,119.26,122.55,3
113,119.13,122.46,3
113,119.01,122.36,3
114,118.91,122.28,3
115,118.83,122.20,3
113,118.72,122.11,3
115,118.64,122.04,3
113,118.53,121.95,3
113,118.42,121.86,3
112,118.29,121.76,3
113,118.18,121.68,3
112,118.06,121.58,3
113,117.96,121.49,3
113,117.86,121.41,3
112,117.74,121.31,3
113,117.65,121.23,3
111,117.51,121.13,3
110,117.36,121.02,3
113,117.28,120.94,3
114,117.21,120.87,3
113,117.13,120.79,3
113,117.04,120.71,3
113,116.96,120.63,3
113,116.88,120.56,3
111,116.77,120.46,3
112,116.67,120.38,3
114,116.62,120.31,3
113,116.55,120.24,3
111,116.43,120.15,3
111,116.33,120.06,3
111,116.22,119.97,3
111,116.12,119.88,3
111,116.01,119.79,3
111,115.91,119.70,3
111,115.81,119.61,3
113,115.76,119.55,3
113,115.70,119.48,3
111,115.61,119.40,3
111,115.52,119.31,3
111,115.43,119.23,3
110,115.32,119.14,3
111,115.23,119.06,3
111,115.15,118.97,3
110,115.04,118.89,3
110,114.94,118.80,3
111,114.86,118.72,3
113,114.83,118.66,3
111,114.75,118.58,3
110,114.66,118.50,3
111,114.58,118.42,3
111,114.51,118.35,3
110,114.42,118.27,3
110,114.33,118.18,3
111,114.27,118.11,3
111,114.20,118.04,3
111,114.14,117.97,3
109,114.03,117.88,3
109,113.93,117.79,3
110,113.85,117.71,3
111,113.80,117.65,3
110,113.72,117.57,3
110,113.65,117.49,3
109,113.55,117.41,3
109,113.46,117.33,3
111,113.41,117.26,3
109,113.33,117.18,3
109,113.24,117.10,3
109,113.15,117.02,3
109,113.07,116.94,3
109,112.99,116.86,3
108,112.89,116.77,3
108,112.79,116.68,3
108,112.70,116.59,3
109,112.62,116.52,3
111,112.59,116.46,3
108,112.50,116.38,3
108,112.41,116.29,3
108,112.32,116.21,3
108,112.23,116.13,3
108,112.15,116.05,3
107,112.05,115.96,3
109,111.98,115.89,3
107,111.89,115.80,3
108,111.81,115.72,3
109,111.75,115.65,3
108,111.68,115.58,3
107,111.58,115.49,3
107,111.49,115.41,3
109,111.44,115.34,3
108,111.37,115.27,3
107,111.28,115.19,3
108,111.22,115.11,3
107,111.13,115.03,3
107,111.05,114.95,3
107,110.97,114.87,3
106,110.87,114.78,3
109,110.83,114.73,3
105,110.72,114.63,3
107,110.64,114.55,3
106,110.55,114.47,3
106,110.46,114.38,3
106,110.37,114.30,3
108,110.32,114.24,3
106,110.24,114.15,3
105,110.13,114.06,3
105,110.03,113.97,3
107,109.97,113.90,3
107,109.91,113.83,3
107,109.85,113.76,3
106,109.77,113.69,3
105,109.68,113.60,3
105,109.58,113.51,3
105,109.49,113.43,3
105,109.40,113.34,3
105,109.32,113.26,3
105,109.23,113.18,3
105,109.14,113.10,3
107,109.10,113.04,3
105,109.02,112.96,3
105,108.94,112.88,3
105,108.86,112.80,3
105,108.78,112.72,3
105,108.71,112.64,3
104,108.61,112.56,3
105,108.54,112.48,3
110,108.57,112.46,3
105,108.50,112.38,3
105,108.43,112.31,3
105,108.36,112.23,3
105,108.29,112.16,3
105,108.23,112.09,3
103,108.12,112.00,3
104,108.04,111.92,3
104,107.96,111.84,3
104,107.88,111.76,3
104,107.80,111.68,3
104,107.73,111.61,3
103,107.63,111.52,3
103,107.54,111.44,3
104,107.47,111.36,3
103,107.38,111.28,3
104,107.31,111.21,3
103,107.23,111.12,3
103,107.14,111.04,3
103,107.06,110.96,3
101,106.94,110.86,3
103,106.86,110.78,3
101,106.74,110.69,3
103,106.67,110.61,3
103,106.59,110.53,3
104,106.54,110.47,3
103,106.47,110.39,3
103,106.40,110.32,3
104,106.35,110.26,3
104,106.31,110.19,3
103,106.24,110.12,3
103,106.17,110.05,3
103,106.11,109.98,3
103,106.05,109.91,3
101,105.95,109.82,3
101,105.85,109.73,3
102,105.77,109.65,3
102,105.70,109.58,3
102,105.62,109.50,3
101,105.53,109.42,3
102,105.46,109.34,3
101,105.37,109.26,3
101,105.28,109.18,3
101,105.20,109.10,3
101,105.11,109.01,3
101,105.03,108.93,3
101,104.95,108.85,3
102,104.89,108.79,3
101,104.81,108.71,3
100,104.72,108.62,3
101,104.64,108.55,3
101,104.57,108.47,3
101,104.50,108.40,3
100,104.41,108.31,3
99,104.30,108.22,3
100,104.21,108.14,3
101,104.15,108.06,3
100,104.07,107.98,3
99,103.97,107.89,3
99,103.87,107.81,3
101,103.81,107.74,3
100,103.73,107.66,3
99,103.64,107.57,3
99,103.55,107.49,3
100,103.47,107.41,3
101,103.43,107.35,3
100,103.36,107.27,3
101,103.31,107.21,3
99,103.22,107.13,3
98,103.12,107.04,3
99,103.04,106.96,3
100,102.98,106.89,3
99,102.90,106.81,3
98,102.80,106.72,3
97,102.68,106.62,3
99,102.61,106.55,3
99,102.54,106.47,3
98,102.45,106.39,3
98,102.36,106.30,3
98,102.27,106.22,3
99,102.20,106.15,3
96,102.08,106.05,3
99,102.02,105.98,3
98,101.94,105.90,3
99,101.88,105.83,3
100,101.84,105.77,3
99,101.79,105.70,3
98,101.71,105.63,3
98,101.64,105.55,3
98,101.56,105.47,3
98,101.49,105.40,3
99,101.44,105.33,3
98,101.37,105.26,3
96,101.27,105.17,3
100,101.24,105.12,3
99,101.20,105.06,3
98,101.13,104.99,3
98,101.07,104.92,3
98,101.01,104.85,3
98,100.95,104.78,3
98,100.89,104.71,3
98,100.83,104.64,3
97,100.75,104.57,3
95,100.64,104.47,3
98,100.59,104.41,3
95,100.47,104.31,3
98,100.42,104.25,3
98,100.38,104.19,3
97,100.31,104.11,3
98,100.26,104.05,3
100,100.26,104.01,3
99,100.23,103.96,3
95,100.13,103.87,3
97,100.07,103.80,3
99,100.04,103.76,3
98,100.00,103.70,3
98,99.96,103.64,3
98,99.92,103.59,3
98,99.89,103.53,3
97,99.83,103.46,3
97,99.77,103.40,3
97,99.72,103.34,3
97,99.66,103.27,3
99,99.65,103.23,3
98,99.61,103.18,3
98,99.58,103.13,3
97,99.53,103.06,3
97,99.48,103.00,3
95,99.39,102.92,3
97,99.34,102.86,3
98,99.32,102.82,3
97,99.27,102.76,3
97,99.22,102.70,3
96,99.16,102.63,3
97,99.12,102.58,3
101,99.15,102.56,3
97,99.11,102.51,3
96,99.05,102.44,3
96,98.99,102.38,3
96,98.93,102.31,3
97,98.89,102.26,3
95,98.81,102.19,3
96,98.76,102.12,3
96,98.70,102.06,3
95,98.63,101.99,3
95,98.55,101.92,3
95,98.48,101.85,3
95,98.41,101.79,3
96,98.37,101.73,3
95,98.30,101.66,3
96,98.25,101.60,3
96,98.21,101.55,3
98,98.20,101.51,3
95,98.14,101.45,3
96,98.10,101.39,3
99,98.11,101.37,3
95,98.05,101.30,3
95,97.99,101.24,3
95,97.93,101.18,3
96,97.89,101.13,3
96,97.85,101.08,3
96,97.82,101.03,3
96,97.78,100.98,3
95,97.73,100.92,3
95,97.67,100.86,3
95,97.62,100.80,3
97,97.61,100.76,3
94,97.53,100.69,3
96,97.50,100.65,3
95,97.45,100.59,3
95,97.40,100.53,3
96,97.38,100.49,3
96,97.35,100.44,3
94,97.28,100.38,3
95,97.24,100.32,3
96,97.21,100.28,3
96,97.19,100.24,3
95,97.14,100.19,3
94,97.08,100.12,3
94,97.02,100.06,3
93,96.94,99.99,3
95,96.90,99.94,3
97,96.90,99.91,3
93,96.82,99.84,3
93,96.75,99.78,3
94,96.69,99.72,3
96,96.68,99.68,3
96,96.66,99.64,3
95,96.63,99.60,3
95,96.60,99.55,3
97,96.61,99.53,3
93,96.53,99.46,3
95,96.50,99.42,3
95,96.47,99.37,3
94,96.42,99.32,3
94,96.38,99.26,3
94,96.33,99.21,3
95,96.30,99.17,3
96,96.30,99.14,3
93,96.23,99.08,3
93,96.16,99.02,3
95,96.14,98.98,3
93,96.08,98.92,3
95,96.06,98.88,3
94,96.02,98.83,3
93,95.96,98.77,3
93,95.90,98.71,3
93,95.84,98.66,3
94,95.80,98.61,3
94,95.77,98.56,3
93,95.71,98.51,3
93,95.66,98.45,3
92,95.58,98.39,3
92,95.51,98.32,3
94,95.48,98.28,3
94,95.45,98.24,3
92,95.38,98.18,3
92,95.31,98.11,3
93,95.27,98.06,3
94,95.24,98.02,3
94,95.22,97.98,3
94,95.19,97.94,3
92,95.13,97.88,3
91,95.05,97.81,3
92,94.99,97.76,3
94,94.97,97.72,3
95,94.97,97.69,3
94,94.95,97.65,3
92,94.89,97.60,3
93,94.85,97.55,3
94,94.83,97.52,3
94,94.82,97.48,3
92,94.76,97.43,3
92,94.71,97.37,3
93,94.67,97.33,3
92,94.62,97.27,3
94,94.61,97.24,3
92,94.55,97.19,3
92,94.50,97.14,3
92,94.45,97.09,3
92,94.40,97.04,3
92,94.36,96.98,3
93,94.33,96.94,3
92,94.28,96.90,3
92,94.24,96.85,3
92,94.19,96.80,3
92,94.15,96.75,3
92,94.10,96.70,3
92,94.06,96.66,3
92,94.02,96.61,3
92,93.98,96.56,3
90,93.90,96.50,3
93,93.88,96.46,3
93,93.87,96.43,3
91,93.81,96.37,3
90,93.73,96.31,3
92,93.70,96.27,3
94,93.70,96.24,3
92,93.67,96.20,3
92,93.64,96.16,3
92,93.60,96.12,3
92,93.57,96.08,3
92,93.54,96.04,3
92,93.51,96.00,3
92,93.48,95.96,3
93,93.47,95.93,3
92,93.44,95.89,3
92,93.41,95.85,3
92,93.38,95.81,3
92,93.36,95.77,3
90,93.29,95.71,3
91,93.24,95.67,3
92,93.22,95.63,3
92,93.19,95.59,3
94,93.21,95.58,3
92,93.19,95.54,3
90,93.12,95.49,3
92,93.10,95.45,3
92,93.08,95.42,3
93,93.08,95.39,3
91,93.03,95.35,3
91,92.99,95.31,3
92,92.97,95.27,3
94,92.99,95.26,3
90,92.93,95.21,3
91,92.90,95.16,3
90,92.84,95.11,3
92,92.82,95.08,3
89,92.74,95.02,3
90,92.69,94.97,3
93,92.70,94.95,3
90,92.64,94.90,3
89,92.57,94.84,3
91,92.54,94.80,3
92,92.53,94.78,3
92,92.52,94.75,3
91,92.49,94.71,3
90,92.44,94.66,3
87,92.33,94.59,3
91,92.30,94.55,3
90,92.26,94.51,3
90,92.21,94.46,3
91,92.19,94.43,3
89,92.12,94.37,3
89,92.06,94.32,3
92,92.06,94.30,3
92,92.06,94.27,3
90,92.02,94.23,3
90,91.98,94.19,3
88,91.90,94.13,3
89,91.84,94.07,3
89,91.78,94.02,3
90,91.75,93.98,3
90,91.71,93.94,3
89,91.66,93.89,3
88,91.58,93.83,3
90,91.55,93.80,3
89,91.50,93.75,3
90,91.47,93.71,3
88,91.40,93.65,3
88,91.33,93.60,3
88,91.27,93.54,3
89,91.22,93.50,3
88,91.16,93.44,3
88,91.09,93.39,3
88,91.03,93.33,3
89,90.99,93.29,3
88,90.93,93.24,3
88,90.87,93.18,3
88,90.82,93.13,3
88,90.76,93.08,3
88,90.70,93.03,3
86,90.61,92.96,3
88,90.56,92.91,3
87,90.49,92.85,3
88,90.44,92.80,3
89,90.41,92.76,3
88,90.36,92.72,3
88,90.31,92.67,3
89,90.29,92.63,3
88,90.24,92.59,3
88,90.20,92.54,3
87,90.13,92.49,3
88,90.09,92.44,3
88,90.05,92.40,3
89,90.03,92.36,3
87,89.97,92.31,3
88,89.93,92.27,3
90,89.93,92.24,3
88,89.89,92.20,3
88,89.85,92.16,3
88,89.81,92.12,3
87,89.76,92.07,3
88,89.72,92.03,3
88,89.69,91.98,3
88,89.66,91.95,3
88,89.62,91.91,3
87,89.57,91.86,3
88,89.54,91.82,3
86,89.47,91.76,3
88,89.44,91.72,3
89,89.43,91.70,3
88,89.40,91.66,3
86,89.33,91.60,3
88,89.31,91.57,3
90,89.32,91.55,3
88,89.29,91.51,3
88,89.27,91.48,3
87,89.22,91.43,3
87,89.18,91.39,3
90,89.19,91.38,3
88,89.17,91.34,3
88,89.15,91.31,3
87,89.10,91.27,3
88,89.08,91.23,3
88,89.06,91.20,3
87,89.02,91.16,3
88,89.00,91.13,3
90,89.02,91.12,3
88,89.00,91.08,3
87,88.96,91.04,3
86,88.90,90.99,3
86,88.84,90.94,3
87,88.80,90.90,3
86,88.75,90.86,3
86,88.69,90.81,3
86,88.64,90.76,3
86,88.59,90.71,3
88,88.58,90.68,3
88,88.56,90.66,3
85,88.49,90.60,3
86,88.44,90.55,3
86,88.39,90.51,3
87,88.37,90.47,3
89,88.38,90.46,3
86,88.33,90.41,3
86,88.28,90.37,3
86,88.24,90.33,3
87,88.21,90.29,3
86,88.17,90.25,3
86,88.13,90.21,3
87,88.10,90.18,3
85,88.04,90.12,3
85,87.98,90.07,3
86,87.94,90.03,3
92,88.02,90.05,3
86,87.98,90.01,3
85,87.92,89.96,3
85,87.86,89.91,3
84,87.79,89.85,3
87,87.77,89.82,3
86,87.74,89.79,3
86,87.70,89.75,3
87,87.69,89.72,3
85,87.63,89.67,3
86,87.60,89.64,3
84,87.53,89.58,3
86,87.50,89.54,3
86,87.47,89.51,3
85,87.42,89.46,3
84,87.35,89.41,3
84,87.28,89.35,3
85,87.24,89.31,3
84,87.17,89.26,3
85,87.13,89.22,3
85,87.09,89.17,3
85,87.04,89.13,3
85,87.00,89.09,3
84,86.94,89.04,3
84,86.88,88.99,3
84,86.83,88.94,3
84,86.77,88.89,3
84,86.72,88.84,3
88,86.74,88.83,3
86,86.73,88.80,3
84,86.67,88.76,3
84,86.62,88.71,3
85,86.59,88.67,3
83,86.51,88.61,3
83,86.44,88.56,3
84,86.40,88.51,3
84,86.35,88.47,3
83,86.28,88.41,3
84,86.23,88.37,3
84,86.19,88.33,3
85,86.17,88.29,3
86,86.16,88.27,3
86,86.16,88.25,3
84,86.12,88.20,3
84,86.07,88.16,3
86,86.07,88.14,3
86,86.07,88.12,3
85,86.05,88.09,3
83,85.99,88.04,3
83,85.93,87.99,3
84,85.89,87.95,3
84,85.85,87.91,3
83,85.80,87.86,3
84,85.76,87.82,3
84,85.72,87.78,3
84,85.69,87.74,3
83,85.64,87.70,3
82,85.56,87.64,3
82,85.49,87.58,3
86,85.50,87.57,3
85,85.49,87.54,3
84,85.46,87.51,3
85,85.45,87.48,3
84,85.42,87.45,3
84,85.40,87.41,3
84,85.37,87.38,3
82,85.30,87.32,3
82,85.23,87.27,3
83,85.19,87.23,3
84,85.17,87.20,3
82,85.10,87.14,3
84,85.08,87.11,3
83,85.04,87.07,3
84,85.02,87.04,3
84,85.00,87.01,3
85,85.00,86.99,3
85,85.00,86.97,3
82,84.94,86.92,3
83,84.90,86.88,3
84,84.88,86.85,3
83,84.84,86.81,3
84,84.83,86.79,3
84,84.81,86.76,3
84,84.79,86.73,3
85,84.80,86.71,3
84,84.78,86.69,3
84,84.77,86.66,3
84,84.75,86.63,3
83,84.72,86.60,3
85,84.72,86.58,3
84,84.71,86.55,3
82,84.65,86.51,3
83,84.62,86.47,3
84,84.61,86.45,3
83,84.58,86.41,3
84,84.56,86.39,3
84,84.55,86.37,3
85,84.56,86.35,3
84,84.55,86.33,3
83,84.52,86.30,3
85,84.53,86.28,3
84,84.52,86.26,3
82,84.47,86.22,3
84,84.46,86.20,3
85,84.47,86.18,3
84,84.46,86.16,3
85,84.47,86.15,3
82,84.42,86.11,3
83,84.39,86.08,3
84,84.39,86.06,3
84,84.38,86.04,3
82,84.33,86.00,3
86,84.36,86.00,3
86,84.40,86.00,3
88,84.47,86.02,3
90,84.58,86.06,3
84,84.57,86.03,3
85,84.58,86.02,3
85,84.58,86.01,3
84,84.57,85.99,3
84,84.56,85.97,3
85,84.57,85.96,3
83,84.54,85.93,3
83,84.51,85.91,3
84,84.50,85.89,3
85,84.51,85.88,3
86,84.54,85.88,3
84,84.53,85.86,3
85,84.54,85.85,3
86,84.57,85.85,3
84,84.55,85.83,3
86,84.58,85.84,3
84,84.57,85.82,3
83,84.54,85.79,3
83,84.51,85.76,3
84,84.50,85.74,3
84,84.49,85.73,3
83,84.46,85.70,3
84,84.45,85.68,3
84,84.44,85.67,3
84,84.43,85.65,3
83,84.40,85.62,3
82,84.36,85.59,3
84,84.35,85.57,3
84,84.34,85.55,3
83,84.31,85.53,3
82,84.27,85.49,3
86,84.30,85.50,3
83,84.28,85.47,3
83,84.25,85.45,3
84,84.25,85.43,3
86,84.28,85.44,3
84,84.28,85.43,3
85,84.29,85.42,3
82,84.24,85.39,3
86,84.28,85.39,3
85,84.29,85.39,3
86,84.33,85.40,3
84,84.32,85.38,3
85,84.34,85.38,3
85,84.35,85.37,3
84,84.34,85.36,3
85,84.35,85.36,3
84,84.35,85.34,3
84,84.34,85.33,3
84,84.33,85.32,3
84,84.33,85.30,3
84,84.32,85.29,3
83,84.29,85.27,3
84,84.29,85.25,3
84,84.28,85.24,3
84,84.28,85.23,3
84,84.27,85.22,3
88,84.35,85.25,3
86,84.38,85.25,3
83,84.35,85.23,3
83,84.32,85.21,3
84,84.32,85.20,3
84,84.31,85.18,3
85,84.33,85.18,3
83,84.30,85.16,3
82,84.25,85.13,3
83,84.23,85.11,3
83,84.20,85.09,3
84,84.20,85.08,3
82,84.16,85.04,3
84,84.15,85.03,3
82,84.11,85.00,3
83,84.09,84.98,3
85,84.11,84.98,3
84,84.10,84.97,3
86,84.14,84.98,3
83,84.12,84.96,3
85,84.14,84.96,3
84,84.13,84.96,3
83,84.11,84.94,3
84,84.11,84.93,3
84,84.11,84.92,3
82,84.06,84.89,3
84,84.06,84.88,3
82,84.02,84.85,3
85,84.04,84.85,3
82,84.00,84.82,3
82,83.96,84.79,3
82,83.92,84.77,3
83,83.90,84.75,3
84,83.90,84.74,3
83,83.89,84.72,3
84,83.89,84.72,3
83,83.87,84.70,3
83,83.85,84.68,3
82,83.82,84.66,3
83,83.80,84.64,3
84,83.80,84.63,3
84,83.81,84.63,3
82,83.77,84.60,3
84,83.78,84.59,3
86,83.82,84.61,3
84,83.82,84.60,3
84,83.83,84.60,3
86,83.87,84.61,3
84,83.87,84.60,3
84,83.88,84.60,3
84,83.88,84.59,3
84,83.88,84.59,3
84,83.88,84.58,3
84,83.89,84.57,3
86,83.93,84.59,3
86,83.97,84.60,3
84,83.97,84.60,3
84,83.97,84.59,3
86,84.01,84.61,3
87,84.07,84.63,3
85,84.09,84.63,3
86,84.13,84.65,3
84,84.13,84.64,3
85,84.14,84.64,3
86,84.18,84.66,3
86,84.22,84.67,3
84,84.21,84.66,3
84,84.21,84.66,3
86,84.24,84.67,3
84,84.24,84.66,3
84,84.23,84.66,3
85,84.25,84.66,3
88,84.32,84.69,3
83,84.30,84.68,3
86,84.33,84.69,3
86,84.37,84.70,3
86,84.40,84.72,3
88,84.47,84.75,3
86,84.50,84.76,3
88,84.57,84.79,3
86,84.60,84.81,3
88,84.67,84.84,3
86,84.69,84.85,3
87,84.74,84.87,3
86,84.77,84.88,3
86,84.79,84.89,3
86,84.81,84.90,3
86,84.84,84.92,3
88,84.90,84.95,3
92,85.04,85.02,3
86,85.06,85.03,3
90,85.16,85.08,3
88,85.22,85.11,3
88,85.27,85.14,3
88,85.33,85.16,3
87,85.36,85.18,3
86,85.37,85.19,3
85,85.37,85.19,3
86,85.38,85.20,3
87,85.41,85.21,3
87,85.44,85.23,3
88,85.49,85.26,3
88,85.54,85.29,3
86,85.55,85.29,3
86,85.56,85.30,3
88,85.61,85.33,3
88,85.66,85.36,3
91,85.77,85.41,3
86,85.77,85.42,3
88,85.82,85.44,3
89,85.88,85.48,3
88,85.92,85.50,3
90,86.00,85.55,3
90,86.08,85.59,3
88,86.12,85.62,3
88,86.16,85.64,3
88,86.20,85.67,3
88,86.23,85.69,3
88,86.27,85.71,3
87,86.28,85.72,3
88,86.32,85.75,3
89,86.37,85.78,3
89,86.42,85.81,3
88,86.45,85.83,3
87,86.47,85.85,3
89,86.52,85.88,3
87,86.53,85.89,3
92,86.63,85.95,3
88,86.66,85.97,3
90,86.73,86.01,3
88,86.75,86.03,3
90,86.82,86.07,3
88,86.84,86.09,3
88,86.87,86.11,3
90,86.93,86.15,3
93,87.05,86.22,3
89,87.09,86.24,3
90,87.15,86.28,3
90,87.20,86.32,3
88,87.22,86.34,3
92,87.32,86.39,3
91,87.39,86.44,3
90,87.44,86.47,3
89,87.47,86.50,3
91,87.54,86.54,3
91,87.61,86.59,3
90,87.66,86.62,3
89,87.69,86.65,3
90,87.73,86.68,3
92,87.82,86.73,3
88,87.82,86.75,3
92,87.91,86.80,3
90,87.95,86.83,3
91,88.01,86.87,3
90,88.05,86.90,3
90,88.09,86.93,3
90,88.13,86.96,3
90,88.16,87.00,3
92,88.24,87.05,3
91,88.30,87.08,3
91,88.35,87.12,3
90,88.38,87.15,3
90,88.41,87.18,3
91,88.47,87.22,3
90,88.50,87.25,3
90,88.53,87.27,3
92,88.60,87.32,3
90,88.62,87.35,3
91,88.67,87.39,3
90,88.70,87.41,3
94,88.80,87.48,3
93,88.89,87.53,3
98,89.07,87.64,3
90,89.09,87.66,3
96,89.23,87.74,3
92,89.28,87.79,3
96,89.42,87.87,3
94,89.51,87.93,3
92,89.56,87.97,3
93,89.63,88.02,3
91,89.66,88.05,3
94,89.74,88.11,3
94,89.83,88.17,3
92,89.87,88.21,3
92,89.91,88.25,3
96,90.04,88.32,3
97,90.17,88.41,3
96,90.29,88.49,3
96,90.41,88.56,3
98,90.56,88.66,3
98,90.71,88.75,3
97,90.83,88.83,3
98,90.98,88.92,3
97,91.10,89.00,3
98,91.23,89.09,3
98,91.37,89.18,3
98,91.50,89.27,3
97,91.61,89.35,3
97,91.72,89.42,3
96,91.81,89.49,3
96,91.89,89.56,3
96,91.97,89.62,3
96,92.05,89.68,3
100,92.21,89.79,3
97,92.31,89.86,3
96,92.38,89.92,3
96,92.45,89.98,3
98,92.56,90.06,3
101,92.73,90.17,3
102,92.92,90.29,3
103,93.12,90.42,3
97,93.20,90.48,3
99,93.31,90.57,3
98,93.41,90.64,3
100,93.54,90.74,3
102,93.71,90.85,3
102,93.87,90.96,3
104,94.08,91.09,3
101,94.21,91.19,3
103,94.39,91.31,3
101,94.52,91.40,3
100,94.63,91.49,3
99,94.72,91.57,3
106,94.95,91.71,3
103,95.11,91.82,3
104,95.28,91.94,3
101,95.40,92.03,3
107,95.63,92.18,3
103,95.78,92.29,3
101,95.88,92.38,3
101,95.98,92.47,3
101,96.09,92.55,3
101,96.18,92.64,3
102,96.30,92.73,3
103,96.43,92.83,3
102,96.54,92.92,3
101,96.63,93.00,3
107,96.84,93.14,3
105,97.00,93.26,3
104,97.14,93.37,3
105,97.30,93.49,3
102,97.40,93.57,3
103,97.51,93.67,3
108,97.72,93.81,3
105,97.86,93.92,3
109,98.09,94.07,3
107,98.26,94.20,3
106,98.42,94.32,3
105,98.55,94.43,3
106,98.70,94.54,3
105,98.83,94.65,3
106,98.97,94.76,3
104,99.07,94.85,3
105,99.19,94.95,3
105,99.30,95.05,3
105,99.42,95.15,3
104,99.51,95.24,3
105,99.62,95.34,3
104,99.71,95.43,3
106,99.83,95.53,3
105,99.94,95.63,3
104,100.02,95.71,3
108,100.18,95.83,3
107,100.31,95.95,3
109,100.49,96.08,3
108,100.64,96.19,3
108,100.79,96.31,3
108,100.93,96.43,3
108,101.07,96.55,3
114,101.33,96.72,3
111,101.52,96.86,3
110,101.69,96.99,3
110,101.86,97.12,3
110,102.02,97.25,3
108,102.14,97.36,3
114,102.38,97.53,3
111,102.55,97.66,3
116,102.82,97.85,3
113,103.02,98.00,3
114,103.24,98.16,3
115,103.48,98.33,3
114,103.69,98.48,3
111,103.83,98.61,3
116,104.08,98.78,3
116,104.32,98.95,3
121,104.65,99.17,3
116,104.88,99.34,3
114,105.06,99.49,3
114,105.24,99.63,3
112,105.37,99.76,3
114,105.55,99.90,3
114,105.72,100.04,3
113,105.86,100.17,3
115,106.04,100.32,3
117,106.26,100.49,3
117,106.48,100.65,3
116,106.67,100.80,3
123,106.99,101.03,3
124,107.33,101.26,3
117,107.53,101.41,3
119,107.76,101.59,3
119,107.98,101.76,3
125,108.32,102.00,3
121,108.58,102.19,3
121,108.82,102.37,3
119,109.03,102.54,3
121,109.27,102.72,3
117,109.42,102.87,3
127,109.77,103.11,3
124,110.06,103.32,3
123,110.32,103.51,3
121,110.53,103.69,3
124,110.80,103.89,3
126,111.10,104.11,3
125,111.38,104.32,3
125,111.65,104.53,3
123,111.88,104.71,3
124,112.12,104.91,3
126,112.40,105.12,3
131,112.77,105.38,3
126,113.04,105.58,3
124,113.26,105.77,3
125,113.49,105.96,3
125,113.72,106.15,3
124,113.93,106.33,3
130,114.25,106.56,3
124,114.44,106.74,3
129,114.74,106.96,3
125,114.94,107.14,3
126,115.16,107.33,3
128,115.42,107.54,3
127,115.65,107.73,3
127,115.88,107.92,3
130,116.16,108.15,3
125,116.34,108.31,3
126,116.53,108.49,3
127,116.74,108.68,3
127,116.94,108.86,3
127,117.15,109.04,3
125,117.30,109.20,3
128,117.52,109.39,3
128,117.73,109.57,3
131,117.99,109.79,3
127,118.17,109.96,3
128,118.37,110.14,3
128,118.56,110.32,3
127,118.73,110.49,3
133,119.02,110.71,3
130,119.23,110.90,3
130,119.45,111.10,3
134,119.74,111.32,3
133,120.01,111.54,3
135,120.31,111.78,3
131,120.52,111.97,3
131,120.73,112.16,3
135,121.02,112.39,3
138,121.35,112.64,3
139,121.71,112.91,3
136,121.99,113.14,3
141,122.37,113.42,3
135,122.63,113.63,3
135,122.87,113.85,3
137,123.16,114.08,3
134,123.37,114.28,3
136,123.63,114.49,3
134,123.83,114.69,3
137,124.10,114.91,3
137,124.35,115.13,3
137,124.61,115.35,3
136,124.84,115.56,3
135,125.04,115.75,3
137,125.28,115.96,3
146,125.69,116.27,3
141,126.00,116.51,3
144,126.36,116.79,3
143,126.69,117.05,3
141,126.98,117.29,3
147,127.38,117.59,3
149,127.81,117.90,3
146,128.17,118.18,3
147,128.55,118.47,3
143,128.84,118.71,3
147,129.20,119.00,3
143,129.48,119.24,3
144,129.77,119.49,3
148,130.13,119.77,3
147,130.47,120.04,3
147,130.80,120.31,3
143,131.05,120.54,3
148,131.38,120.81,3
146,131.68,121.07,3
145,131.94,121.30,3
145,132.20,121.54,3
147,132.50,121.80,3
145,132.75,122.03,3
148,133.06,122.29,3
146,133.31,122.53,3
149,133.63,122.79,3
145,133.86,123.01,3
149,134.16,123.27,3
145,134.38,123.49,3
145,134.59,123.70,3
146,134.82,123.93,3
146,135.04,124.15,3
145,135.24,124.36,3
146,135.45,124.57,3
147,135.69,124.80,3
145,135.87,125.00,3
149,136.13,125.24,3
148,136.37,125.47,3
152,136.68,125.73,3
150,136.95,125.98,3
150,137.21,126.22,3
148,137.43,126.43,3
147,137.62,126.64,3
145,137.77,126.82,3
145,137.91,127.00,3
147,138.09,127.20,3
145,138.23,127.38,3
153,138.53,127.64,3
148,138.72,127.84,3
146,138.86,128.02,3
146,139.00,128.20,3
148,139.18,128.40,3
147,139.34,128.59,3
145,139.45,128.75,3
151,139.68,128.97,3
147,139.83,129.15,3
149,140.01,129.35,3
147,140.15,129.53,3
147,140.29,129.70,3
151,140.50,129.92,3
153,140.75,130.15,3
149,140.92,130.34,3
149,141.08,130.52,3
151,141.28,130.73,3
149,141.43,130.91,3
151,141.63,131.11,3
148,141.75,131.28,3
150,141.92,131.47,3
149,142.06,131.64,3
147,142.16,131.80,3
149,142.30,131.97,3
147,142.39,132.12,3
150,142.54,132.30,3
151,142.71,132.48,3
150,142.86,132.66,3
151,143.02,132.84,3
149,143.14,133.00,3
149,143.26,133.16,3
151,143.41,133.34,3
149,143.52,133.50,3
150,143.65,133.66,3
153,143.84,133.86,3
151,143.98,134.03,3
149,144.08,134.18,3
147,144.14,134.31,3
149,144.24,134.45,3
149,144.33,134.60,3
149,144.43,134.74,3
152,144.58,134.92,3
150,144.69,135.07,3
151,144.81,135.23,3
153,144.98,135.40,3
149,145.06,135.54,3
151,145.18,135.69,3
149,145.25,135.83,3
150,145.35,135.97,3
152,145.48,136.13,3
149,145.55,136.26,3
151,145.66,136.41,3
149,145.73,136.53,3
149,145.79,136.66,3
149,145.86,136.78,3
151,145.96,136.92,3
151,146.06,137.06,3
152,146.18,137.21,3
153,146.32,137.37,3
151,146.41,137.51,3
149,146.46,137.62,3
151,146.55,137.76,3
151,146.64,137.89,3
149,146.69,138.00,3
149,146.73,138.11,3
149,146.78,138.22,3
149,146.82,138.33,3
148,146.85,138.42,3
149,146.89,138.53,3
149,146.93,138.63,3
149,146.97,138.74,3
147,146.97,138.82,3
148,146.99,138.91,3
149,147.04,139.01,3
150,147.09,139.12,3
149,147.13,139.22,3
148,147.15,139.31,3
151,147.23,139.43,3
149,147.26,139.52,3
149,147.30,139.62,3
147,147.29,139.69,3
147,147.29,139.76,3
148,147.30,139.84,3
148,147.31,139.93,3
148,147.33,140.01,3
147,147.32,140.08,3
147,147.31,140.15,3
149,147.35,140.23,3
150,147.40,140.33,3
148,147.41,140.41,3
147,147.40,140.48,3
150,147.46,140.57,3
147,147.45,140.63,3
149,147.48,140.72,3
147,147.47,140.78,3
147,147.46,140.84,3
149,147.49,140.92,3
147,147.48,140.99,3
148,147.49,141.06,3
147,147.48,141.12,3
146,147.45,141.16,3
146,147.42,141.21,3
146,147.39,141.26,3
145,147.35,141.30,3
146,147.32,141.34,3
145,147.27,141.38,3
146,147.25,141.43,3
144,147.18,141.45,3
146,147.16,141.50,3
146,147.14,141.54,3
145,147.09,141.58,3
143,147.01,141.59,3
145,146.97,141.63,3
143,146.89,141.64,3
145,146.85,141.67,3
144,146.80,141.70,3
146,146.78,141.74,3
145,146.75,141.77,3
144,146.69,141.80,3
145,146.66,141.83,3
143,146.58,141.84,3
144,146.53,141.86,3
143,146.46,141.87,3
143,146.39,141.88,3
143,146.32,141.89,3
143,146.26,141.91,3
143,146.19,141.92,3
143,146.13,141.93,3
143,146.07,141.94,3
142,145.98,141.94,3
142,145.90,141.94,3
143,145.85,141.95,3
141,145.75,141.94,3
140,145.63,141.92,3
143,145.58,141.93,3
141,145.49,141.92,3
141,145.40,141.91,3
141,145.31,141.90,3
140,145.21,141.88,3
141,145.12,141.88,3
142,145.06,141.88,3
140,144.96,141.86,3
140,144.86,141.84,3
142,144.80,141.84,3
139,144.69,141.81,3
141,144.61,141.81,3
141,144.54,141.80,3
140,144.45,141.78,3
139,144.34,141.75,3
140,144.25,141.73,3
141,144.19,141.73,3
140,144.10,141.71,3
140,144.02,141.69,3
139,143.92,141.67,3
139,143.82,141.64,3
141,143.77,141.63,3
138,143.65,141.60,3
140,143.58,141.58,3
139,143.49,141.55,3
137,143.36,141.51,3
139,143.27,141.48,3
139,143.19,141.46,3
137,143.06,141.41,3
140,143.00,141.40,3
140,142.94,141.39,3
138,142.84,141.35,3
137,142.72,141.31,3
137,142.61,141.27,3
139,142.54,141.24,3
140,142.49,141.23,3
139,142.42,141.21,3
140,142.37,141.20,3
141,142.34,141.19,3
137,142.23,141.15,3
137,142.13,141.11,3
137,142.03,141.07,3
137,141.93,141.03,3
138,141.85,141.00,3
138,141.77,140.97,3
137,141.68,140.93,3
137,141.58,140.89,3
136,141.47,140.84,3
137,141.38,140.80,3
137,141.29,140.76,3
136,141.19,140.72,3
135,141.06,140.66,3
136,140.96,140.61,3
139,140.92,140.60,3
136,140.83,140.55,3
136,140.73,140.51,3
136,140.63,140.46,3
135,140.52,140.41,4
137,140.45,140.37,4
137,140.38,140.34,5
135,140.27,140.28,5
136,140.19,140.24,6
136,140.11,140.20,6
135,140.00,140.15,6
135,139.90,140.10,6
136,139.82,140.05,6
136,139.75,140.01,6
135,139.65,139.96,6
135,139.56,139.91,6
135,139.47,139.87,6
137,139.42,139.84,6
134,139.31,139.78,6
133,139.19,139.71,6
133,139.06,139.64,6
133,138.94,139.58,6
133,138.82,139.51,6
135,138.75,139.47,6
133,138.63,139.40,6
133,138.52,139.34,6
133,138.41,139.27,6
131,138.26,139.19,6
135,138.19,139.15,6
133,138.09,139.09,6
132,137.97,139.02,6
133,137.87,138.96,6
133,137.77,138.90,6
131,137.64,138.82,6
131,137.50,138.74,6
132,137.39,138.67,6
132,137.29,138.61,6
132,137.18,138.54,6
131,137.06,138.46,6
131,136.93,138.39,6
130,136.80,138.31,6
131,136.68,138.23,6
131,136.57,138.16,6
132,136.48,138.10,6
130,136.35,138.02,6
131,136.24,137.95,6
131,136.13,137.88,6
132,136.05,137.82,6
131,135.95,137.75,6
131,135.85,137.68,6
131,135.75,137.62,6
133,135.70,137.57,6
129,135.57,137.49,6
130,135.45,137.41,6
129,135.33,137.33,6
129,135.20,137.24,6
129,135.07,137.16,6
129,134.95,137.08,6
129,134.83,137.00,6
129,134.72,136.92,6
129,134.60,136.84,6
131,134.53,136.78,6
131,134.46,136.72,6
129,134.35,136.65,6
129,134.24,136.57,6
130,134.16,136.50,6
128,134.04,136.42,6
128,133.92,136.33,6
128,133.80,136.25,6
127,133.66,136.16,6
128,133.55,136.08,6
128,133.44,136.00,6
128,133.33,135.92,6
127,133.20,135.83,6
127,133.08,135.74,6
127,132.96,135.65,6
127,132.84,135.56,6
127,132.72,135.48,6
127,132.61,135.39,6
127,132.49,135.31,6
126,132.36,135.22,6
125,132.22,135.11,6
126,132.09,135.02,6
127,131.99,134.94,6
125,131.85,134.84,6
125,131.71,134.75,6
126,131.60,134.66,6
125,131.47,134.56,6
125,131.34,134.47,6
126,131.23,134.38,6
125,131.11,134.29,6
125,130.98,134.19,6
125,130.86,134.10,6
126,130.77,134.02,6
125,130.65,133.93,6
126,130.56,133.85,6
126,130.47,133.77,6
124,130.34,133.68,6
125,130.23,133.59,6
123,130.09,133.48,6
125,129.99,133.40,6
123,129.85,133.29,6
125,129.75,133.21,6
127,129.69,133.15,6
125,129.60,133.07,6
129,129.59,133.03,6
124,129.48,132.94,6
125,129.39,132.86,6
125,129.30,132.78,6
124,129.19,132.69,6
124,129.09,132.60,6
124,128.99,132.52,6
125,128.91,132.44,6
124,128.81,132.36,6
123,128.69,132.27,6
125,128.62,132.19,6
123,128.51,132.10,6
124,128.42,132.02,6
121,128.27,131.91,6
122,128.14,131.81,6
123,128.04,131.72,6
124,127.96,131.64,6
123,127.86,131.56,6
123,127.76,131.47,6
123,127.67,131.39,6
123,127.57,131.30,6
125,127.52,131.24,6
123,127.43,131.16,6
122,127.32,131.07,6
122,127.22,130.98,6
124,127.15,130.91,6
123,127.07,130.83,6
124,127.01,130.76,6
123,126.93,130.68,6
121,126.81,130.59,6
121,126.69,130.49,6
123,126.62,130.41,6
121,126.51,130.32,6
121,126.40,130.23,6
121,126.29,130.13,6
121,126.18,130.04,6
121,126.08,129.95,6
120,125.96,129.85,6
121,125.86,129.76,6
121,125.76,129.68,6
121,125.67,129.59,6
120,125.55,129.49,6
120,125.44,129.40,6
120,125.33,129.31,6
121,125.25,129.22,6
121,125.16,129.14,6
120,125.06,129.05,6
119,124.94,128.95,6
120,124.84,128.86,6
121,124.76,128.78,6
123,124.73,128.72,6
120,124.63,128.64,6
120,124.54,128.55,6
120,124.45,128.46,6
121,124.38,128.39,6
120,124.29,128.31,6
120,124.21,128.22,6
119,124.10,128.13,6
121,124.04,128.06,6
120,123.96,127.98,6
120,123.88,127.90,6
119,123.78,127.81,6
119,123.69,127.72,6
121,123.63,127.65,6
119,123.54,127.57,6
119,123.45,127.48,6
119,123.36,127.40,6
117,123.23,127.29,6
119,123.15,127.21,6
118,123.05,127.12,6
119,122.96,127.04,6
118,122.87,126.95,6
117,122.75,126.85,6
118,122.65,126.76,6
117,122.54,126.66,6
117,122.43,126.56,6
117,122.32,126.47,6
117,122.21,126.37,6
118,122.13,126.29,6
117,122.03,126.20,6
118,121.95,126.12,6
118,121.87,126.03,6
119,121.81,125.96,6
117,121.71,125.87,6
116,121.60,125.78,6
116,121.49,125.68,6
116,121.38,125.58,6
116,121.27,125.49,6
116,121.17,125.39,6
116,121.06,125.30,6
115,120.94,125.19,6
116,120.84,125.10,6
115,120.73,125.00,6
117,120.65,124.92,6
115,120.54,124.82,6
115,120.43,124.72,6
114,120.30,124.62,6
116,120.21,124.53,6
113,120.07,124.41,6
113,119.93,124.30,6
113,119.79,124.19,6
114,119.67,124.09,6
113,119.54,123.97,6
113,119.41,123.86,6
113,119.28,123.76,6
113,119.15,123.65,6
113,119.03,123.54,6
112,118.89,123.43,6
111,118.73,123.30,6
113,118.62,123.20,6
112,118.49,123.09,6
112,118.36,122.98,6
113,118.25,122.88,6
111,118.10,122.76,6
113,118.00,122.66,6
111,117.86,122.54,6
112,117.74,122.44,6
111,117.61,122.32,6
112,117.50,122.22,6
111,117.37,122.11,6
111,117.24,122.00,6
111,117.12,121.89,6
111,116.99,121.78,6
109,116.83,121.65,6
109,116.68,121.52,6
110,116.54,121.41,6
109,116.39,121.28,6
109,116.24,121.16,6
111,116.14,121.06,6
109,116.00,120.94,6
109,115.86,120.82,6
110,115.74,120.71,6
109,115.60,120.60,6
110,115.49,120.49,6
111,115.40,120.39,6
110,115.29,120.29,6
109,115.17,120.18,6
110,115.07,120.08,6
110,114.96,119.97,6
109,114.85,119.87,6
109,114.73,119.76,6
110,114.63,119.66,6
110,114.54,119.56,6
109,114.43,119.46,6
109,114.32,119.35,6
110,114.24,119.26,6
109,114.13,119.16,6
110,114.05,119.06,6
109,113.95,118.96,6
110,113.87,118.87,6
109,113.77,118.78,6
109,113.68,118.68,6
109,113.58,118.58,6
109,113.49,118.49,6
108,113.38,118.38,6
109,113.29,118.29,6
112,113.27,118.22,6
110,113.20,118.14,6
109,113.12,118.05,6
108,113.02,117.95,6
107,112.89,117.84,6
109,112.82,117.75,6
107,112.70,117.64,6
108,112.61,117.55,6
107,112.49,117.44,6
107,112.38,117.34,6
109,112.32,117.25,6
110,112.27,117.18,6
106,112.15,117.07,6
109,112.08,116.99,6
109,112.02,116.91,6
109,111.96,116.83,6
109,111.90,116.75,6
108,111.82,116.66,6
110,111.79,116.60,6
110,111.75,116.53,6
109,111.70,116.46,6
107,111.60,116.36,6
109,111.55,116.29,6
108,111.48,116.21,6
107,111.39,116.11,6
107,111.30,116.02,6
106,111.20,115.92,6
107,111.11,115.83,6
108,111.05,115.75,6
107,110.97,115.67,6
106,110.87,115.57,6
105,110.75,115.46,6
107,110.68,115.38,6
108,110.62,115.31,6
106,110.53,115.21,6
107,110.46,115.13,6
106,110.37,115.04,6
105,110.26,114.94,6
105,110.16,114.84,6
105,110.05,114.74,6
105,109.95,114.64,6
105,109.85,114.55,6
105,109.76,114.45,6
108,109.72,114.39,6
105,109.63,114.29,6
105,109.54,114.20,6
105,109.44,114.11,6
107,109.40,114.04,6
107,109.35,113.97,6
106,109.28,113.89,6
107,109.24,113.82,6
107,109.19,113.75,6
105,109.11,113.66,6
105,109.02,113.58,6
105,108.94,113.49,6
105,108.87,113.41,6
107,108.83,113.34,6
105,108.75,113.26,6
105,108.68,113.18,6
106,108.62,113.10,6
107,108.59,113.04,6
105,108.52,112.96,6
105,108.45,112.88,6
105,108.38,112.80,6
105,108.31,112.73,6
107,108.29,112.67,6
106,108.24,112.60,6
105,108.17,112.53,6
104,108.09,112.44,6
105,108.03,112.37,6
105,107.97,112.29,6
104,107.89,112.21,6
104,107.81,112.13,6
105,107.76,112.06,6
105,107.70,111.99,6
106,107.67,111.93,6
104,107.59,111.85,6
103,107.50,111.76,6
103,107.41,111.67,6
103,107.32,111.58,6
105,107.28,111.52,6
105,107.23,111.45,6
103,107.15,111.37,6
103,107.06,111.28,6
105,107.02,111.22,6
105,106.98,111.16,6
103,106.90,111.08,6
106,106.88,111.03,6
103,106.81,110.95,6
105,106.77,110.89,6
103,106.69,110.81,6
103,106.62,110.73,6
103,106.55,110.65,6
104,106.50,110.59,6
103,106.43,110.51,6
101,106.32,110.42,6
103,106.25,110.34,6
103,106.19,110.27,6
102,106.10,110.19,6
102,106.02,110.10,6
101,105.92,110.01,6
101,105.82,109.92,6
102,105.75,109.84,6
101,105.65,109.75,6
101,105.56,109.67,6
101,105.47,109.58,6
101,105.38,109.49,6
102,105.31,109.42,6
101,105.22,109.34,6
101,105.14,109.25,6
101,105.06,109.17,6
101,104.98,109.09,6
101,104.90,109.01,6
101,104.82,108.93,6
102,104.76,108.86,6
100,104.67,108.77,6
101,104.59,108.69,6
100,104.50,108.60,6
101,104.43,108.53,6
101,104.36,108.45,6
100,104.28,108.37,6
99,104.17,108.28,6
99,104.07,108.18,6
99,103.97,108.09,6
101,103.91,108.02,6
99,103.81,107.93,6
101,103.75,107.86,6
100,103.68,107.78,6
99,103.58,107.69,6
98,103.47,107.60,6
100,103.40,107.52,6
101,103.35,107.46,6
100,103.29,107.38,6
101,103.24,107.32,6
101,103.20,107.25,6
99,103.11,107.17,6
99,103.03,107.09,6
99,102.95,107.01,6
98,102.85,106.92,6
98,102.75,106.83,6
101,102.72,106.77,6
99,102.64,106.69,6
98,102.55,106.61,6
99,102.48,106.53,6
98,102.39,106.45,6
98,102.30,106.36,6
100,102.26,106.30,6
99,102.19,106.22,6
97,102.09,106.13,6
99,102.03,106.06,6
100,101.99,106.00,6
99,101.93,105.93,6
97,101.83,105.84,6
98,101.75,105.76,6
97,101.66,105.67,6
98,101.58,105.60,6
98,101.51,105.52,6
98,101.44,105.45,6
98,101.37,105.37,6
97,101.28,105.29,6
98,101.22,105.22,6
96,101.11,105.12,6
99,101.07,105.06,6
96,100.97,104.97,6
97,100.89,104.89,6
96,100.79,104.80,6
96,100.70,104.72,6
96,100.60,104.63,6
97,100.53,104.55,6
96,100.44,104.47,6
97,100.37,104.39,6
96,100.28,104.31,6
95,100.18,104.21,6
95,100.08,104.12,6
97,100.01,104.05,6
96,99.93,103.97,6
96,99.86,103.89,6
96,99.78,103.81,6
95,99.68,103.72,6
95,99.59,103.64,6
98,99.56,103.58,6
95,99.47,103.49,6
95,99.38,103.41,6
94,99.27,103.32,6
95,99.18,103.23,6
97,99.14,103.17,6
96,99.08,103.10,6
95,99.00,103.02,6
95,98.92,102.94,6
97,98.88,102.88,6
96,98.82,102.81,6
95,98.74,102.73,6
94,98.65,102.64,6
94,98.56,102.56,6
98,98.54,102.51,6
94,98.45,102.43,6
95,98.38,102.35,6
95,98.32,102.28,6
95,98.25,102.21,6
95,98.19,102.13,6
94,98.10,102.05,6
94,98.02,101.97,6
95,97.96,101.90,6
95,97.90,101.83,6
94,97.82,101.75,6
95,97.77,101.69,6
94,97.69,101.61,6
93,97.60,101.52,6
93,97.50,101.44,6
93,97.41,101.35,6
94,97.35,101.28,6
95,97.30,101.22,6
94,97.23,101.15,6
95,97.19,101.08,6
93,97.10,101.00,6
94,97.04,100.93,6
94,96.98,100.86,6
93,96.90,100.79,6
93,96.82,100.71,6
93,96.75,100.63,6
93,96.67,100.55,6
95,96.64,100.50,6
95,96.61,100.44,6
93,96.53,100.37,6
93,96.46,100.30,6
94,96.41,100.23,6
95,96.39,100.18,6
96,96.38,100.14,6
94,96.33,100.08,6
94,96.28,100.02,6
96,96.28,99.98,6
95,96.25,99.93,6
95,96.23,99.88,6
94,96.18,99.82,6
96,96.18,99.78,6
95,96.16,99.73,6
94,96.11,99.68,6
94,96.07,99.62,6
94,96.03,99.56,6
93,95.97,99.50,6
92,95.89,99.42,6
94,95.85,99.37,6
95,95.83,99.32,6
95,95.82,99.28,6
96,95.82,99.25,6
94,95.79,99.20,6
96,95.79,99.16,6
94,95.75,99.11,6
94,95.72,99.06,6
94,95.68,99.01,6
94,95.65,98.96,6
93,95.60,98.90,6
94,95.57,98.85,6
96,95.57,98.82,6
94,95.54,98.77,6
93,95.49,98.72,6
92,95.42,98.65,6
93,95.37,98.59,6
93,95.33,98.54,6
94,95.30,98.49,6
92,95.23,98.43,6
92,95.17,98.36,6
92,95.11,98.30,6
93,95.06,98.25,6
94,95.04,98.20,6
94,95.02,98.16,6
92,94.96,98.10,6
92,94.90,98.04,6
92,94.84,97.98,6
92,94.79,97.92,6
92,94.73,97.86,6
94,94.72,97.82,6
93,94.68,97.77,6
93,94.65,97.73,6
93,94.62,97.68,6
93,94.58,97.63,6
93,94.55,97.58,6
92,94.50,97.53,6
92,94.45,97.47,6
94,94.44,97.44,6
92,94.39,97.38,6
93,94.36,97.34,6
92,94.32,97.29,6
91,94.25,97.22,6
93,94.23,97.18,6
92,94.18,97.13,6
92,94.14,97.08,6
92,94.10,97.03,6
92,94.05,96.98,6
91,93.99,96.92,6
91,93.93,96.86,6
94,93.93,96.83,6
92,93.90,96.78,6
92,93.86,96.73,6
92,93.82,96.69,6
93,93.80,96.65,6
92,93.77,96.60,6
94,93.77,96.58,6
91,93.72,96.52,6
92,93.68,96.48,6
94,93.69,96.45,6
94,93.69,96.43,6
92,93.66,96.38,6
93,93.65,96.35,6
93,93.63,96.32,6
93,93.62,96.28,6
92,93.59,96.24,6
95,93.62,96.23,6
93,93.61,96.20,6
92,93.57,96.15,6
92,93.54,96.11,6
93,93.53,96.08,6
92,93.50,96.04,6
92,93.47,96.00,6
92,93.44,95.96,6
94,93.45,95.94,6
91,93.40,95.89,6
91,93.36,95.84,6
93,93.35,95.81,6
93,93.34,95.78,6
93,93.33,95.76,6
93,93.33,95.73,6
92,93.30,95.69,6
90,93.24,95.64,6
92,93.21,95.60,6
92,93.19,95.56,6
94,93.20,95.55,6
92,93.18,95.51,6
91,93.13,95.47,6
92,93.11,95.43,6
94,93.13,95.42,6
92,93.11,95.38,6
91,93.07,95.34,6
92,93.04,95.31,6
91,93.00,95.26,6
91,92.96,95.22,6
91,92.92,95.18,6
92,92.91,95.15,6
92,92.89,95.12,6
90,92.83,95.06,6
92,92.81,95.03,6
92,92.80,95.00,6
92,92.78,94.97,6
91,92.74,94.93,6
90,92.69,94.88,6
92,92.68,94.86,6
92,92.66,94.83,6
91,92.63,94.79,6
92,92.62,94.76,6
92,92.60,94.73,6
91,92.57,94.70,6
91,92.54,94.66,6
90,92.49,94.61,6
90,92.44,94.57,6
91,92.41,94.53,6
91,92.38,94.49,6
92,92.38,94.47,6
92,92.37,94.45,6
90,92.32,94.40,6
90,92.27,94.36,6
94,92.31,94.35,6
92,92.30,94.33,6
91,92.28,94.30,6
90,92.23,94.25,6
91,92.21,94.22,6
90,92.16,94.18,6
91,92.14,94.15,6
90,92.10,94.11,6
92,92.09,94.08,6
89,92.03,94.03,6
90,91.99,93.99,6
90,91.95,93.95,6
92,91.95,93.93,6
90,91.91,93.89,6
91,91.90,93.87,6
90,91.86,93.83,6
89,91.80,93.78,6
89,91.74,93.73,6
90,91.71,93.69,6
90,91.68,93.66,6
91,91.66,93.63,6
91,91.65,93.60,6
91,91.64,93.58,6
92,91.64,93.56,6
92,91.65,93.55,6
92,91.66,93.53,6
90,91.62,93.50,6
90,91.59,93.46,6
89,91.54,93.42,6
89,91.49,93.37,6
90,91.46,93.34,6
92,91.47,93.32,6
88,91.40,93.27,6
89,91.35,93.23,6
88,91.29,93.18,6
89,91.24,93.13,6
88,91.18,93.08,6
88,91.11,93.03,6
88,91.05,92.98,6
88,90.99,92.93,6
88,90.93,92.88,6
89,90.89,92.84,6
88,90.83,92.80,6
89,90.80,92.76,6
89,90.76,92.72,6
88,90.70,92.67,6
90,90.69,92.65,6
89,90.66,92.61,6
88,90.60,92.56,6
88,90.55,92.52,6
88,90.50,92.47,6
89,90.47,92.44,6
90,90.46,92.41,6
90,90.45,92.39,6
88,90.40,92.35,6
89,90.37,92.31,6
89,90.35,92.28,6
90,90.34,92.26,6
92,90.37,92.25,6
92,90.41,92.25,6
90,90.40,92.23,6
92,90.43,92.23,6
96,90.54,92.26,6
90,90.53,92.24,6
90,90.52,92.22,6
90,90.51,92.20,6
92,90.54,92.19,6
90,90.53,92.17,6
90,90.52,92.15,6
90,90.51,92.13,6
91,90.52,92.12,6
90,90.51,92.10,6
91,90.52,92.09,6
90,90.51,92.07,6
90,90.50,92.04,6
90,90.49,92.02,6
90,90.48,92.00,6
90,90.47,91.98,6
88,90.42,91.94,6
91,90.43,91.93,6
90,90.42,91.92,6
90,90.41,91.90,6
90,90.40,91.88,6
90,90.40,91.86,6
92,90.43,91.86,6
94,90.50,91.88,6
92,90.53,91.88,6
90,90.52,91.86,6
90,90.51,91.85,6
94,90.58,91.87,6
92,90.61,91.87,6
93,90.65,91.88,6
90,90.64,91.86,6
94,90.71,91.88,6
91,90.71,91.87,6
91,90.72,91.86,6
93,90.77,91.88,6
92,90.79,91.88,6
93,90.83,91.89,6
92,90.86,91.89,6
92,90.88,91.89,6
92,90.90,91.89,6
91,90.91,91.88,6
90,90.89,91.86,6
94,90.95,91.89,6
90,90.93,91.87,6
91,90.93,91.86,6
92,90.95,91.86,6
91,90.95,91.85,6
90,90.94,91.83,6
90,90.92,91.81,6
90,90.90,91.80,6
92,90.92,91.80,6
90,90.90,91.78,6
90,90.88,91.76,6
92,90.91,91.76,6
92,90.93,91.77,6
92,90.95,91.77,6
90,90.93,91.75,6
91,90.93,91.74,6
89,90.89,91.72,6
90,90.88,91.70,6
91,90.88,91.69,6
90,90.86,91.68,6
90,90.84,91.66,6
91,90.85,91.65,6
90,90.83,91.64,6
90,90.81,91.62,6
90,90.80,91.60,6
90,90.78,91.59,6
90,90.76,91.57,6
92,90.79,91.58,6
90,90.77,91.56,6
89,90.74,91.53,6
90,90.72,91.52,6
92,90.75,91.52,6
90,90.73,91.51,6
90,90.72,91.49,6
90,90.71,91.48,6
92,90.73,91.48,6
92,90.76,91.49,6
91,90.76,91.48,6
90,90.75,91.47,6
92,90.77,91.47,6
90,90.76,91.46,6
92,90.78,91.46,6
90,90.76,91.45,6
89,90.73,91.43,6
92,90.76,91.43,6
90,90.74,91.42,6
90,90.73,91.40,6
91,90.73,91.40,6
90,90.72,91.38,6
90,90.70,91.37,6
90,90.69,91.36,6
93,90.73,91.37,6
92,90.76,91.38,6
90,90.74,91.37,6
90,90.73,91.35,6
92,90.75,91.36,6
91,90.76,91.36,6
90,90.74,91.34,6
92,90.77,91.35,6
92,90.79,91.35,6
90,90.78,91.34,6
94,90.84,91.37,6
91,90.85,91.36,6
94,90.91,91.39,6
94,90.97,91.42,6
92,90.99,91.42,6
90,90.97,91.41,6
92,90.99,91.41,6
91,90.99,91.41,6
92,91.01,91.42,6
92,91.03,91.42,6
91,91.03,91.42,6
91,91.03,91.41,6
94,91.09,91.44,6
92,91.11,91.45,6
91,91.11,91.44,6
93,91.14,91.46,6
91,91.14,91.45,6
92,91.16,91.46,6
92,91.18,91.46,6
92,91.19,91.47,6
92,91.21,91.47,6
92,91.22,91.48,6
92,91.24,91.48,6
96,91.33,91.53,6
93,91.37,91.54,6
92,91.38,91.55,6
91,91.37,91.54,6
92,91.39,91.55,6
90,91.36,91.53,6
91,91.35,91.53,6
91,91.34,91.52,6
96,91.44,91.57,6
92,91.45,91.57,6
92,91.46,91.57,6
96,91.55,91.62,6
92,91.56,91.62,6
96,91.65,91.67,6
93,91.67,91.68,6
94,91.72,91.70,6
94,91.77,91.73,6
94,91.81,91.75,6
92,91.82,91.75,6
94,91.86,91.77,6
96,91.94,91.82,6
96,92.02,91.86,6
93,92.04,91.87,6
94,92.08,91.89,6
92,92.08,91.89,6
94,92.12,91.91,6
93,92.14,91.92,6
94,92.17,91.94,6
93,92.19,91.95,6
94,92.23,91.98,6
93,92.24,91.99,6
94,92.28,92.01,6
94,92.31,92.03,6
94,92.34,92.05,6
95,92.40,92.07,6
96,92.47,92.11,6
93,92.48,92.12,6
93,92.49,92.13,6
94,92.52,92.15,6
93,92.53,92.16,6
94,92.56,92.18,6
92,92.55,92.18,6
94,92.58,92.19,6
93,92.59,92.20,6
93,92.59,92.21,6
94,92.62,92.23,6
92,92.61,92.23,6
97,92.70,92.27,6
95,92.74,92.30,6
92,92.73,92.30,6
94,92.75,92.31,6
93,92.76,92.32,6
95,92.80,92.35,6
96,92.87,92.38,6
94,92.89,92.40,6
94,92.91,92.42,6
93,92.91,92.42,6
94,92.94,92.44,6
94,92.96,92.45,6
94,92.98,92.47,6
94,93.00,92.48,6
94,93.02,92.50,6
94,93.04,92.52,6
93,93.04,92.52,6
94,93.06,92.53,6
94,93.08,92.55,6
94,93.09,92.56,6
95,93.13,92.59,6
95,93.17,92.61,6
94,93.19,92.63,6
98,93.28,92.68,6
95,93.32,92.70,6
95,93.35,92.73,6
96,93.40,92.76,6
97,93.48,92.80,6
95,93.51,92.82,6
95,93.54,92.85,6
96,93.59,92.88,6
95,93.61,92.90,6
95,93.64,92.92,6
96,93.69,92.95,6
94,93.69,92.96,6
96,93.74,92.99,6
95,93.77,93.01,6
96,93.81,93.04,6
98,93.89,93.09,6
96,93.94,93.12,6
99,94.04,93.18,6
100,94.16,93.25,6
98,94.23,93.29,6
100,94.35,93.36,6
101,94.48,93.44,6
100,94.59,93.50,6
98,94.66,93.55,6
99,94.75,93.60,6
98,94.81,93.65,6
98,94.88,93.69,6
99,94.96,93.74,6
98,95.02,93.79,6
96,95.04,93.81,6
99,95.12,93.86,6
97,95.16,93.89,6
98,95.21,93.93,6
98,95.27,93.97,6
100,95.36,94.03,6
100,95.46,94.09,6
99,95.53,94.14,6
103,95.68,94.23,6
102,95.80,94.31,6
105,95.99,94.42,6
101,96.09,94.48,6
101,96.19,94.55,6
102,96.30,94.62,6
101,96.40,94.68,6
103,96.53,94.77,6
100,96.60,94.82,6
101,96.69,94.88,6
104,96.83,94.97,6
103,96.95,95.05,6
100,97.02,95.10,6
102,97.12,95.17,6
102,97.21,95.24,6
103,97.33,95.32,6
105,97.48,95.41,6
101,97.55,95.47,6
107,97.74,95.59,6
105,97.89,95.68,6
101,97.95,95.73,6
105,98.09,95.83,6
106,98.25,95.93,6
107,98.42,96.04,6
105,98.55,96.13,6
108,98.74,96.25,6
109,98.95,96.37,6
106,99.09,96.47,6
105,99.21,96.56,6
105,99.32,96.64,6
104,99.42,96.71,6
107,99.57,96.82,6
105,99.68,96.90,6
107,99.82,97.00,6
105,99.93,97.08,6
105,100.03,97.16,6
105,100.13,97.24,6
106,100.25,97.32,6
106,100.36,97.41,6
104,100.43,97.48,6
104,100.51,97.54,6
104,100.58,97.61,6
104,100.64,97.67,6
106,100.75,97.75,6
105,100.84,97.83,6
104,100.90,97.89,6
105,100.98,97.96,6
108,101.12,98.06,6
106,101.22,98.14,6
108,101.35,98.24,6
105,101.43,98.31,6
104,101.48,98.36,6
105,101.55,98.43,6
105,101.62,98.49,6
105,101.69,98.56,6
106,101.77,98.63,6
106,101.86,98.71,6
108,101.98,98.80,6
105,102.04,98.86,6
104,102.08,98.91,6
108,102.20,99.00,6
106,102.27,99.07,6
106,102.35,99.14,6
105,102.40,99.20,6
105,102.45,99.26,6
106,102.52,99.33,6
108,102.63,99.41,6
105,102.68,99.47,6
105,102.73,99.53,6
108,102.83,99.61,6
108,102.94,99.69,6
108,103.04,99.78,6
110,103.18,99.88,6
108,103.27,99.96,6
111,103.43,100.07,6
107,103.50,100.14,6
106,103.55,100.20,6
107,103.62,100.27,6
109,103.73,100.35,6
109,103.83,100.44,6
111,103.97,100.55,6
109,104.08,100.63,6
111,104.21,100.73,6
109,104.31,100.82,6
110,104.42,100.91,6
111,104.55,101.01,6
109,104.64,101.09,6
115,104.85,101.23,6
109,104.93,101.31,6
109,105.02,101.38,6
109,105.09,101.46,6
114,105.27,101.59,6
111,105.39,101.68,6
109,105.46,101.75,6
109,105.53,101.83,6
111,105.64,101.92,6
111,105.75,102.01,6
109,105.81,102.08,6
110,105.90,102.16,6
111,106.00,102.25,6
111,106.10,102.33,6
109,106.16,102.40,6
111,106.25,102.49,6
109,106.31,102.55,6
111,106.40,102.64,6
109,106.45,102.70,6
110,106.52,102.77,6
109,106.57,102.83,6
111,106.66,102.92,6
111,106.75,103.00,6
111,106.83,103.08,6
113,106.96,103.18,6
112,107.06,103.26,6
114,107.20,103.37,6
115,107.35,103.49,6
111,107.43,103.56,6
117,107.62,103.70,6
113,107.73,103.79,6
117,107.91,103.92,6
115,108.05,104.03,6
115,108.19,104.14,6
114,108.31,104.24,6
119,108.52,104.39,6
115,108.65,104.50,6
116,108.80,104.61,6
114,108.90,104.70,6
115,109.02,104.81,6
117,109.18,104.93,6
124,109.48,105.12,6
118,109.65,105.25,6
115,109.76,105.35,6
117,109.90,105.46,6
120,110.10,105.61,6
118,110.26,105.73,6
119,110.44,105.86,6
119,110.61,106.00,6
121,110.82,106.15,6
117,110.94,106.25,6
118,111.08,106.37,6
120,111.26,106.51,6
118,111.39,106.62,6
119,111.55,106.75,6
121,111.74,106.89,6
121,111.92,107.03,6
125,112.18,107.21,6
120,112.34,107.34,6
119,112.47,107.45,6
122,112.66,107.60,6
121,112.83,107.73,6
119,112.95,107.85,6
123,113.15,108.00,6
123,113.35,108.15,6
122,113.52,108.29,6
120,113.65,108.40,6
126,113.90,108.58,6
122,114.06,108.71,6
123,114.24,108.86,6
123,114.42,109.00,6
121,114.55,109.12,6
121,114.68,109.24,6
127,114.92,109.42,6
122,115.06,109.54,6
124,115.24,109.69,6
122,115.38,109.81,6
125,115.57,109.96,6
127,115.80,110.13,6
125,115.98,110.28,6
123,116.12,110.41,6
125,116.30,110.55,6
130,116.58,110.75,6
128,116.80,110.92,6
129,117.05,111.10,6
125,117.21,111.24,6
128,117.42,111.41,6
127,117.61,111.56,6
132,117.90,111.77,6
127,118.08,111.92,6
127,118.26,112.07,6
128,118.46,112.23,6
126,118.61,112.37,6
130,118.84,112.54,6
133,119.12,112.75,6
136,119.46,112.98,6
133,119.73,113.18,6
129,119.91,113.34,6
140,120.31,113.61,6
141,120.73,113.88,6
137,121.05,114.11,6
134,121.31,114.31,6
134,121.57,114.51,6
133,121.80,114.69,6
135,122.06,114.89,6
133,122.28,115.08,6
136,122.55,115.29,6
138,122.86,115.51,6
140,123.20,115.76,6
137,123.48,115.97,6
137,123.75,116.18,6
137,124.02,116.39,6
141,124.36,116.63,6
140,124.67,116.87,6
139,124.95,117.09,6
143,125.32,117.35,6
138,125.57,117.55,6
140,125.86,117.78,6
139,126.12,117.99,6
139,126.38,118.20,6
141,126.67,118.43,6
139,126.92,118.64,6
139,127.16,118.84,6
142,127.46,119.07,6
137,127.65,119.25,6
143,127.95,119.49,6
140,128.19,119.69,6
142,128.47,119.92,6
140,128.70,120.12,6
141,128.95,120.33,6
139,129.15,120.51,6
137,129.31,120.68,6
143,129.58,120.90,6
142,129.83,121.11,6
149,130.21,121.39,6
143,130.47,121.61,6
143,130.72,121.82,6
143,130.96,122.03,6
143,131.20,122.24,6
142,131.42,122.44,6
141,131.61,122.62,6
146,131.90,122.86,6
143,132.12,123.06,6
141,132.30,123.24,6
143,132.51,123.44,6
143,132.72,123.63,6
142,132.91,123.82,6
143,133.11,124.01,6
144,133.33,124.21,6
149,133.64,124.46,6
147,133.91,124.68,6
147,134.17,124.90,6
144,134.37,125.10,6
143,134.54,125.27,6
145,134.75,125.47,6
144,134.93,125.66,6
145,135.14,125.85,6
149,135.41,126.08,6
144,135.58,126.26,6
145,135.77,126.45,6
149,136.04,126.67,6
151,136.34,126.92,6
146,136.53,127.11,6
148,136.76,127.32,6
149,137.00,127.53,6
149,137.24,127.75,6
149,137.48,127.96,6
149,137.71,128.17,6
148,137.92,128.37,6
148,138.12,128.57,6
147,138.29,128.75,6
148,138.49,128.94,6
148,138.68,129.13,6
146,138.83,129.30,6
146,138.97,129.47,6
147,139.13,129.64,6
145,139.25,129.80,6
145,139.36,129.95,6
147,139.51,130.12,6
146,139.64,130.28,6
148,139.81,130.46,6
145,139.92,130.60,6
149,140.10,130.79,6
147,140.24,130.95,6
147,140.37,131.11,6
149,140.54,131.29,6
148,140.69,131.45,6
146,140.80,131.60,6
147,140.92,131.75,6
147,141.04,131.91,6
148,141.18,132.07,6
147,141.30,132.22,6
146,141.39,132.35,6
145,141.47,132.48,6
148,141.60,132.64,6
146,141.68,132.77,6
145,141.75,132.89,6
146,141.84,133.02,6
147,141.94,133.16,6
145,142.00,133.28,6
145,142.06,133.40,6
145,142.12,133.51,6
148,142.24,133.66,6
149,142.37,133.81,6
148,142.48,133.95,6
146,142.55,134.08,6
145,142.60,134.18,6
145,142.65,134.29,6
146,142.72,134.41,6
145,142.76,134.52,6
145,142.81,134.62,6
143,142.81,134.70,6
145,142.86,134.81,6
145,142.90,134.91,6
145,142.94,135.01,6
145,142.98,135.11,6
143,142.98,135.19,6
144,143.00,135.28,6
144,143.02,135.36,6
143,143.02,135.44,6
143,143.02,135.52,6
143,143.02,135.59,6
143,143.02,135.67,6
145,143.06,135.76,6
143,143.06,135.83,6
143,143.06,135.90,6
143,143.06,135.97,6
142,143.04,136.03,6
143,143.04,136.10,6
143,143.03,136.17,6
143,143.03,136.24,6
141,142.99,136.29,6
141,142.95,136.34,6
141,142.91,136.38,6
141,142.88,136.43,6
141,142.84,136.47,6
142,142.82,136.53,6
141,142.79,136.57,6
141,142.75,136.62,6
140,142.69,136.65,6
140,142.64,136.69,6
140,142.59,136.72,6
139,142.52,136.74,6
140,142.47,136.77,6
141,142.44,136.82,6
140,142.39,136.85,6
139,142.32,136.87,6
139,142.25,136.89,6
140,142.21,136.92,6
140,142.16,136.95,6
142,142.16,137.00,6
141,142.14,137.04,6
139,142.08,137.06,6
139,142.01,137.08,6
138,141.93,137.09,6
140,141.89,137.12,6
137,141.80,137.12,6
138,141.72,137.13,6
141,141.71,137.17,6
139,141.65,137.19,6
137,141.56,137.18,6
137,141.47,137.18,6
137,141.38,137.18,6
137,141.29,137.18,6
140,141.27,137.21,6
137,141.18,137.20,6
138,141.12,137.21,6
137,141.03,137.21,6
137,140.95,137.21,6
137,140.87,137.21,6
137,140.80,137.20,6
137,140.72,137.20,6
137,140.65,137.20,6
137,140.57,137.20,6
137,140.50,137.20,6
137,140.43,137.19,6
137,140.36,137.19,6
136,140.28,137.18,6
136,140.19,137.17,6
137,140.13,137.17,6
135,140.02,137.14,6
136,139.94,137.13,6
135,139.85,137.11,6
135,139.75,137.09,6
135,139.65,137.07,6
135,139.56,137.05,6
135,139.47,137.03,6
134,139.36,137.00,6
133,139.23,136.96,6
133,139.11,136.92,6
135,139.03,136.90,6
134,138.93,136.87,6
133,138.81,136.83,6
133,138.69,136.79,6
133,138.58,136.76,6
133,138.47,136.72,6
133,138.36,136.68,6
133,138.25,136.64,6
132,138.12,136.60,6
131,137.98,136.54,6
132,137.86,136.50,6
133,137.76,136.46,6
133,137.67,136.43,6
131,137.54,136.37,6
131,137.41,136.32,6
131,137.28,136.27,6
131,137.15,136.21,6
130,137.01,136.15,6
131,136.89,136.10,6
129,136.73,136.03,6
131,136.62,135.98,6
129,136.46,135.91,6
129,136.31,135.84,6
129,136.17,135.77,6
129,136.02,135.70,6
129,135.88,135.64,6
129,135.75,135.57,6
129,135.61,135.50,7
128,135.46,135.43,7
129,135.33,135.36,8
129,135.20,135.30,8
128,135.06,135.23,8
129,134.94,135.17,8
128,134.80,135.09,8
127,134.64,135.01,8
127,134.49,134.93,8
129,134.38,134.87,8
129,134.27,134.81,8
128,134.15,134.75,8
128,134.02,134.68,8
127,133.88,134.60,8
128,133.77,134.54,8
127,133.63,134.46,8
126,133.48,134.38,8
129,133.39,134.32,8
127,133.26,134.25,8
127,133.14,134.18,8
125,132.97,134.09,8
128,132.87,134.02,8
126,132.74,133.94,8
127,132.62,133.87,8
127,132.51,133.81,8
126,132.38,133.73,8
125,132.23,133.64,8
129,132.17,133.59,8
125,132.02,133.51,8
125,131.88,133.42,8
125,131.75,133.34,8
126,131.63,133.27,8
127,131.54,133.20,8
125,131.41,133.12,8
125,131.28,133.04,8
125,131.15,132.96,8
126,131.05,132.89,8
125,130.93,132.81,8
126,130.83,132.74,8
125,130.71,132.67,8
126,130.62,132.60,8
125,130.51,132.52,8
124,130.38,132.44,8
123,130.23,132.34,8
125,130.13,132.27,8
126,130.04,132.21,8
125,129.94,132.13,8
124,129.82,132.05,8
123,129.69,131.96,8
124,129.57,131.88,8
125,129.48,131.81,8
123,129.35,131.73,8
123,129.22,131.64,8
123,129.10,131.55,8
122,128.96,131.46,8
124,128.86,131.38,8
123,128.74,131.30,8
121,128.59,131.20,8
123,128.48,131.11,8
123,128.37,131.03,8
124,128.28,130.96,8
123,128.17,130.88,8
121,128.03,130.78,8
123,127.93,130.71,8
122,127.81,130.62,8
121,127.67,130.52,8
121,127.54,130.43,8
121,127.41,130.33,8
121,127.28,130.24,8
121,127.16,130.15,8
121,127.03,130.06,8
121,126.91,129.97,8
121,126.79,129.88,8
122,126.70,129.80,8
122,126.60,129.72,8
121,126.49,129.63,8
120,126.36,129.54,8
121,126.25,129.45,8
122,126.17,129.38,8
121,126.07,129.29,8
120,125.95,129.20,8
121,125.85,129.12,8
120,125.73,129.03,8
121,125.63,128.95,8
119,125.50,128.85,8
119,125.37,128.75,8
120,125.26,128.66,8
120,125.16,128.57,8
119,125.04,128.48,8
120,124.94,128.39,8
119,124.82,128.30,8
119,124.70,128.21,8
121,124.63,128.13,8
120,124.53,128.05,8
119,124.42,127.96,8
119,124.31,127.87,8
120,124.23,127.79,8
120,124.14,127.72,8
120,124.06,127.64,8
119,123.96,127.55,8
117,123.82,127.45,8
119,123.72,127.36,8
119,123.63,127.28,8
118,123.52,127.19,8
119,123.43,127.10,8
117,123.30,127.00,8
117,123.17,126.90,8
117,123.05,126.80,8
117,122.93,126.71,8
118,122.83,126.62,8
118,122.73,126.53,8
117,122.62,126.44,8
117,122.51,126.34,8
115,122.36,126.23,8
115,122.21,126.12,8
116,122.08,126.02,8
117,121.98,125.93,8
116,121.86,125.83,8
115,121.73,125.72,8
116,121.61,125.62,8
116,121.50,125.53,8
117,121.41,125.44,8
115,121.28,125.34,8
115,121.16,125.23,8
117,121.07,125.15,8
115,120.95,125.05,8
114,120.81,124.94,8
115,120.70,124.84,8
114,120.56,124.73,8
116,120.47,124.64,8
116,120.38,124.56,8
114,120.25,124.45,8
113,120.11,124.34,8
115,120.01,124.24,8
117,119.95,124.17,8
115,119.85,124.08,8
117,119.79,124.01,8
115,119.69,123.92,8
114,119.58,123.82,8
115,119.49,123.73,8
114,119.38,123.63,8
115,119.29,123.55,8
114,119.19,123.45,8
115,119.10,123.37,8
115,119.02,123.28,8
116,118.96,123.21,8
114,118.86,123.12,8
113,118.74,123.02,8
116,118.69,122.95,8
115,118.61,122.87,8
114,118.52,122.78,8
114,118.43,122.69,8
115,118.36,122.61,8
116,118.32,122.55,8
113,118.21,122.45,8
114,118.13,122.37,8
113,118.02,122.27,8
114,117.94,122.19,8
113,117.84,122.10,8
113,117.75,122.01,8
113,117.65,121.92,8
112,117.54,121.82,8
113,117.45,121.73,8
112,117.34,121.63,8
111,117.21,121.53,8
112,117.11,121.43,8
111,116.99,121.33,8
112,116.89,121.23,8
115,116.85,121.17,8
113,116.77,121.09,8
113,116.70,121.01,8
113,116.62,120.93,8
113,116.55,120.85,8
111,116.44,120.75,8
112,116.35,120.66,8
113,116.28,120.59,8
116,116.28,120.54,8
111,116.17,120.45,8
111,116.07,120.35,8
111,115.97,120.26,8
111,115.87,120.17,8
113,115.81,120.09,8
111,115.71,120.00,8
113,115.66,119.93,8
113,115.61,119.86,8
113,115.55,119.80,8
111,115.46,119.71,8
111,115.37,119.62,8
109,115.25,119.51,8
110,115.14,119.42,8
111,115.06,119.33,8
110,114.96,119.24,8
108,114.82,119.13,8
109,114.70,119.03,8
111,114.63,118.95,8
110,114.54,118.86,8
109,114.42,118.76,8
109,114.32,118.66,8
110,114.23,118.58,8
111,114.17,118.50,8
111,114.10,118.42,8
109,114.00,118.33,8
109,113.90,118.24,8
109,113.80,118.14,8
109,113.71,118.05,8
111,113.65,117.98,8
109,113.56,117.89,8
108,113.45,117.79,8
109,113.36,117.71,8
109,113.27,117.62,8
109,113.19,117.53,8
109,113.10,117.45,8
107,112.98,117.34,8
109,112.90,117.26,8
109,112.82,117.18,8
108,112.73,117.08,8
107,112.61,116.98,8
109,112.54,116.90,8
109,112.47,116.83,8
108,112.38,116.74,8
107,112.27,116.64,8
107,112.17,116.54,8
108,112.08,116.46,8
106,111.96,116.35,8
107,111.86,116.26,8
107,111.76,116.17,8
108,111.69,116.09,8
107,111.60,115.99,8
107,111.50,115.90,8
106,111.39,115.81,8
107,111.31,115.72,8
106,111.20,115.62,8
107,111.12,115.53,8
105,110.99,115.43,8
105,110.87,115.32,8
105,110.76,115.22,8
105,110.64,115.12,8
105,110.53,115.02,8
106,110.44,114.93,8
105,110.33,114.83,8
106,110.24,114.74,8
108,110.20,114.67,8
106,110.11,114.59,8
105,110.01,114.49,8
105,109.91,114.40,8
107,109.85,114.32,8
107,109.80,114.25,8
106,109.72,114.17,8
105,109.63,114.07,8
105,109.53,113.98,8
106,109.46,113.90,8
104,109.35,113.80,8
105,109.27,113.72,8
105,109.18,113.63,8
104,109.08,113.53,8
107,109.04,113.47,8
106,108.97,113.39,8
104,108.88,113.30,8
104,108.78,113.21,8
103,108.66,113.10,8
105,108.59,113.02,8
105,108.52,112.94,8
104,108.43,112.85,8
104,108.34,112.76,8
105,108.27,112.69,8
105,108.21,112.61,8
104,108.12,112.52,8
104,108.04,112.44,8
104,107.96,112.35,8
104,107.88,112.27,8
105,107.82,112.20,8
103,107.73,112.11,8
103,107.63,112.02,8
103,107.54,111.92,8
103,107.45,111.84,8
103,107.36,111.75,8
103,107.27,111.66,8
103,107.19,111.57,8
103,107.10,111.49,8
103,107.02,111.40,8
102,106.92,111.31,8
104,106.86,111.24,8
102,106.76,111.14,8
101,106.65,111.04,8
102,106.56,110.95,8
102,106.47,110.86,8
99,106.32,110.74,8
103,106.25,110.67,8
102,106.16,110.58,8
104,106.12,110.51,8
101,106.02,110.42,8
102,105.94,110.33,8
103,105.88,110.26,8
103,105.82,110.19,8
102,105.75,110.11,8
101,105.65,110.02,8
101,105.56,109.92,8
102,105.49,109.85,8
103,105.44,109.78,8
101,105.35,109.69,8
101,105.26,109.60,8
101,105.18,109.52,8
103,105.13,109.45,8
101,105.05,109.37,8
101,104.97,109.28,8
101,104.89,109.20,8
101,104.81,109.12,8
100,104.72,109.03,8
101,104.64,108.95,8
105,104.65,108.91,8
101,104.58,108.83,8
101,104.50,108.75,8
101,104.43,108.67,8
101,104.36,108.60,8
101,104.30,108.52,8
101,104.23,108.44,8
101,104.17,108.37,8
100,104.08,108.29,8
101,104.02,108.21,8
100,103.94,108.13,8
101,103.88,108.06,8
101,103.83,107.99,8
99,103.73,107.90,8
101,103.67,107.83,8
99,103.58,107.74,8
100,103.51,107.67,8
102,103.48,107.61,8
99,103.39,107.52,8
99,103.30,107.44,8
100,103.24,107.36,8
101,103.19,107.30,8
99,103.11,107.22,8
99,103.02,107.13,8
99,102.94,107.05,8
99,102.87,106.97,8
98,102.77,106.88,8
100,102.71,106.81,8
99,102.64,106.74,8
99,102.57,106.66,8
99,102.49,106.58,8
100,102.44,106.52,8
99,102.38,106.44,8
98,102.29,106.36,8
98,102.20,106.27,8
99,102.14,106.20,8
97,102.04,106.11,8
97,101.93,106.02,8
98,101.86,105.94,8
98,101.78,105.86,8
98,101.70,105.78,8
98,101.63,105.70,8
98,101.56,105.62,8
96,101.45,105.53,8
98,101.38,105.45,8
97,101.29,105.37,8
96,101.18,105.27,8
97,101.10,105.19,8
98,101.04,105.12,8
97,100.96,105.04,8
97,100.88,104.96,8
97,100.80,104.88,8
96,100.70,104.79,8
96,100.61,104.70,8
98,100.56,104.63,8
98,100.51,104.57,8
96,100.42,104.48,8
96,100.33,104.40,8
96,100.24,104.31,8
97,100.18,104.24,8
96,100.09,104.16,8
97,100.03,104.09,8
96,99.95,104.01,8
95,99.85,103.92,8
97,99.79,103.85,8
97,99.74,103.78,8
97,99.68,103.71,8
97,99.63,103.64,8
96,99.56,103.57,8
96,99.49,103.49,8
97,99.44,103.43,8
97,99.39,103.36,8
96,99.32,103.29,8
95,99.23,103.21,8
97,99.19,103.14,8
96,99.13,103.07,8
96,99.06,103.00,8
95,98.98,102.92,8
95,98.90,102.84,8
95,98.82,102.76,8
96,98.77,102.70,8
97,98.73,102.64,8
96,98.68,102.57,8
95,98.60,102.50,8
95,98.53,102.42,8
95,98.46,102.35,8
99,98.47,102.31,8
97,98.44,102.26,8
95,98.37,102.19,8
96,98.33,102.13,8
96,98.28,102.07,8
95,98.21,101.99,8
96,98.17,101.93,8
95,98.11,101.87,8
96,98.06,101.81,8
96,98.02,101.75,8
96,97.98,101.69,8
95,97.92,101.62,8
96,97.88,101.57,8
95,97.83,101.50,8
95,97.77,101.44,8
95,97.72,101.37,8
96,97.68,101.32,8
96,97.65,101.27,8
94,97.57,101.19,8
95,97.52,101.13,8
95,97.47,101.07,8
97,97.46,101.03,8
95,97.41,100.97,8
95,97.37,100.91,8
95,97.32,100.85,8
95,97.27,100.79,8
95,97.23,100.73,8
95,97.18,100.68,8
93,97.10,100.60,8
93,97.02,100.52,8
95,96.98,100.47,8
95,96.94,100.41,8
95,96.90,100.36,8
94,96.84,100.30,8
96,96.82,100.25,8
95,96.79,100.20,8
96,96.77,100.16,8
94,96.72,100.10,8
97,96.72,100.07,8
94,96.67,100.01,8
95,96.63,99.96,8
95,96.60,99.91,8
94,96.55,99.85,8
94,96.50,99.79,8
94,96.45,99.73,8
95,96.42,99.68,8
95,96.39,99.64,8
94,96.34,99.58,8
94,96.30,99.52,8
93,96.23,99.46,8
96,96.23,99.42,8
94,96.18,99.37,8
94,96.14,99.32,8
95,96.11,99.27,8
93,96.05,99.21,8
94,96.01,99.16,8
93,95.95,99.10,8
95,95.93,99.06,8
94,95.89,99.01,8
93,95.84,98.95,8
94,95.80,98.90,8
92,95.72,98.83,8
94,95.69,98.78,8
94,95.65,98.73,8
94,95.62,98.68,8
94,95.59,98.64,8
94,95.56,98.59,8
94,95.53,98.54,8
94,95.50,98.50,8
93,95.45,98.44,8
93,95.40,98.39,8
92,95.33,98.33,8
92,95.26,98.26,8
92,95.20,98.20,8
91,95.11,98.13,8
94,95.09,98.09,8
94,95.07,98.05,8
92,95.01,97.99,8
93,94.97,97.94,8
94,94.95,97.90,8
94,94.93,97.86,8
94,94.91,97.82,8
92,94.85,97.76,8
92,94.80,97.70,8
92,94.74,97.65,8
93,94.70,97.60,8
94,94.69,97.56,8
92,94.64,97.51,8
92,94.58,97.45,8
93,94.55,97.41,8
94,94.54,97.37,8
92,94.49,97.32,8
94,94.48,97.29,8
92,94.43,97.23,8
91,94.36,97.17,8
96,94.39,97.16,8
94,94.39,97.13,8
94,94.38,97.10,8
92,94.33,97.05,8
92,94.29,97.00,8
93,94.26,96.96,8
93,94.23,96.92,8
92,94.19,96.87,8
93,94.17,96.83,8
94,94.16,96.80,8
93,94.14,96.76,8
93,94.12,96.72,8
92,94.07,96.68,8
92,94.03,96.63,8
93,94.01,96.59,8
92,93.97,96.55,8
94,93.97,96.52,8
94,93.97,96.50,8
93,93.95,96.46,8
93,93.93,96.43,8
92,93.90,96.38,8
92,93.86,96.34,8
92,93.82,96.30,8
94,93.82,96.27,8
94,93.83,96.25,8
92,93.79,96.21,8
93,93.78,96.18,8
93,93.76,96.14,8
93,93.74,96.11,8
93,93.73,96.08,8
93,93.72,96.05,8
93,93.70,96.02,8
92,93.67,95.98,8
94,93.67,95.96,8
93,93.66,95.93,8
94,93.67,95.91,8
93,93.65,95.88,8
93,93.64,95.85,8
94,93.65,95.84,8
94,93.65,95.82,8
94,93.66,95.80,8
92,93.63,95.76,8
94,93.64,95.74,8
93,93.62,95.72,8
92,93.59,95.68,8
92,93.56,95.64,8
92,93.53,95.61,8
93,93.52,95.58,8
92,93.49,95.54,8
94,93.50,95.53,8
95,93.53,95.52,8
94,93.54,95.51,8
92,93.51,95.47,8
94,93.52,95.46,8
96,93.57,95.46,8
93,93.55,95.44,8
93,93.54,95.41,8
92,93.51,95.38,8
93,93.50,95.36,8
94,93.51,95.34,8
94,93.52,95.33,8
92,93.49,95.30,8
93,93.48,95.27,8
93,93.47,95.25,8
92,93.44,95.22,8
94,93.45,95.21,8
93,93.44,95.18,8
92,93.42,95.15,8
92,93.39,95.12,8
92,93.36,95.09,8
93,93.35,95.07,8
92,93.33,95.04,8
91,93.28,95.00,8
90,93.21,94.95,8
92,93.19,94.92,8
94,93.21,94.91,8
93,93.20,94.89,8
90,93.14,94.84,8
93,93.13,94.82,8
92,93.11,94.79,8
92,93.09,94.77,8
92,93.07,94.74,8
92,93.05,94.71,8
94,93.07,94.70,8
92,93.04,94.68,8
92,93.02,94.65,8
94,93.04,94.64,8
93,93.04,94.63,8
92,93.02,94.60,8
92,93.00,94.57,8
92,92.98,94.55,8
92,92.96,94.52,8
90,92.90,94.48,8
92,92.88,94.45,8
91,92.85,94.42,8
92,92.83,94.39,8
92,92.81,94.37,8
92,92.80,94.35,8
92,92.78,94.32,8
91,92.74,94.29,8
90,92.69,94.25,8
93,92.70,94.23,8
92,92.68,94.21,8
90,92.63,94.17,8
92,92.62,94.15,8
93,92.62,94.14,8
91,92.59,94.11,8
92,92.58,94.08,8
90,92.53,94.04,8
92,92.52,94.02,8
92,92.51,94.00,8
92,92.50,93.98,8
90,92.45,93.94,8
92,92.44,93.92,8
91,92.41,93.89,8
94,92.44,93.90,8
90,92.39,93.86,8
90,92.34,93.82,8
91,92.32,93.79,8
92,92.31,93.77,8
92,92.30,93.75,8
90,92.26,93.72,8
91,92.23,93.69,8
92,92.23,93.67,8
92,92.22,93.66,8
92,92.22,93.64,8
91,92.20,93.61,8
92,92.19,93.60,8
92,92.19,93.58,8
90,92.14,93.55,8
91,92.12,93.52,8
87,92.02,93.45,8
92,92.02,93.44,8
91,92.00,93.42,8
91,91.98,93.39,8
90,91.94,93.36,8
90,91.90,93.32,8
92,91.90,93.31,8
91,91.88,93.29,8
92,91.89,93.27,8
92,91.89,93.26,8
92,91.89,93.25,8
93,91.91,93.25,8
93,91.93,93.24,8
92,91.94,93.23,8
90,91.90,93.20,8
91,91.88,93.18,8
92,91.88,93.17,8
93,91.90,93.16,8
92,91.91,93.15,8
93,91.93,93.15,8
93,91.95,93.15,8
92,91.95,93.14,8
93,91.97,93.14,8
94,92.01,93.15,8
92,92.01,93.13,8
93,92.03,93.13,8
94,92.07,93.14,8
96,92.15,93.17,8
93,92.17,93.17,8
94,92.20,93.18,8
92,92.20,93.16,8
93,92.21,93.16,8
92,92.21,93.15,8
94,92.25,93.16,8
92,92.24,93.15,8
93,92.26,93.15,8
95,92.31,93.17,8
94,92.35,93.17,8
94,92.38,93.18,8
93,92.39,93.18,8
92,92.38,93.17,8
92,92.38,93.16,8
92,92.37,93.15,8
93,92.38,93.14,8
92,92.37,93.13,8
91,92.35,93.11,8
90,92.30,93.08,8
93,92.31,93.08,8
92,92.31,93.07,8
92,92.30,93.06,8
92,92.29,93.05,8
92,92.29,93.04,8
91,92.26,93.02,8
90,92.22,92.99,8
92,92.21,92.98,8
92,92.21,92.97,8
91,92.18,92.95,8
92,92.18,92.94,8
90,92.14,92.91,8
92,92.13,92.90,8
94,92.17,92.91,8
90,92.13,92.88,8
92,92.13,92.87,8
92,92.12,92.86,8
91,92.10,92.84,8
90,92.06,92.82,8
92,92.06,92.81,8
91,92.04,92.79,8
91,92.02,92.77,8
90,91.98,92.74,8
92,91.98,92.74,8
90,91.94,92.71,8
90,91.90,92.68,8
90,91.86,92.66,8
94,91.90,92.67,8
91,91.88,92.65,8
92,91.89,92.65,8
90,91.85,92.62,8
90,91.81,92.59,8
91,91.80,92.58,8
90,91.76,92.55,8
90,91.72,92.53,8
92,91.73,92.52,8
91,91.72,92.51,8
92,91.72,92.50,8
91,91.71,92.49,8
90,91.67,92.46,8
91,91.66,92.45,8
90,91.63,92.42,8
92,91.63,92.42,8
92,91.64,92.41,8
91,91.63,92.40,8
92,91.64,92.39,8
90,91.60,92.37,8
92,91.61,92.37,8
91,91.60,92.35,8
90,91.57,92.33,8
90,91.54,92.31,8
90,91.50,92.28,8
94,91.55,92.30,8
90,91.52,92.28,8
90,91.49,92.26,8
92,91.50,92.25,8
90,91.47,92.23,8
90,91.44,92.21,8
92,91.45,92.21,8
89,91.41,92.17,8
90,91.38,92.15,8
89,91.33,92.12,8
90,91.30,92.10,8
90,91.28,92.08,8
91,91.27,92.07,8
92,91.29,92.07,8
90,91.26,92.05,8
91,91.26,92.04,8
88,91.19,92.00,8
93,91.23,92.01,8
90,91.20,91.99,8
90,91.18,91.97,8
90,91.15,91.95,8
89,91.11,91.92,8
89,91.07,91.89,8
90,91.05,91.87,8
90,91.03,91.85,8
89,90.99,91.82,8
90,90.97,91.80,8
91,90.97,91.79,8
93,91.01,91.81,8
93,91.05,91.82,8
92,91.07,91.82,8
90,91.05,91.80,8
89,91.00,91.77,8
92,91.02,91.78,8
90,91.00,91.76,8
90,90.98,91.74,8
90,90.96,91.72,8
90,90.94,91.71,8
92,90.97,91.71,8
90,90.95,91.69,8
94,91.01,91.72,8
89,90.97,91.69,8
90,90.95,91.67,8
90,90.93,91.65,8
90,90.91,91.64,8
90,90.89,91.62,8
90,90.87,91.61,8
90,90.86,91.59,8
92,90.88,91.59,8
91,90.88,91.59,8
90,90.86,91.57,8
92,90.89,91.58,8
91,90.89,91.57,8
90,90.87,91.55,8
90,90.85,91.54,8
91,90.86,91.53,8
92,90.88,91.54,8
92,90.90,91.54,8
94,90.96,91.57,8
91,90.97,91.56,8
92,90.99,91.57,8
91,90.99,91.56,8
91,90.99,91.56,8
92,91.01,91.56,8
91,91.01,91.55,8
94,91.07,91.58,8
94,91.13,91.60,8
92,91.14,91.61,8
92,91.16,91.61,8
91,91.16,91.60,8
90,91.13,91.59,8
91,91.13,91.58,8
92,91.15,91.59,8
95,91.23,91.62,8
92,91.24,91.62,8
90,91.22,91.61,8
90,91.19,91.59,8
90,91.17,91.58,8
90,91.14,91.56,8
94,91.20,91.59,8
93,91.24,91.60,8
94,91.29,91.62,8
91,91.29,91.62,8
94,91.34,91.64,8
93,91.37,91.65,8
94,91.43,91.68,8
92,91.44,91.68,8
92,91.45,91.68,8
91,91.44,91.68,8
92,91.45,91.68,8
93,91.48,91.69,8
94,91.53,91.72,8
95,91.60,91.75,8
93,91.63,91.76,8
94,91.68,91.78,8
95,91.74,91.82,8
92,91.75,91.82,8
92,91.75,91.82,8
93,91.78,91.83,8
94,91.82,91.85,8
93,91.85,91.87,8
92,91.85,91.87,8
92,91.85,91.87,8
95,91.92,91.90,8
93,91.94,91.91,8
95,92.00,91.94,8
94,92.04,91.96,8
92,92.04,91.96,8
94,92.08,91.98,8
97,92.18,92.03,8
92,92.17,92.03,8
94,92.21,92.05,8
96,92.28,92.09,8
97,92.38,92.14,8
94,92.41,92.16,8
95,92.46,92.19,8
93,92.47,92.20,8
97,92.56,92.24,8
94,92.59,92.26,8
94,92.62,92.28,8
98,92.73,92.34,8
96,92.79,92.37,8
95,92.84,92.40,8
94,92.86,92.41,8
95,92.90,92.44,8
96,92.97,92.48,8
93,92.97,92.48,8
94,92.99,92.50,8
95,93.03,92.52,8
95,93.07,92.55,8
93,93.07,92.55,8
91,93.02,92.54,8
92,93.00,92.53,8
94,93.02,92.54,8
94,93.04,92.56,8
94,93.06,92.57,8
95,93.10,92.60,8
95,93.14,92.62,8
94,93.16,92.64,8
94,93.17,92.65,8
94,93.19,92.66,8
95,93.23,92.69,8
94,93.24,92.70,8
96,93.30,92.73,8
95,93.33,92.76,8
95,93.36,92.78,8
94,93.38,92.79,8
94,93.39,92.80,8
94,93.40,92.81,8
94,93.41,92.83,8
94,93.43,92.84,8
96,93.48,92.87,8
95,93.51,92.89,8
97,93.58,92.93,8
96,93.63,92.96,8
94,93.63,92.97,8
100,93.76,93.04,8
99,93.87,93.10,8
95,93.89,93.12,8
96,93.93,93.15,8
94,93.93,93.16,8
96,93.97,93.19,8
97,94.03,93.23,8
98,94.11,93.27,8
94,94.11,93.28,8
98,94.19,93.33,8
95,94.20,93.34,8
95,94.22,93.36,8
96,94.26,93.39,8
96,94.29,93.41,8
95,94.31,93.43,8
95,94.32,93.44,8
97,94.37,93.48,8
95,94.39,93.50,8
96,94.42,93.52,8
95,94.43,93.54,8
96,94.46,93.56,8
98,94.53,93.60,8
95,94.54,93.62,8
95,94.55,93.63,8
94,94.54,93.64,8
100,94.65,93.70,8
96,94.68,93.72,8
96,94.70,93.75,8
95,94.71,93.76,8
96,94.73,93.78,8
97,94.78,93.81,8
97,94.82,93.84,8
98,94.89,93.89,8
96,94.91,93.91,8
99,94.99,93.96,8
96,95.01,93.98,8
98,95.07,94.02,8
100,95.17,94.08,8
98,95.23,94.12,8
96,95.24,94.14,8
98,95.30,94.18,8
100,95.39,94.23,8
102,95.52,94.31,8
98,95.57,94.35,8
98,95.62,94.38,8
99,95.69,94.43,8
98,95.73,94.47,8
98,95.78,94.50,8
96,95.78,94.52,8
102,95.91,94.59,8
101,96.01,94.66,8
99,96.07,94.70,8
99,96.13,94.74,8
98,96.17,94.77,8
104,96.32,94.87,8
99,96.38,94.91,8
99,96.43,94.95,8
100,96.50,95.00,8
99,96.55,95.04,8
101,96.64,95.10,8
100,96.71,95.15,8
99,96.75,95.19,8
99,96.80,95.22,8
102,96.90,95.29,8
101,96.98,95.35,8
100,97.04,95.40,8
99,97.08,95.43,8
100,97.14,95.48,8
99,97.18,95.51,8
100,97.24,95.56,8
99,97.27,95.59,8
99,97.30,95.63,8
100,97.36,95.67,8
98,97.37,95.69,8
99,97.40,95.73,8
99,97.44,95.76,8
102,97.53,95.82,8
102,97.62,95.88,8
104,97.74,95.96,8
99,97.77,96.00,8
104,97.89,96.08,8
103,98.00,96.14,8
102,98.08,96.20,8
103,98.17,96.27,8
100,98.21,96.31,8
100,98.25,96.35,8
105,98.38,96.43,8
103,98.47,96.50,8
104,98.59,96.57,8
101,98.63,96.62,8
104,98.74,96.69,8
