Teste de posicionamento 1(EMG ao centro do bíceps (Vermelho A, Verde B) + Ref no pulso) - 16/04/2024 - teste1 - 5 contrações
long frequencia = 1000;                 //frequência de aquisição do sinal, neste caso, 1000 sinais por segundo
float fator1 = 0.02, fator2 = 0.01;
float incerteza = 0.13;
float pico_basal = 130; // Mínimo para ser considerado um pico de contração
int filtro_horizontal=200000; //intervalo de 200ms valores não pode ter mais de 1 contração

Biceps_D,mediaMovel_1,mediaMovel_2,Contracao
127,2.54,1.27,0
128,5.05,2.54,0
129,7.53,3.80,0
129,9.96,5.05,0
127,12.30,6.27,0
127,14.59,7.48,0
127,16.84,8.68,0
127,19.04,9.86,0
126,21.18,11.02,0
126,23.28,12.17,0
129,25.39,13.34,0
127,27.43,14.48,0
127,29.42,15.60,0
126,31.35,16.70,0
129,33.30,17.83,0
128,35.20,18.93,0
128,37.05,20.02,0
127,38.85,21.09,0
126,40.59,22.14,0
128,42.34,23.20,0
127,44.04,24.24,0
126,45.67,25.25,0
127,47.30,26.27,0
128,48.92,27.29,0
127,50.48,28.28,0
127,52.01,29.27,0
127,53.51,30.25,0
128,55.00,31.23,0
127,56.44,32.18,0
129,57.89,33.15,0
126,59.25,34.08,0
130,60.67,35.04,0
127,61.99,35.96,0
128,63.31,36.88,0
126,64.57,37.77,0
127,65.81,38.66,0
127,67.04,39.55,0
127,68.24,40.42,0
125,69.37,41.27,0
126,70.51,42.11,0
128,71.66,42.97,0
126,72.74,43.80,0
126,73.81,44.63,0
125,74.83,45.43,0
127,75.87,46.25,0
127,76.90,47.05,0
127,77.90,47.85,0
127,78.88,48.64,0
125,79.80,49.41,0
128,80.77,50.19,0
126,81.67,50.95,0
126,82.56,51.70,0
127,83.45,52.45,0
127,84.32,53.20,0
127,85.17,53.94,0
127,86.01,54.67,0
126,86.81,55.38,0
127,87.61,56.10,0
125,88.36,56.79,0
126,89.11,57.48,0
125,89.83,58.15,0
125,90.53,58.82,0
127,91.26,59.51,0
125,91.94,60.16,0
126,92.62,60.82,0
125,93.27,61.46,0
126,93.92,62.11,0
127,94.58,62.75,0
125,95.19,63.38,0
126,95.81,64.00,0
127,96.43,64.63,0
125,97.00,65.24,0
125,97.56,65.83,0
125,98.11,66.43,0
123,98.61,66.99,0
126,99.16,67.58,0
125,99.67,68.16,0
125,100.18,68.72,0
125,100.68,69.29,0
127,101.20,69.86,0
125,101.68,70.42,0
125,102.15,70.96,0
124,102.58,71.49,0
127,103.07,72.05,0
125,103.51,72.58,0
126,103.96,73.11,0
124,104.36,73.62,0
125,104.77,74.13,0
126,105.20,74.65,0
124,105.57,75.15,0
124,105.94,75.63,0
125,106.32,76.13,0
126,106.72,76.63,0
124,107.06,77.10,0
124,107.40,77.57,0
126,107.77,78.05,0
125,108.12,78.52,0
125,108.46,78.99,0
124,108.77,79.44,0
125,109.09,79.89,0
124,109.39,80.33,0
124,109.68,80.77,0
124,109.97,81.20,0
129,110.35,81.68,0
125,110.64,82.11,0
125,110.93,82.54,0
124,111.19,82.96,0
126,111.49,83.39,0
126,111.78,83.81,0
124,112.02,84.22,0
124,112.26,84.61,0
127,112.56,85.04,0
124,112.78,85.43,0
124,113.01,85.81,0
125,113.25,86.21,0
124,113.46,86.58,0
126,113.71,86.98,0
125,113.94,87.36,0
124,114.14,87.72,0
127,114.40,88.12,0
126,114.63,88.50,0
124,114.82,88.85,0
124,115.00,89.20,0
124,115.18,89.55,0
124,115.36,89.89,0
125,115.55,90.25,0
124,115.72,90.58,0
124,115.89,90.92,0
125,116.07,91.26,0
124,116.23,91.59,0
124,116.38,91.91,0
124,116.53,92.23,0
126,116.72,92.57,0
125,116.89,92.89,0
124,117.03,93.20,0
125,117.19,93.52,0
126,117.37,93.85,0
125,117.52,94.16,0
124,117.65,94.46,0
124,117.78,94.75,0
126,117.94,95.06,0
123,118.04,95.34,0
124,118.16,95.63,0
123,118.26,95.90,0
126,118.41,96.21,0
124,118.52,96.48,0
124,118.63,96.76,0
125,118.76,97.04,0
126,118.91,97.33,0
127,119.07,97.63,0
124,119.17,97.89,0
124,119.26,98.15,0
126,119.40,98.43,0
124,119.49,98.69,0
124,119.58,98.94,0
123,119.65,99.18,0
124,119.74,99.43,0
126,119.86,99.69,0
122,119.90,99.92,0
124,119.99,100.16,0
125,120.09,100.41,0
124,120.16,100.64,0
125,120.26,100.89,0
121,120.28,101.09,0
126,120.39,101.34,0
125,120.48,101.57,0
124,120.55,101.80,0
123,120.60,102.01,0
125,120.69,102.24,0
124,120.76,102.46,0
123,120.80,102.66,0
123,120.84,102.87,0
124,120.91,103.08,0
124,120.97,103.29,0
125,121.05,103.50,0
123,121.09,103.70,0
125,121.17,103.91,0
123,121.20,104.10,0
123,121.24,104.29,0
124,121.30,104.49,0
125,121.37,104.69,0
124,121.42,104.89,0
124,121.47,105.08,0
123,121.50,105.26,0
123,121.53,105.43,0
124,121.58,105.62,0
123,121.61,105.79,0
123,121.64,105.97,0
123,121.67,106.14,0
123,121.69,106.30,0
123,121.72,106.47,0
125,121.79,106.66,0
124,121.83,106.83,0
124,121.87,107.00,0
123,121.90,107.16,0
123,121.92,107.32,0
124,121.96,107.49,0
123,121.98,107.64,0
123,122.00,107.80,0
125,122.06,107.97,0
123,122.08,108.12,0
123,122.10,108.27,0
126,122.18,108.44,0
123,122.19,108.59,0
124,122.23,108.74,0
123,122.24,108.89,0
123,122.26,109.03,0
125,122.31,109.19,0
124,122.35,109.34,0
121,122.32,109.45,0
123,122.33,109.59,0
123,122.35,109.72,0
123,122.36,109.85,0
124,122.39,110.00,0
124,122.43,110.14,0
125,122.48,110.28,0
123,122.49,110.41,0
123,122.50,110.54,0
120,122.45,110.63,0
124,122.48,110.77,0
123,122.49,110.89,0
124,122.52,111.02,0
123,122.53,111.14,0
123,122.54,111.26,0
122,122.53,111.37,0
121,122.50,111.46,0
123,122.51,111.58,0
123,122.52,111.69,0
123,122.53,111.80,0
123,122.54,111.92,0
124,122.57,112.04,0
125,122.61,112.17,0
124,122.64,112.29,0
122,122.63,112.38,0
124,122.66,112.50,0
122,122.64,112.59,0
123,122.65,112.70,0
122,122.64,112.79,0
123,122.64,112.89,0
124,122.67,113.00,0
123,122.68,113.10,0
122,122.66,113.19,0
125,122.71,113.31,0
121,122.68,113.39,0
121,122.64,113.46,0
122,122.63,113.55,0
124,122.66,113.65,0
123,122.67,113.75,0
123,122.67,113.84,0
123,122.68,113.93,0
123,122.68,114.02,0
121,122.65,114.09,0
122,122.64,114.17,0
122,122.63,114.25,0
123,122.63,114.34,0
121,122.60,114.40,0
122,122.59,114.48,0
121,122.56,114.54,0
123,122.57,114.63,0
123,122.57,114.71,0
123,122.58,114.80,0
124,122.61,114.89,0
122,122.60,114.96,0
122,122.59,115.03,0
121,122.55,115.09,0
123,122.56,115.17,0
121,122.53,115.23,0
122,122.52,115.29,0
121,122.49,115.35,0
123,122.50,115.43,0
122,122.49,115.49,0
121,122.46,115.55,0
121,122.43,115.60,0
124,122.46,115.69,0
121,122.43,115.74,0
121,122.41,115.79,0
122,122.40,115.85,0
122,122.39,115.92,0
123,122.40,115.99,0
122,122.39,116.05,0
121,122.37,116.10,0
124,122.40,116.18,0
121,122.37,116.22,0
121,122.34,116.27,0
121,122.32,116.32,0
121,122.29,116.37,0
123,122.30,116.43,0
124,122.34,116.51,0
122,122.33,116.56,0
121,122.30,116.61,0
121,122.28,116.65,0
123,122.29,116.71,0
121,122.27,116.76,0
123,122.28,116.82,0
122,122.28,116.87,0
121,122.25,116.91,0
124,122.29,116.98,0
121,122.26,117.02,0
121,122.23,117.06,0
121,122.21,117.10,0
125,122.27,117.18,0
122,122.26,117.23,0
121,122.24,117.27,0
121,122.21,117.31,0
122,122.21,117.35,0
123,122.22,117.41,0
121,122.20,117.44,0
121,122.17,117.48,0
123,122.19,117.54,0
121,122.17,117.57,0
121,122.14,117.60,0
121,122.12,117.64,0
119,122.06,117.65,0
121,122.04,117.69,0
122,122.04,117.73,0
121,122.02,117.76,0
122,122.02,117.80,0
121,121.99,117.84,0
121,121.98,117.87,0
121,121.96,117.90,0
124,122.00,117.96,0
121,121.98,117.99,0
121,121.96,118.02,0
121,121.94,118.05,0
122,121.94,118.09,0
121,121.92,118.12,0
121,121.90,118.15,0
121,121.88,118.18,0
121,121.87,118.20,0
121,121.85,118.23,0
120,121.81,118.25,0
123,121.84,118.30,0
122,121.84,118.33,0
122,121.84,118.37,0
121,121.83,118.40,0
123,121.85,118.44,0
121,121.83,118.47,0
121,121.82,118.49,0
121,121.80,118.52,0
123,121.82,118.56,0
121,121.81,118.59,0
122,121.81,118.62,0
121,121.79,118.65,0
121,121.78,118.67,0
121,121.76,118.69,0
121,121.75,118.72,0
121,121.73,118.74,0
123,121.76,118.78,0
122,121.76,118.81,0
120,121.73,118.83,0
120,121.69,118.84,0
121,121.68,118.86,0
121,121.67,118.88,0
121,121.65,118.90,0
121,121.64,118.92,0
121,121.63,118.94,0
120,121.59,118.95,0
120,121.56,118.96,0
120,121.53,118.97,0
121,121.52,118.99,0
121,121.51,119.01,0
121,121.50,119.03,0
121,121.49,119.05,0
121,121.48,119.07,0
120,121.45,119.08,0
121,121.44,119.10,0
123,121.47,119.14,0
120,121.44,119.15,0
121,121.43,119.17,0
121,121.43,119.19,0
121,121.42,119.20,0
121,121.41,119.22,0
121,121.40,119.24,0
120,121.37,119.25,0
123,121.40,119.29,0
121,121.40,119.30,0
120,121.37,119.31,0
121,121.36,119.33,0
121,121.35,119.34,0
121,121.35,119.36,0
121,121.34,119.38,0
121,121.33,119.39,0
122,121.35,119.42,0
120,121.32,119.42,0
121,121.31,119.44,0
120,121.29,119.45,0
121,121.28,119.46,0
121,121.28,119.48,0
121,121.27,119.49,0
122,121.28,119.52,0
121,121.28,119.53,0
120,121.25,119.54,0
121,121.25,119.55,0
120,121.22,119.56,0
121,121.22,119.57,0
120,121.19,119.57,0
120,121.17,119.58,0
121,121.17,119.59,0
121,121.16,119.61,0
121,121.16,119.62,0
121,121.16,119.63,0
123,121.19,119.67,0
121,121.19,119.68,0
121,121.19,119.69,0
121,121.18,119.71,0
121,121.18,119.72,0
121,121.18,119.73,0
122,121.19,119.76,0
121,121.19,119.77,0
121,121.18,119.78,0
121,121.18,119.79,0
121,121.18,119.81,0
120,121.15,119.81,0
123,121.19,119.84,0
120,121.17,119.84,0
122,121.18,119.86,0
121,121.18,119.87,0
121,121.18,119.89,0
122,121.19,119.91,0
120,121.17,119.91,0
120,121.15,119.91,0
122,121.16,119.93,0
120,121.14,119.93,0
120,121.12,119.93,0
120,121.09,119.93,0
121,121.09,119.94,0
121,121.09,119.95,0
121,121.09,119.96,0
120,121.07,119.96,0
121,121.07,119.97,0
121,121.06,119.98,0
120,121.04,119.98,0
123,121.08,120.01,0
120,121.06,120.01,0
121,121.06,120.02,0
121,121.06,120.03,0
121,121.06,120.04,0
121,121.06,120.05,0
121,121.05,120.06,0
120,121.03,120.06,0
122,121.05,120.08,0
120,121.03,120.08,0
120,121.01,120.08,0
121,121.01,120.09,0
121,121.01,120.10,0
121,121.01,120.11,0
120,120.99,120.11,0
120,120.97,120.10,0
121,120.97,120.11,0
121,120.97,120.12,0
120,120.95,120.12,0
119,120.91,120.11,0
121,120.92,120.12,0
122,120.94,120.14,0
120,120.92,120.14,0
121,120.92,120.15,0
121,120.92,120.15,0
120,120.90,120.15,0
120,120.88,120.15,0
120,120.87,120.15,0
121,120.87,120.16,0
119,120.83,120.15,0
121,120.84,120.15,0
119,120.80,120.14,0
121,120.80,120.15,0
120,120.79,120.15,0
119,120.75,120.14,0
121,120.76,120.15,0
119,120.72,120.14,0
119,120.69,120.12,0
120,120.67,120.12,0
121,120.68,120.13,0
121,120.69,120.14,0
121,120.69,120.15,0
119,120.66,120.14,0
121,120.67,120.15,0
120,120.65,120.14,0
119,120.62,120.13,0
118,120.57,120.11,0
122,120.60,120.13,0
120,120.58,120.13,0
120,120.57,120.13,0
120,120.56,120.13,0
121,120.57,120.14,0
120,120.56,120.13,0
119,120.53,120.12,0
119,120.50,120.11,0
122,120.53,120.13,0
119,120.50,120.12,0
120,120.49,120.12,0
119,120.46,120.11,0
120,120.45,120.11,0
120,120.44,120.10,0
119,120.41,120.09,0
119,120.38,120.08,0
119,120.35,120.07,0
120,120.35,120.07,0
119,120.32,120.06,0
119,120.29,120.05,0
120,120.29,120.05,0
123,120.34,120.08,0
120,120.33,120.08,0
122,120.37,120.10,0
119,120.34,120.09,0
120,120.33,120.09,0
119,120.31,120.07,0
121,120.32,120.08,0
120,120.31,120.08,0
120,120.31,120.08,0
121,120.32,120.09,0
121,120.34,120.10,0
120,120.33,120.10,0
119,120.30,120.09,0
119,120.28,120.08,0
121,120.29,120.09,0
120,120.28,120.09,0
117,120.22,120.06,0
119,120.19,120.04,0
120,120.19,120.04,0
121,120.21,120.05,0
121,120.22,120.06,0
119,120.20,120.05,0
121,120.21,120.06,0
119,120.19,120.05,0
120,120.19,120.05,0
120,120.18,120.05,0
120,120.18,120.05,0
120,120.18,120.05,0
120,120.17,120.05,0
121,120.19,120.06,0
121,120.20,120.07,0
120,120.20,120.07,0
120,120.20,120.07,0
119,120.17,120.06,0
120,120.17,120.06,0
119,120.15,120.04,0
120,120.14,120.04,0
121,120.16,120.05,0
121,120.18,120.06,0
120,120.17,120.06,0
119,120.15,120.05,0
122,120.19,120.07,0
120,120.18,120.07,0
119,120.16,120.06,0
121,120.18,120.07,0
120,120.17,120.07,0
120,120.17,120.07,0
119,120.15,120.06,0
119,120.12,120.05,0
121,120.14,120.06,0
120,120.14,120.06,0
119,120.12,120.05,0
119,120.09,120.03,0
121,120.11,120.04,0
119,120.09,120.03,0
123,120.15,120.06,0
119,120.12,120.05,0
119,120.10,120.04,0
118,120.06,120.02,0
120,120.06,120.02,0
120,120.06,120.02,0
121,120.08,120.03,0
119,120.05,120.02,0
119,120.03,120.01,0
120,120.03,120.01,0
120,120.03,120.01,0
119,120.01,120.00,0
119,119.99,119.99,0
121,120.01,120.00,0
119,119.99,119.99,0
119,119.97,119.98,0
119,119.95,119.97,0
123,120.01,120.00,0
119,119.99,119.99,0
120,119.99,119.99,0
120,119.99,119.99,0
121,120.01,120.00,0
119,119.99,119.99,0
119,119.97,119.98,0
119,119.95,119.97,0
120,119.95,119.97,0
119,119.94,119.96,0
120,119.94,119.96,0
120,119.94,119.96,0
119,119.92,119.95,0
121,119.94,119.96,0
120,119.94,119.96,0
119,119.92,119.95,0
122,119.96,119.98,0
119,119.95,119.97,0
120,119.95,119.97,0
119,119.93,119.96,0
120,119.93,119.96,0
121,119.95,119.97,0
120,119.95,119.97,0
119,119.93,119.96,0
121,119.95,119.97,0
120,119.95,119.97,0
120,119.96,119.97,0
121,119.98,119.98,0
119,119.96,119.97,0
120,119.96,119.97,0
120,119.96,119.97,0
121,119.98,119.98,0
120,119.98,119.98,0
122,120.02,120.00,0
121,120.04,120.01,0
122,120.08,120.03,0
121,120.10,120.04,0
120,120.10,120.04,0
119,120.07,120.03,0
121,120.09,120.04,0
121,120.11,120.05,0
121,120.13,120.06,0
121,120.15,120.07,0
121,120.16,120.08,0
121,120.18,120.09,0
120,120.18,120.09,0
121,120.19,120.09,0
123,120.25,120.12,0
120,120.24,120.12,0
121,120.26,120.13,0
121,120.27,120.14,0
121,120.29,120.15,0
121,120.30,120.16,0
120,120.30,120.16,0
120,120.29,120.15,0
122,120.32,120.17,0
120,120.32,120.17,0
120,120.31,120.17,0
119,120.29,120.16,0
120,120.28,120.16,0
121,120.29,120.16,0
121,120.31,120.17,0
121,120.32,120.18,0
120,120.32,120.18,0
121,120.33,120.19,0
121,120.34,120.20,0
124,120.42,120.23,0
121,120.43,120.24,0
121,120.44,120.25,0
121,120.45,120.26,0
121,120.46,120.26,0
121,120.47,120.27,0
122,120.50,120.29,0
120,120.49,120.29,0
124,120.56,120.32,0
122,120.59,120.34,0
121,120.60,120.35,0
121,120.61,120.35,0
121,120.62,120.36,0
123,120.66,120.39,0
120,120.65,120.38,0
121,120.66,120.39,0
123,120.70,120.41,0
121,120.71,120.42,0
121,120.72,120.43,0
120,120.70,120.42,0
121,120.71,120.43,0
123,120.75,120.45,0
123,120.80,120.48,0
121,120.80,120.48,0
122,120.83,120.50,0
121,120.83,120.50,0
121,120.83,120.51,0
119,120.80,120.49,0
121,120.80,120.50,0
121,120.80,120.50,0
121,120.81,120.51,0
122,120.83,120.52,0
123,120.88,120.55,0
122,120.90,120.56,0
121,120.90,120.57,0
125,120.98,120.61,0
121,120.98,120.62,0
120,120.96,120.61,0
121,120.96,120.61,0
122,120.98,120.63,0
121,120.98,120.63,0
122,121.00,120.64,0
121,121.00,120.65,0
121,121.00,120.65,0
121,121.00,120.65,0
121,121.00,120.66,0
122,121.02,120.67,0
124,121.08,120.70,0
121,121.08,120.71,0
121,121.08,120.71,0
121,121.08,120.71,0
121,121.08,120.72,0
121,121.08,120.72,0
121,121.07,120.72,0
121,121.07,120.72,0
124,121.13,120.76,0
121,121.13,120.76,0
121,121.13,120.76,0
120,121.10,120.75,0
121,121.10,120.76,0
121,121.10,120.76,0
123,121.14,120.78,0
121,121.13,120.78,0
121,121.13,120.79,0
121,121.13,120.79,0
121,121.13,120.79,0
125,121.20,120.83,0
124,121.26,120.86,0
121,121.26,120.87,0
121,121.25,120.87,0
122,121.26,120.88,0
121,121.26,120.88,0
121,121.25,120.88,0
121,121.25,120.88,0
125,121.32,120.92,0
121,121.32,120.92,0
121,121.31,120.92,0
123,121.35,120.95,0
124,121.40,120.98,0
123,121.43,121.00,0
122,121.44,121.01,0
122,121.45,121.02,0
124,121.50,121.05,0
123,121.53,121.07,0
124,121.58,121.10,0
123,121.61,121.11,0
124,121.66,121.14,0
125,121.73,121.18,0
125,121.79,121.22,0
124,121.84,121.25,0
125,121.90,121.29,0
124,121.94,121.31,0
125,122.00,121.35,0
121,121.98,121.35,0
124,122.02,121.37,0
124,122.06,121.40,0
124,122.10,121.42,0
124,122.14,121.45,0
125,122.20,121.49,0
124,122.23,121.51,0
123,122.25,121.53,0
124,122.28,121.55,0
123,122.30,121.56,0
123,122.31,121.58,0
123,122.32,121.59,0
124,122.36,121.62,0
123,122.37,121.63,0
125,122.42,121.67,0
121,122.40,121.66,0
124,122.43,121.68,0
124,122.46,121.71,0
123,122.47,121.72,0
123,122.48,121.73,0
123,122.49,121.74,0
124,122.52,121.77,0
123,122.53,121.78,0
123,122.54,121.79,0
123,122.55,121.80,0
124,122.58,121.82,0
123,122.59,121.84,0
123,122.59,121.85,0
125,122.64,121.88,0
124,122.67,121.90,0
122,122.66,121.90,0
125,122.70,121.93,0
123,122.71,121.94,0
122,122.70,121.94,0
123,122.70,121.95,0
123,122.71,121.97,0
123,122.71,121.98,0
122,122.70,121.98,0
123,122.70,121.99,0
123,122.71,122.00,0
123,122.72,122.01,0
123,122.72,122.02,0
122,122.71,122.02,0
124,122.73,122.04,0
123,122.74,122.05,0
123,122.74,122.05,0
121,122.71,122.04,0
123,122.72,122.05,0
124,122.74,122.07,0
125,122.79,122.10,0
123,122.79,122.11,0
123,122.79,122.12,0
124,122.82,122.14,0
122,122.80,122.14,0
123,122.81,122.15,0
125,122.85,122.18,0
123,122.85,122.18,0
123,122.86,122.19,0
122,122.84,122.19,0
123,122.84,122.20,0
122,122.83,122.20,0
121,122.79,122.18,0
121,122.75,122.17,0
123,122.76,122.18,0
121,122.72,122.17,0
124,122.75,122.19,0
122,122.73,122.18,0
121,122.70,122.17,0
121,122.66,122.16,0
123,122.67,122.17,0
123,122.68,122.18,0
123,122.68,122.19,0
121,122.65,122.17,0
122,122.64,122.17,0
125,122.69,122.20,0
123,122.69,122.21,0
124,122.72,122.23,0
123,122.72,122.23,0
124,122.75,122.25,0
123,122.75,122.26,0
121,122.72,122.25,0
125,122.76,122.27,0
125,122.81,122.30,0
123,122.81,122.31,0
124,122.84,122.33,0
123,122.84,122.33,0
124,122.86,122.35,0
125,122.91,122.38,0
122,122.89,122.37,0
124,122.91,122.39,0
123,122.91,122.39,0
123,122.91,122.40,0
125,122.96,122.43,0
123,122.96,122.43,0
123,122.96,122.44,0
126,123.02,122.47,0
123,123.02,122.48,0
124,123.04,122.49,0
124,123.06,122.51,0
123,123.06,122.51,0
123,123.05,122.52,0
125,123.09,122.54,0
125,123.13,122.57,0
125,123.17,122.59,0
124,123.19,122.61,0
123,123.18,122.61,0
124,123.20,122.62,0
124,123.21,122.64,0
125,123.25,122.66,0
124,123.26,122.68,0
123,123.26,122.68,0
124,123.27,122.69,0
123,123.27,122.69,0
123,123.26,122.70,0
126,123.32,122.73,0
123,123.31,122.73,0
124,123.33,122.75,0
124,123.34,122.76,0
125,123.37,122.78,0
125,123.40,122.80,0
125,123.44,122.83,0
127,123.51,122.87,0
127,123.58,122.91,0
125,123.61,122.93,0
125,123.63,122.95,0
125,123.66,122.97,0
126,123.71,123.00,0
126,123.75,123.03,0
124,123.76,123.04,0
124,123.76,123.05,0
126,123.81,123.08,0
124,123.81,123.09,0
125,123.84,123.11,0
125,123.86,123.13,0
125,123.88,123.15,0
125,123.90,123.16,0
126,123.95,123.19,0
127,124.01,123.23,0
123,123.99,123.23,0
125,124.01,123.25,0
125,124.03,123.26,0
125,124.05,123.28,0
125,124.07,123.30,0
124,124.06,123.31,0
125,124.08,123.32,0
124,124.08,123.33,0
123,124.06,123.33,0
127,124.12,123.36,0
128,124.20,123.41,0
126,124.23,123.43,0
125,124.25,123.45,0
127,124.30,123.49,0
125,124.32,123.50,0
125,124.33,123.52,0
126,124.36,123.54,0
126,124.40,123.57,0
127,124.45,123.60,0
125,124.46,123.61,0
125,124.47,123.63,0
125,124.48,123.64,0
125,124.49,123.65,0
125,124.50,123.67,0
126,124.53,123.69,0
125,124.54,123.70,0
127,124.59,123.74,0
125,124.60,123.75,0
128,124.67,123.79,0
125,124.67,123.80,0
125,124.68,123.82,0
125,124.69,123.83,0
125,124.69,123.84,0
125,124.70,123.85,0
125,124.70,123.86,0
127,124.75,123.89,0
125,124.76,123.91,0
125,124.76,123.92,0
126,124.79,123.94,0
127,124.83,123.97,0
127,124.87,124.00,0
127,124.92,124.03,0
126,124.94,124.05,0
127,124.98,124.08,0
131,125.10,124.15,0
129,125.18,124.20,0
128,125.23,124.23,0
129,125.31,124.28,0
127,125.34,124.31,0
128,125.40,124.35,0
128,125.45,124.38,0
127,125.48,124.41,0
129,125.55,124.45,0
128,125.60,124.49,0
127,125.63,124.51,0
128,125.67,124.55,0
128,125.72,124.58,0
133,125.87,124.67,0
129,125.93,124.71,0
131,126.03,124.77,0
131,126.13,124.84,0
132,126.25,124.91,0
131,126.34,124.97,0
130,126.42,125.02,0
128,126.45,125.05,0
131,126.54,125.11,0
131,126.63,125.17,0
129,126.67,125.21,0
129,126.72,125.24,0
129,126.77,125.28,0
129,126.81,125.32,0
131,126.90,125.38,0
129,126.94,125.41,0
129,126.98,125.45,0
130,127.04,125.49,0
129,127.08,125.53,0
131,127.16,125.58,0
131,127.23,125.64,0
131,127.31,125.69,0
130,127.36,125.73,0
132,127.46,125.80,0
132,127.55,125.86,0
132,127.64,125.92,0
131,127.70,125.97,0
135,127.85,126.06,0
132,127.93,126.12,0
132,128.01,126.18,0
131,128.07,126.23,0
132,128.15,126.29,0
131,128.21,126.33,0
135,128.34,126.42,0
137,128.52,126.52,0
133,128.61,126.59,0
135,128.73,126.67,0
135,128.86,126.76,0
134,128.96,126.83,0
135,129.08,126.91,0
133,129.16,126.97,0
136,129.30,127.06,0
136,129.43,127.15,0
135,129.54,127.23,0
135,129.65,127.31,0
135,129.76,127.38,0
133,129.82,127.44,0
136,129.95,127.53,0
135,130.05,127.60,0
140,130.25,127.73,0
140,130.44,127.85,0
139,130.61,127.96,0
137,130.74,128.05,0
137,130.87,128.14,0
141,131.07,128.27,0
139,131.23,128.38,0
143,131.46,128.52,0
142,131.67,128.66,0
143,131.90,128.80,0
141,132.08,128.92,0
139,132.22,129.02,0
141,132.40,129.14,0
140,132.55,129.25,0
141,132.72,129.37,0
141,132.88,129.48,0
140,133.03,129.59,0
143,133.23,129.72,0
141,133.38,129.84,0
143,133.57,129.97,0
143,133.76,130.10,0
143,133.95,130.23,0
145,134.17,130.38,0
147,134.42,130.54,0
149,134.72,130.73,0
144,134.90,130.86,0
145,135.10,131.00,0
144,135.28,131.13,0
146,135.50,131.28,0
148,135.75,131.45,0
145,135.93,131.58,0
145,136.11,131.72,0
148,136.35,131.88,0
149,136.60,132.05,0
147,136.81,132.20,0
145,136.98,132.33,0
146,137.16,132.46,0
146,137.33,132.60,0
146,137.51,132.73,0
147,137.70,132.88,0
151,137.96,133.06,0
148,138.16,133.21,0
149,138.38,133.36,0
149,138.59,133.52,0
148,138.78,133.67,0
151,139.02,133.84,0
150,139.24,134.00,0
149,139.44,134.15,0
148,139.61,134.29,0
149,139.80,134.44,0
151,140.02,134.60,0
155,140.32,134.81,0
158,140.68,135.04,0
157,141.00,135.26,0
152,141.22,135.43,0
156,141.52,135.63,0
163,141.95,135.90,0
163,142.37,136.18,0
161,142.74,136.42,0
161,143.11,136.67,0
161,143.46,136.91,0
158,143.75,137.12,0
159,144.06,137.34,0
163,144.44,137.60,0
169,144.93,137.91,0
169,145.41,138.22,0
170,145.90,138.54,0
165,146.28,138.81,0
168,146.72,139.10,0
173,147.24,139.44,0
171,147.72,139.75,0
168,148.13,140.04,0
172,148.60,140.36,0
171,149.05,140.66,0
167,149.41,140.92,0
172,149.86,141.24,0
174,150.34,141.56,0
179,150.92,141.94,0
178,151.46,142.30,0
179,152.01,142.67,0
177,152.51,143.01,0
185,153.16,143.43,0
189,153.88,143.88,0
187,154.54,144.32,0
188,155.21,144.75,0
182,155.74,145.12,0
181,156.25,145.48,0
183,156.78,145.86,0
181,157.27,146.21,0
187,157.86,146.62,0
189,158.49,147.04,0
192,159.16,147.49,0
191,159.79,147.93,0
187,160.34,148.32,0
196,161.05,148.79,0
195,161.73,149.26,0
201,162.51,149.77,0
201,163.28,150.29,0
198,163.98,150.76,0
195,164.60,151.21,0
194,165.19,151.63,0
195,165.78,152.07,0
198,166.43,152.53,0
201,167.12,153.01,0
203,167.84,153.51,0
205,168.58,154.03,0
200,169.21,154.49,0
197,169.76,154.91,0
205,170.47,155.41,0
206,171.18,155.92,0
201,171.78,156.37,0
203,172.40,156.83,0
200,172.95,157.27,0
204,173.57,157.73,0
205,174.20,158.21,0
209,174.90,158.71,0
208,175.56,159.21,0
205,176.15,159.66,0
209,176.81,160.16,0
205,177.37,160.61,0
207,177.96,161.07,0
209,178.58,161.55,0
211,179.23,162.04,0
212,179.89,162.54,0
217,180.63,163.09,0
216,181.34,163.62,0
210,181.91,164.08,0
211,182.49,164.55,0
215,183.14,165.06,0
222,183.92,165.62,0
226,184.76,166.23,0
227,185.61,166.84,0
221,186.31,167.38,0
221,187.01,167.91,0
225,187.77,168.48,0
232,188.65,169.12,0
233,189.54,169.76,0
231,190.37,170.37,0
227,191.10,170.94,0
227,191.82,171.50,0
225,192.48,172.03,0
228,193.19,172.59,0
230,193.93,173.17,0
229,194.63,173.73,0
231,195.36,174.30,0
237,196.19,174.93,0
231,196.89,175.49,0
229,197.53,176.02,0
232,198.22,176.58,0
229,198.83,177.10,0
233,199.52,177.66,0
234,200.21,178.23,0
236,200.92,178.80,0
232,201.54,179.34,0
232,202.15,179.86,0
237,202.85,180.43,0
236,203.51,180.99,0
232,204.08,181.50,0
235,204.70,182.04,0
234,205.29,182.56,0
232,205.82,183.05,0
232,206.35,183.54,0
232,206.86,184.02,0
231,207.34,184.49,0
233,207.85,184.98,0
232,208.34,185.45,0
231,208.79,185.90,0
231,209.23,186.36,0
230,209.65,186.79,0
232,210.10,187.24,0
233,210.55,187.70,0
233,211.00,188.15,0
235,211.48,188.62,0
234,211.93,189.08,0
235,212.40,189.54,0
238,212.91,190.02,0
239,213.43,190.51,0
237,213.90,190.98,0
241,214.44,191.48,0
245,215.05,192.01,0
249,215.73,192.58,0
252,216.46,193.17,0
250,217.13,193.74,0
243,217.65,194.24,0
254,218.37,194.83,0
255,219.11,195.44,0
253,219.78,196.01,0
252,220.43,196.57,0
252,221.06,197.12,0
248,221.60,197.63,0
253,222.23,198.19,0
253,222.84,198.74,0
251,223.41,199.26,0
255,224.04,199.82,0
253,224.62,200.35,0
253,225.18,200.87,0
249,225.66,201.36,0
252,226.19,201.86,0
250,226.66,202.34,0
249,227.11,202.81,0
252,227.61,203.30,0
256,228.18,203.83,0
262,228.85,204.41,0
263,229.54,205.00,0
257,230.08,205.52,0
261,230.70,206.07,0
263,231.35,206.64,0
261,231.94,207.18,0
263,232.56,207.74,0
259,233.09,208.25,0
256,233.55,208.73,0
258,234.04,209.22,0
259,234.54,209.72,0
260,235.05,210.23,0
261,235.57,210.73,0
258,236.02,211.21,0
261,236.51,211.70,0
263,237.04,212.22,0
263,237.56,212.72,0
261,238.03,213.21,0
261,238.49,213.69,0
260,238.92,214.15,0
258,239.30,214.59,0
261,239.74,215.05,0
264,240.22,215.54,0
265,240.72,216.04,0
261,241.12,216.48,0
261,241.52,216.93,0
267,242.03,217.43,0
262,242.43,217.88,0
262,242.82,218.32,0
270,243.37,218.83,0
266,243.82,219.31,0
268,244.30,219.79,0
265,244.72,220.24,0
263,245.08,220.67,0
267,245.52,221.14,0
271,246.03,221.63,0
266,246.43,222.08,0
265,246.80,222.51,0
265,247.16,222.93,0
264,247.50,223.34,0
264,247.83,223.75,0
269,248.25,224.20,0
267,248.63,224.63,0
273,249.12,225.11,0
273,249.59,225.59,0
268,249.96,226.02,0
277,250.50,226.53,0
275,250.99,227.01,0
277,251.51,227.51,0
280,252.08,228.04,0
274,252.52,228.50,0
273,252.93,228.94,0
276,253.39,229.41,0
277,253.86,229.89,0
275,254.29,230.34,0
277,254.74,230.80,0
280,255.25,231.30,0
281,255.76,231.79,0
288,256.41,232.36,0
285,256.98,232.88,0
282,257.48,233.37,0
290,258.13,233.94,0
291,258.79,234.51,0
296,259.53,235.13,0
291,260.16,235.68,0
289,260.74,236.22,0
285,261.22,236.71,0
290,261.80,237.24,0
290,262.36,237.77,0
288,262.87,238.27,0
285,263.32,238.74,0
286,263.77,239.21,0
286,264.22,239.68,0
288,264.69,240.16,0
292,265.24,240.68,0
290,265.73,241.17,0
288,266.18,241.64,0
291,266.67,242.13,0
287,267.08,242.58,0
287,267.48,243.03,0
286,267.85,243.46,0
287,268.23,243.89,0
289,268.65,244.34,0
291,269.10,244.81,0
294,269.59,245.30,0
291,270.02,245.76,0
293,270.48,246.23,0
289,270.85,246.66,0
289,271.21,247.08,0
287,271.53,247.48,0
287,271.84,247.88,0
288,272.16,248.28,0
287,272.46,248.66,0
289,272.79,249.07,0
292,273.17,249.50,0
294,273.59,249.94,0
289,273.90,250.33,0
291,274.24,250.74,0
293,274.62,251.16,0
294,275.00,251.59,0
293,275.36,252.00,0
289,275.64,252.37,0
290,275.92,252.75,0
293,276.27,253.15,0
289,276.52,253.51,0
288,276.75,253.86,0
291,277.03,254.23,0
289,277.27,254.58,0
289,277.51,254.92,0
290,277.76,255.27,0
288,277.96,255.60,0
288,278.16,255.92,0
287,278.34,256.23,0
287,278.51,256.54,0
288,278.70,256.85,0
289,278.91,257.18,0
290,279.13,257.50,0
287,279.29,257.80,0
289,279.48,258.11,0
286,279.61,258.39,0
287,279.76,258.68,0
285,279.87,258.94,0
291,280.09,259.26,0
288,280.25,259.55,0
286,280.36,259.81,0
285,280.45,260.06,0
285,280.55,260.31,0
285,280.63,260.56,0
284,280.70,260.79,0
284,280.77,261.03,0
284,280.83,261.26,0
287,280.96,261.51,0
286,281.06,261.76,0
284,281.12,261.98,0
284,281.17,262.20,0
283,281.21,262.41,0
283,281.25,262.62,0
281,281.24,262.80,0
283,281.28,263.00,0
281,281.27,263.18,0
281,281.27,263.36,0
281,281.26,263.54,0
281,281.25,263.71,0
281,281.25,263.88,0
280,281.22,264.04,0
280,281.20,264.20,0
277,281.12,264.33,0
278,281.05,264.47,0
277,280.97,264.59,0
279,280.93,264.74,0
277,280.85,264.86,0
277,280.78,264.98,0
277,280.70,265.10,0
280,280.69,265.25,0
277,280.61,265.37,0
276,280.52,265.47,0
275,280.41,265.57,0
275,280.30,265.66,0
277,280.24,265.78,0
275,280.13,265.87,0
275,280.03,265.96,0
277,279.97,266.07,0
275,279.87,266.16,0
273,279.73,266.23,0
273,279.60,266.30,0
274,279.49,266.37,0
273,279.36,266.44,0
275,279.27,266.53,0
272,279.12,266.58,0
273,279.00,266.64,0
271,278.84,266.69,0
271,278.68,266.73,0
271,278.53,266.77,0
271,278.38,266.82,0
272,278.25,266.87,0
272,278.13,266.92,0
271,277.98,266.96,0
270,277.83,266.99,0
267,277.61,266.99,0
269,277.44,267.01,0
269,277.27,267.03,0
269,277.10,267.05,0
268,276.92,267.06,0
267,276.72,267.06,0
269,276.57,267.08,0
267,276.38,267.08,0
267,276.19,267.08,0
266,275.98,267.07,0
266,275.79,267.06,0
266,275.59,267.05,0
265,275.38,267.03,0
263,275.13,266.98,0
264,274.91,266.95,0
265,274.71,266.94,0
261,274.44,266.88,0
265,274.25,266.86,0
265,274.06,266.84,0
264,273.86,266.81,0
264,273.66,266.78,0
262,273.43,266.73,0
263,273.22,266.70,0
262,273.00,266.65,0
262,272.78,266.60,0
262,272.56,266.56,0
262,272.35,266.51,0
260,272.10,266.45,0
260,271.86,266.38,0
260,271.62,266.32,0
259,271.37,266.25,0
259,271.12,266.17,0
258,270.86,266.09,0
258,270.60,266.01,0
258,270.35,265.93,0
258,270.11,265.85,0
257,269.84,265.76,0
257,269.59,265.67,0
257,269.33,265.59,0
256,269.07,265.49,0
256,268.81,265.40,0
256,268.55,265.30,0
256,268.30,265.21,0
254,268.01,265.10,0
254,267.73,264.99,0
255,267.48,264.89,0
254,267.21,264.78,0
253,266.92,264.66,0
253,266.65,264.54,0
254,266.39,264.44,0
252,266.11,264.31,0
252,265.82,264.19,0
251,265.53,264.06,0
253,265.28,263.95,0
251,264.99,263.82,0
251,264.71,263.69,0
250,264.42,263.55,0
252,264.17,263.44,0
250,263.89,263.30,0
249,263.59,263.16,0
249,263.30,263.02,0
249,263.01,262.88,0
248,262.71,262.73,1
248,262.42,262.58,1
247,262.11,262.43,1
248,261.83,262.28,1
248,261.55,262.14,1
247,261.26,261.99,1
246,260.95,261.83,1
247,260.67,261.68,1
245,260.36,261.51,1
246,260.07,261.36,1
245,259.77,261.20,1
245,259.48,261.03,1
243,259.15,260.85,1
244,258.84,260.68,1
245,258.57,260.53,1
245,258.30,260.37,1
244,258.01,260.21,1
243,257.71,260.04,1
245,257.45,259.89,1
243,257.17,259.72,1
242,256.86,259.54,1
242,256.57,259.36,1
244,256.31,259.21,1
241,256.01,259.03,1
241,255.71,258.85,1
240,255.39,258.66,1
241,255.11,258.48,1
241,254.82,258.31,1
240,254.53,258.13,1
239,254.22,257.93,1
239,253.91,257.75,1
241,253.65,257.58,1
239,253.36,257.39,1
239,253.07,257.21,1
239,252.79,257.03,1
239,252.52,256.85,1
238,252.23,256.66,1
237,251.92,256.46,1
237,251.62,256.27,1
237,251.33,256.07,1
236,251.02,255.87,1
237,250.74,255.68,1
237,250.47,255.50,1
236,250.18,255.30,1
236,249.90,255.11,1
237,249.64,254.93,1
235,249.35,254.73,1
235,249.06,254.53,1
235,248.78,254.34,1
236,248.52,254.15,1
233,248.21,253.94,1
234,247.93,253.74,1
233,247.63,253.53,1
235,247.38,253.35,1
233,247.09,253.15,1
233,246.81,252.94,1
232,246.51,252.73,1
232,246.22,252.53,1
232,245.94,252.32,1
232,245.66,252.12,1
231,245.36,251.91,1
234,245.14,251.73,1
232,244.87,251.53,1
233,244.64,251.35,1
231,244.36,251.14,1
231,244.10,250.94,1
231,243.83,250.74,1
229,243.54,250.52,1
230,243.27,250.32,1
232,243.04,250.14,1
230,242.78,249.93,1
232,242.57,249.76,1
229,242.29,249.55,1
229,242.03,249.34,1
229,241.77,249.14,1
228,241.49,248.93,1
229,241.24,248.73,1
229,241.00,248.53,1
227,240.72,248.32,1
228,240.46,248.11,1
228,240.21,247.91,1
229,239.99,247.72,1
227,239.73,247.51,1
226,239.46,247.30,1
227,239.21,247.10,1
226,238.94,246.89,1
225,238.66,246.67,1
229,238.47,246.49,1
226,238.22,246.29,1
225,237.96,246.07,1
225,237.70,245.86,1
224,237.42,245.64,1
223,237.13,245.42,1
223,236.85,245.19,1
224,236.59,244.98,1
223,236.32,244.76,1
225,236.10,244.56,1
223,235.83,244.35,1
223,235.58,244.13,1
222,235.31,243.91,1
222,235.04,243.69,1
223,234.80,243.49,1
224,234.58,243.29,1
221,234.31,243.07,1
224,234.11,242.88,1
221,233.84,242.66,1
221,233.59,242.44,1
221,233.33,242.23,1
222,233.11,242.03,1
220,232.85,241.81,1
220,232.59,241.59,1
221,232.36,241.38,1
220,232.11,241.17,1
220,231.87,240.96,1
219,231.61,240.74,1
221,231.40,240.54,1
219,231.15,240.32,1
219,230.91,240.11,1
218,230.65,239.89,1
220,230.44,239.69,1
218,230.19,239.47,1
217,229.92,239.25,1
217,229.67,239.03,1
219,229.45,238.83,1
216,229.18,238.60,1
217,228.94,238.38,1
216,228.68,238.16,1
217,228.45,237.95,1
217,228.22,237.74,1
216,227.97,237.52,1
216,227.73,237.30,1
216,227.50,237.09,1
215,227.25,236.87,1
214,226.98,236.64,1
215,226.74,236.43,1
216,226.53,236.22,1
215,226.30,236.01,1
213,226.03,235.78,1
215,225.81,235.57,1
213,225.56,235.35,1
214,225.33,235.13,1
214,225.10,234.92,1
215,224.90,234.72,1
213,224.66,234.50,1
213,224.43,234.29,1
212,224.18,234.07,1
213,223.95,233.86,1
213,223.73,233.65,1
211,223.48,233.42,1
211,223.23,233.20,1
212,223.01,232.98,1
212,222.79,232.77,1
211,222.55,232.56,1
212,222.34,232.35,1
213,222.15,232.16,1
212,221.95,231.96,1
211,221.73,231.75,1
210,221.50,231.53,1
211,221.29,231.32,1
211,221.08,231.12,1
209,220.84,230.90,1
209,220.60,230.68,1
209,220.37,230.46,1
209,220.14,230.25,1
209,219.92,230.04,1
208,219.68,229.82,1
208,219.45,229.60,1
209,219.24,229.39,1
207,218.99,229.17,1
207,218.75,228.95,1
208,218.54,228.74,1
207,218.31,228.52,1
207,218.08,228.30,1
206,217.84,228.08,1
207,217.62,227.87,1
206,217.39,227.65,1
208,217.20,227.46,1
205,216.96,227.23,1
206,216.74,227.02,1
205,216.51,226.80,1
205,216.27,226.58,1
207,216.09,226.38,1
205,215.87,226.17,1
204,215.63,225.95,1
204,215.40,225.73,1
205,215.19,225.52,1
205,214.99,225.32,1
204,214.77,225.10,1
204,214.55,224.89,1
206,214.38,224.70,1
203,214.15,224.49,1
203,213.93,224.27,1
202,213.69,224.05,1
204,213.50,223.85,1
201,213.25,223.62,1
202,213.02,223.40,1
202,212.80,223.19,1
204,212.63,223.00,1
201,212.39,222.78,1
201,212.17,222.56,1
201,211.94,222.34,1
201,211.72,222.13,1
201,211.51,221.92,1
201,211.30,221.71,1
200,211.07,221.49,1
201,210.87,221.29,1
200,210.65,221.08,1
199,210.42,220.86,1
198,210.17,220.63,1
200,209.97,220.42,1
200,209.77,220.22,1
199,209.55,220.00,1
199,209.34,219.79,1
199,209.14,219.59,1
199,208.93,219.38,1
198,208.71,219.17,1
199,208.52,218.96,1
197,208.29,218.75,1
197,208.06,218.53,1
197,207.84,218.31,1
200,207.69,218.13,1
197,207.47,217.92,1
197,207.26,217.71,1
197,207.06,217.50,1
197,206.86,217.30,1
196,206.64,217.08,1
196,206.43,216.87,1
197,206.24,216.67,1
199,206.09,216.50,1
197,205.91,216.30,1
197,205.73,216.11,1
199,205.60,215.94,1
196,205.41,215.74,1
197,205.24,215.55,1
196,205.05,215.36,1
195,204.85,215.15,1
198,204.72,214.98,1
195,204.52,214.78,1
194,204.31,214.57,1
194,204.10,214.37,1
196,203.94,214.18,1
193,203.72,213.97,1
195,203.55,213.78,1
194,203.36,213.58,1
194,203.17,213.39,1
193,202.97,213.18,1
193,202.77,212.98,1
194,202.59,212.79,1
193,202.40,212.60,1
193,202.21,212.40,1
191,201.99,212.19,1
194,201.83,212.00,1
192,201.63,211.80,1
191,201.42,211.60,1
192,201.23,211.40,1
192,201.05,211.21,1
191,200.85,211.00,1
191,200.65,210.80,1
191,200.46,210.61,1
191,200.27,210.41,1
192,200.10,210.23,1
192,199.94,210.04,1
190,199.74,209.84,1
192,199.59,209.66,1
190,199.39,209.47,1
191,199.23,209.28,1
190,199.04,209.09,1
191,198.88,208.91,1
190,198.70,208.72,1
191,198.55,208.54,1
189,198.36,208.35,1
189,198.17,208.15,1
189,197.99,207.96,1
188,197.79,207.76,1
189,197.61,207.58,1
190,197.46,207.40,1
190,197.31,207.23,1
188,197.12,207.03,1
187,196.92,206.83,1
187,196.72,206.63,1
189,196.57,206.46,1
189,196.42,206.28,1
187,196.23,206.09,1
188,196.06,205.91,1
188,195.90,205.73,1
187,195.73,205.54,1
189,195.59,205.38,1
189,195.46,205.21,1
189,195.33,205.05,1
187,195.16,204.87,1
188,195.02,204.70,1
189,194.90,204.55,1
187,194.74,204.37,1
187,194.59,204.20,1
189,194.48,204.04,1
185,194.29,203.85,1
186,194.12,203.68,1
188,194.00,203.52,1
185,193.82,203.33,1
186,193.66,203.16,1
185,193.49,202.98,1
185,193.32,202.80,1
186,193.17,202.63,1
185,193.01,202.45,1
184,192.83,202.27,1
185,192.67,202.10,1
184,192.50,201.92,1
184,192.33,201.74,1
183,192.14,201.55,1
185,192.00,201.38,1
184,191.84,201.21,1
183,191.66,201.03,1
183,191.49,200.85,1
183,191.32,200.67,1
181,191.11,200.47,1
183,190.95,200.30,1
183,190.79,200.13,1
183,190.64,199.95,1
181,190.44,199.76,1
181,190.25,199.58,1
181,190.07,199.39,1
185,189.97,199.25,1
181,189.79,199.06,1
181,189.61,198.88,1
180,189.42,198.70,1
181,189.25,198.52,1
182,189.11,198.35,1
180,188.92,198.17,1
181,188.77,198.00,1
181,188.61,197.83,1
180,188.44,197.65,1
180,188.27,197.47,1
179,188.08,197.29,1
180,187.92,197.12,1
180,187.76,196.94,1
181,187.63,196.78,1
179,187.46,196.61,1
180,187.31,196.44,1
179,187.14,196.27,1
180,187.00,196.10,1
178,186.82,195.92,1
179,186.66,195.75,1
179,186.51,195.59,1
180,186.38,195.43,1
177,186.19,195.25,1
179,186.05,195.08,1
177,185.87,194.90,1
177,185.69,194.72,1
177,185.52,194.55,1
177,185.34,194.37,1
177,185.18,194.20,1
177,185.01,194.03,1
177,184.85,193.86,1
177,184.70,193.69,1
175,184.50,193.50,1
175,184.31,193.31,1
178,184.19,193.16,1
175,184.00,192.98,1
175,183.82,192.80,1
175,183.65,192.62,1
177,183.51,192.47,1
176,183.36,192.30,1
176,183.22,192.14,1
175,183.05,191.97,1
176,182.91,191.81,1
174,182.73,191.63,1
175,182.58,191.46,1
174,182.41,191.29,1
176,182.28,191.14,1
174,182.11,190.96,1
173,181.93,190.78,1
174,181.77,190.62,1
174,181.62,190.45,1
174,181.46,190.29,1
173,181.29,190.11,1
173,181.13,189.94,1
173,180.97,189.77,1
175,180.85,189.62,1
173,180.69,189.46,1
172,180.52,189.28,1
173,180.37,189.12,1
173,180.22,188.96,1
171,180.03,188.78,1
173,179.89,188.62,1
172,179.74,188.46,1
172,179.58,188.29,1
172,179.43,188.13,1
173,179.30,187.98,1
172,179.15,187.82,1
172,179.01,187.66,1
172,178.87,187.50,1
170,178.69,187.33,1
171,178.54,187.16,1
170,178.37,186.99,1
171,178.22,186.83,1
172,178.10,186.68,1
170,177.94,186.52,1
170,177.78,186.35,1
171,177.64,186.20,1
171,177.51,186.05,1
171,177.38,185.90,1
167,177.17,185.71,1
169,177.01,185.54,1
170,176.87,185.39,1
169,176.71,185.22,1
169,176.56,185.06,1
169,176.40,184.90,1
169,176.26,184.74,1
169,176.11,184.58,1
169,175.97,184.43,1
169,175.83,184.27,1
169,175.69,184.12,1
168,175.54,183.96,1
168,175.39,183.80,1
168,175.24,183.64,1
168,175.10,183.48,1
167,174.93,183.32,1
169,174.82,183.18,1
168,174.68,183.02,1
169,174.57,182.88,1
168,174.43,182.74,1
167,174.29,182.58,1
170,174.20,182.45,1
167,174.06,182.30,1
167,173.91,182.14,1
166,173.76,181.98,1
167,173.62,181.83,1
166,173.47,181.68,1
166,173.32,181.52,1
166,173.17,181.36,1
165,173.01,181.20,1
167,172.89,181.06,1
167,172.77,180.92,1
167,172.66,180.78,1
168,172.56,180.65,1
165,172.41,180.49,1
167,172.30,180.36,1
167,172.20,180.23,1
165,172.05,180.07,1
166,171.93,179.93,1
163,171.75,179.76,1
165,171.62,179.62,1
167,171.53,179.49,1
166,171.42,179.35,1
165,171.29,179.21,1
165,171.16,179.07,1
165,171.04,178.93,1
165,170.92,178.79,1
165,170.80,178.65,1
165,170.68,178.51,1
164,170.55,178.37,1
164,170.42,178.23,1
164,170.29,178.08,1
165,170.18,177.95,1
165,170.08,177.82,1
165,169.98,177.69,1
164,169.86,177.56,1
164,169.74,177.42,1
165,169.65,177.30,1
164,169.53,177.16,1
165,169.44,177.04,1
167,169.40,176.94,1
164,169.29,176.81,1
163,169.16,176.68,1
164,169.06,176.55,1
162,168.92,176.40,1
165,168.84,176.29,1
163,168.72,176.16,1
163,168.61,176.02,1
165,168.54,175.91,1
163,168.42,175.78,1
163,168.32,175.66,1
162,168.19,175.52,1
163,168.09,175.40,1
162,167.96,175.26,1
161,167.83,175.12,1
162,167.71,174.99,1
162,167.59,174.86,1
162,167.48,174.73,1
160,167.33,174.58,1
161,167.21,174.45,1
163,167.12,174.33,1
162,167.02,174.21,1
162,166.92,174.09,1
161,166.80,173.96,1
161,166.69,173.83,1
161,166.57,173.70,1
161,166.46,173.57,1
162,166.37,173.45,1
161,166.26,173.33,1
160,166.14,173.20,1
160,166.02,173.06,1
160,165.89,172.93,1
161,165.80,172.82,1
161,165.70,172.70,1
160,165.59,172.57,1
161,165.50,172.45,1
160,165.39,172.33,1
160,165.28,172.21,1
160,165.17,172.08,1
159,165.05,171.95,1
159,164.93,171.82,1
160,164.83,171.71,1
160,164.73,171.59,1
161,164.66,171.48,1
159,164.54,171.36,1
160,164.45,171.24,1
159,164.34,171.12,1
161,164.28,171.02,1
158,164.15,170.89,1
160,164.07,170.78,1
158,163.95,170.65,1
158,163.83,170.53,1
157,163.69,170.39,1
158,163.58,170.27,1
158,163.47,170.15,1
158,163.36,170.02,1
158,163.25,169.90,1
157,163.13,169.77,1
157,163.00,169.65,1
157,162.88,169.52,1
157,162.77,169.40,1
157,162.65,169.27,1
158,162.56,169.16,1
157,162.45,169.04,1
157,162.34,168.92,1
155,162.19,168.78,1
159,162.13,168.68,1
156,162.00,168.55,1
156,161.88,168.43,1
156,161.77,168.30,1
156,161.65,168.18,1
156,161.54,168.06,1
156,161.43,167.94,1
156,161.32,167.82,1
157,161.23,167.71,1
156,161.13,167.59,1
155,161.00,167.47,1
155,160.88,167.34,1
156,160.79,167.23,1
157,160.71,167.13,1
157,160.64,167.03,1
155,160.52,166.91,1
156,160.43,166.80,1
156,160.35,166.69,1
155,160.24,166.57,1
155,160.13,166.46,1
156,160.05,166.35,1
155,159.95,166.24,1
155,159.85,166.13,1
155,159.75,166.01,1
155,159.66,165.90,1
154,159.55,165.78,1
154,159.43,165.67,1
153,159.31,165.54,1
154,159.20,165.42,1
154,159.10,165.31,1
153,158.97,165.19,1
155,158.89,165.09,1
156,158.84,164.99,1
155,158.76,164.89,1
153,158.64,164.78,1
156,158.59,164.69,1
153,158.48,164.57,1
153,158.37,164.46,1
154,158.28,164.35,1
155,158.22,164.26,1
153,158.11,164.14,1
155,158.05,164.05,1
155,157.99,163.96,1
153,157.89,163.85,1
153,157.79,163.74,1
153,157.70,163.64,1
153,157.60,163.53,1
156,157.57,163.46,1
153,157.48,163.35,1
153,157.39,163.25,1
153,157.30,163.15,1
153,157.22,163.04,1
152,157.11,162.93,1
152,157.01,162.82,1
152,156.91,162.72,1
155,156.87,162.64,1
151,156.75,162.52,1
151,156.64,162.41,1
152,156.55,162.30,1
153,156.47,162.21,1
153,156.41,162.12,1
152,156.32,162.02,1
153,156.25,161.93,1
151,156.15,161.82,1
151,156.04,161.71,1
151,155.94,161.60,1
153,155.88,161.52,1
152,155.81,161.42,1
151,155.71,161.32,1
152,155.64,161.22,1
152,155.56,161.13,1
151,155.47,161.03,1
152,155.40,160.94,1
150,155.29,160.83,1
153,155.25,160.75,1
151,155.16,160.65,1
151,155.08,160.56,1
152,155.02,160.47,1
150,154.92,160.37,1
152,154.86,160.28,1
151,154.78,160.19,1
151,154.71,160.10,1
152,154.65,160.02,1
149,154.54,159.91,1
151,154.47,159.82,1
151,154.40,159.73,1
151,154.33,159.64,1
152,154.28,159.57,1
151,154.22,159.48,1
152,154.17,159.41,1
151,154.11,159.32,1
151,154.05,159.24,1
150,153.97,159.15,1
150,153.89,159.06,1
150,153.81,158.96,1
151,153.75,158.89,1
150,153.68,158.80,1
150,153.61,158.71,1
149,153.51,158.61,1
149,153.42,158.52,1
151,153.37,158.44,1
151,153.33,158.37,1
150,153.26,158.28,1
149,153.18,158.19,1
149,153.09,158.10,1
150,153.03,158.02,1
149,152.95,157.93,1
149,152.87,157.84,1
149,152.79,157.75,1
149,152.72,157.66,1
148,152.62,157.56,1
149,152.55,157.48,1
149,152.48,157.39,1
149,152.41,157.31,1
148,152.32,157.22,1
149,152.26,157.13,1
149,152.19,157.05,1
153,152.21,157.01,1
147,152.10,156.91,1
147,152.00,156.81,1
147,151.90,156.72,1
149,151.84,156.64,1
148,151.77,156.55,1
147,151.67,156.46,1
148,151.60,156.37,1
148,151.52,156.29,1
147,151.43,156.20,1
148,151.37,156.11,1
147,151.28,156.02,1
149,151.23,155.95,1
145,151.11,155.84,1
147,151.03,155.75,1
148,150.97,155.68,1
148,150.91,155.60,1
147,150.83,155.51,1
147,150.75,155.43,1
149,150.72,155.36,1
146,150.62,155.27,1
145,150.51,155.17,1
145,150.40,155.07,1
148,150.35,155.00,1
146,150.26,154.91,1
145,150.16,154.81,1
145,150.06,154.71,1
145,149.95,154.61,1
145,149.86,154.52,1
145,149.76,154.42,1
145,149.66,154.33,1
146,149.59,154.24,1
145,149.50,154.15,1
146,149.43,154.07,1
144,149.32,153.97,1
146,149.25,153.89,1
145,149.17,153.80,1
146,149.11,153.72,1
145,149.02,153.63,1
147,148.98,153.57,1
144,148.88,153.47,1
146,148.83,153.40,1
145,148.75,153.31,1
146,148.69,153.24,1
145,148.62,153.16,1
145,148.55,153.08,1
145,148.48,153.00,1
145,148.41,152.92,1
144,148.32,152.83,1
144,148.23,152.74,1
147,148.21,152.68,1
145,148.14,152.60,1
145,148.08,152.53,1
145,148.02,152.45,1
145,147.96,152.38,1
143,147.86,152.28,1
145,147.80,152.21,1
144,147.73,152.13,1
146,147.69,152.07,1
145,147.64,152.00,1
143,147.55,151.91,1
143,147.45,151.82,1
143,147.37,151.73,1
143,147.28,151.64,1
143,147.19,151.56,1
143,147.11,151.47,1
143,147.03,151.39,1
143,146.95,151.30,1
143,146.87,151.22,1
141,146.75,151.12,1
143,146.67,151.04,1
142,146.58,150.95,1
141,146.47,150.85,1
143,146.40,150.77,1
143,146.33,150.69,1
141,146.23,150.59,1
141,146.12,150.50,1
141,146.02,150.40,1
143,145.96,150.33,1
141,145.86,150.23,1
141,145.76,150.14,1
141,145.67,150.05,1
141,145.57,149.96,1
143,145.52,149.89,1
144,145.49,149.83,1
141,145.40,149.74,1
141,145.31,149.66,1
142,145.25,149.58,1
142,145.18,149.50,1
143,145.14,149.44,1
141,145.06,149.35,1
141,144.97,149.27,1
141,144.90,149.19,1
141,144.82,149.11,1
141,144.74,149.03,1
142,144.69,148.96,1
140,144.59,148.87,1
143,144.56,148.81,1
140,144.47,148.72,1
141,144.40,148.64,1
139,144.29,148.55,1
141,144.23,148.47,1
141,144.16,148.40,1
140,144.08,148.31,1
140,144.00,148.23,1
142,143.96,148.17,1
140,143.88,148.08,1
140,143.80,148.00,1
140,143.72,147.92,1
140,143.65,147.84,1
137,143.52,147.74,1
141,143.47,147.67,1
141,143.42,147.60,1
140,143.35,147.53,1
140,143.28,147.45,1
139,143.20,147.37,1
143,143.19,147.32,1
140,143.13,147.25,1
141,143.09,147.19,1
141,143.04,147.12,1
140,142.98,147.05,1
142,142.96,147.00,1
140,142.90,146.93,1
139,142.83,146.85,1
143,142.83,146.81,1
141,142.79,146.76,1
140,142.74,146.69,1
141,142.70,146.63,1
142,142.69,146.59,1
142,142.67,146.54,1
141,142.64,146.48,1
141,142.61,146.43,1
141,142.58,146.38,1
141,142.54,146.32,1
141,142.51,146.27,1
141,142.48,146.22,1
141,142.45,146.16,1
140,142.40,146.10,1
139,142.34,146.03,1
141,142.31,145.98,1
141,142.28,145.93,1
141,142.26,145.88,1
140,142.21,145.82,1
139,142.15,145.75,1
142,142.15,145.72,1
140,142.10,145.66,1
139,142.04,145.59,1
141,142.02,145.55,1
140,141.98,145.49,1
145,142.04,145.49,1
140,142.00,145.43,1
140,141.96,145.38,1
140,141.92,145.32,1
141,141.90,145.28,1
139,141.84,145.22,1
140,141.81,145.17,1
141,141.79,145.12,1
139,141.73,145.06,1
139,141.68,145.00,1
141,141.67,144.96,1
139,141.61,144.90,1
139,141.56,144.84,1
139,141.51,144.79,1
141,141.50,144.75,1
140,141.47,144.70,1
140,141.44,144.65,1
140,141.41,144.61,1
140,141.38,144.56,1
141,141.38,144.52,1
139,141.33,144.47,1
139,141.28,144.41,1
141,141.28,144.38,1
141,141.27,144.35,1
139,141.22,144.29,1
139,141.18,144.24,1
140,141.16,144.20,1
139,141.11,144.15,1
139,141.07,144.09,1
139,141.03,144.04,1
139,140.99,143.99,1
139,140.95,143.94,1
139,140.91,143.89,1
139,140.87,143.84,1
139,140.83,143.80,1
139,140.80,143.75,1
138,140.74,143.69,1
139,140.71,143.64,1
138,140.65,143.59,1
138,140.60,143.53,1
138,140.55,143.48,1
139,140.52,143.43,1
137,140.45,143.37,1
137,140.38,143.30,1
137,140.31,143.24,1
141,140.32,143.22,1
139,140.30,143.18,1
139,140.27,143.13,1
137,140.21,143.07,1
137,140.14,143.01,1
137,140.08,142.95,1
137,140.02,142.89,1
137,139.96,142.83,1
137,139.90,142.78,1
137,139.84,142.72,1
135,139.74,142.64,1
137,139.69,142.58,1
138,139.65,142.54,1
137,139.60,142.48,1
137,139.55,142.43,1
136,139.48,142.36,1
139,139.47,142.33,1
138,139.44,142.29,1
137,139.39,142.23,1
137,139.34,142.18,1
137,139.30,142.13,1
136,139.23,142.07,1
137,139.19,142.02,1
137,139.14,141.97,1
136,139.08,141.91,1
136,139.02,141.85,1
136,138.96,141.79,1
137,138.92,141.74,1
136,138.86,141.68,1
135,138.78,141.62,1
136,138.73,141.56,1
135,138.65,141.50,1
138,138.64,141.46,1
135,138.57,141.40,1
137,138.54,141.35,1
136,138.48,141.30,1
136,138.43,141.25,1
135,138.37,141.18,1
135,138.30,141.12,1
135,138.23,141.06,1
137,138.21,141.02,1
135,138.14,140.96,1
136,138.10,140.91,1
135,138.04,140.85,1
136,138.00,140.80,1
135,137.94,140.74,1
135,137.88,140.69,1
135,137.82,140.63,1
135,137.77,140.57,1
138,137.77,140.55,1
135,137.71,140.49,1
137,137.70,140.46,1
134,137.63,140.39,1
134,137.55,140.33,1
134,137.48,140.27,1
134,137.41,140.20,1
135,137.37,140.15,1
135,137.32,140.10,1
135,137.27,140.05,1
135,137.23,140.00,1
133,137.14,139.93,1
134,137.08,139.87,1
136,137.06,139.83,1
134,137.00,139.77,1
133,136.92,139.70,1
133,136.84,139.64,1
135,136.80,139.59,1
133,136.72,139.53,1
133,136.65,139.46,1
133,136.58,139.40,1
134,136.53,139.34,1
135,136.50,139.30,1
133,136.43,139.24,1
133,136.36,139.17,1
134,136.31,139.12,1
133,136.24,139.06,1
134,136.20,139.01,1
133,136.13,138.95,1
135,136.11,138.91,1
136,136.11,138.88,1
137,136.13,138.86,1
135,136.11,138.82,1
134,136.06,138.77,1
135,136.04,138.74,1
135,136.02,138.70,1
135,136.00,138.66,1
135,135.98,138.63,1
133,135.92,138.57,1
136,135.92,138.54,1
135,135.90,138.51,1
135,135.89,138.47,1
135,135.87,138.44,1
133,135.81,138.38,1
134,135.77,138.34,1
135,135.76,138.31,1
133,135.70,138.25,1
133,135.65,138.20,1
137,135.68,138.19,1
135,135.66,138.16,1
134,135.63,138.12,1
133,135.58,138.07,1
134,135.55,138.02,1
134,135.52,137.98,1
133,135.46,137.93,1
132,135.40,137.87,1
135,135.39,137.85,1
135,135.38,137.82,1
137,135.41,137.81,1
133,135.36,137.76,1
138,135.42,137.76,1
134,135.39,137.73,1
135,135.38,137.70,1
135,135.37,137.67,1
135,135.37,137.65,1
136,135.38,137.63,1
136,135.39,137.61,1
136,135.40,137.60,1
135,135.39,137.57,1
135,135.39,137.54,1
136,135.40,137.53,1
134,135.37,137.49,1
137,135.40,137.49,1
137,135.44,137.48,1
137,135.47,137.48,1
136,135.48,137.46,1
137,135.51,137.46,1
136,135.52,137.45,1
136,135.53,137.43,1
139,135.60,137.45,1
137,135.63,137.44,1
136,135.63,137.43,1
137,135.66,137.42,1
137,135.69,137.42,1
137,135.71,137.41,1
138,135.76,137.42,1
139,135.82,137.44,1
140,135.91,137.46,1
140,135.99,137.49,1
137,136.01,137.48,1
137,136.03,137.48,1
139,136.09,137.49,1
138,136.13,137.50,1
139,136.18,137.51,1
137,136.20,137.51,1
141,136.30,137.54,1
137,136.31,137.54,1
137,136.32,137.53,1
137,136.34,137.53,1
139,136.39,137.54,1
137,136.40,137.54,1
139,136.46,137.55,1
139,136.51,137.57,1
139,136.56,137.58,1
139,136.60,137.59,1
139,136.65,137.61,1
139,136.70,137.62,1
141,136.79,137.66,1
138,136.81,137.66,1
138,136.83,137.66,1
139,136.88,137.68,1
139,136.92,137.69,1
137,136.92,137.68,1
138,136.94,137.69,1
141,137.02,137.72,1
143,137.14,137.77,1
141,137.22,137.80,1
146,137.40,137.89,1
142,137.49,137.93,1
142,137.58,137.97,1
142,137.67,138.01,1
141,137.73,138.04,1
147,137.92,138.13,1
143,138.02,138.18,1
143,138.12,138.22,2
146,138.28,138.30,2
142,138.35,138.34,3
143,138.45,138.39,3
142,138.52,138.42,4
143,138.61,138.47,4
143,138.69,138.51,4
143,138.78,138.56,4
141,138.82,138.58,4
142,138.89,138.62,4
142,138.95,138.65,4
143,139.03,138.69,4
141,139.07,138.72,4
142,139.13,138.75,4
143,139.21,138.79,4
142,139.26,138.82,4
142,139.32,138.86,4
142,139.37,138.89,4
141,139.40,138.91,4
143,139.48,138.95,4
141,139.51,138.97,4
143,139.58,139.01,4
143,139.64,139.05,4
141,139.67,139.07,4
141,139.70,139.09,4
142,139.74,139.12,4
143,139.81,139.16,4
145,139.91,139.22,4
143,139.97,139.25,4
145,140.08,139.31,4
145,140.17,139.37,4
143,140.23,139.40,4
144,140.31,139.45,4
143,140.36,139.49,4
144,140.43,139.53,4
143,140.48,139.57,4
144,140.55,139.61,4
148,140.70,139.69,4
144,140.77,139.74,4
143,140.81,139.77,4
147,140.94,139.84,4
143,140.98,139.87,4
148,141.12,139.95,4
147,141.24,140.02,4
149,141.39,140.11,4
149,141.54,140.20,4
146,141.63,140.26,4
148,141.76,140.34,4
148,141.89,140.42,4
149,142.03,140.50,4
151,142.21,140.61,4
149,142.34,140.69,4
149,142.48,140.77,4
148,142.59,140.85,4
149,142.71,140.93,4
149,142.84,141.01,4
149,142.96,141.09,4
151,143.12,141.19,4
153,143.32,141.30,4
155,143.56,141.44,4
151,143.70,141.54,4
151,143.85,141.63,4
152,144.01,141.74,4
152,144.17,141.84,4
152,144.33,141.94,4
153,144.50,142.05,4
153,144.67,142.16,4
153,144.84,142.27,4
155,145.04,142.40,4
153,145.20,142.50,4
153,145.36,142.61,4
152,145.49,142.70,4
154,145.66,142.81,4
152,145.79,142.91,4
152,145.91,143.00,4
157,146.13,143.14,4
153,146.27,143.24,4
153,146.41,143.33,4
157,146.62,143.47,4
158,146.85,143.61,4
158,147.07,143.76,4
161,147.35,143.93,4
159,147.58,144.08,4
160,147.83,144.24,4
158,148.03,144.38,4
157,148.21,144.50,4
161,148.47,144.67,4
157,148.64,144.79,4
157,148.80,144.92,4
158,148.99,145.05,4
159,149.19,145.19,4
159,149.39,145.32,4
158,149.56,145.45,4
162,149.81,145.62,4
160,150.01,145.76,4
161,150.23,145.91,4
160,150.43,146.05,4
159,150.60,146.18,4
161,150.80,146.33,4
160,150.99,146.47,4
164,151.25,146.64,4
160,151.42,146.78,4
160,151.60,146.91,4
160,151.76,147.04,4
160,151.93,147.17,4
159,152.07,147.29,4
159,152.21,147.40,4
165,152.46,147.58,4
161,152.63,147.71,4
161,152.80,147.85,4
161,152.97,147.98,4
167,153.25,148.17,4
168,153.54,148.37,4
164,153.75,148.52,4
162,153.92,148.66,4
164,154.12,148.81,4
164,154.32,148.96,4
164,154.51,149.11,4
163,154.68,149.25,4
165,154.89,149.41,4
163,155.05,149.55,4
165,155.25,149.70,4
162,155.38,149.82,4
165,155.57,149.98,4
167,155.80,150.15,4
167,156.03,150.31,4
166,156.23,150.47,4
165,156.40,150.62,4
165,156.57,150.76,4
166,156.76,150.91,4
165,156.93,151.05,4
167,157.13,151.21,4
165,157.29,151.35,4
169,157.52,151.53,4
167,157.71,151.68,4
167,157.90,151.84,4
167,158.08,151.99,4
168,158.28,152.15,4
171,158.53,152.34,4
166,158.68,152.47,4
173,158.97,152.68,4
171,159.21,152.86,4
168,159.38,153.01,4
172,159.64,153.20,4
169,159.82,153.36,4
169,160.01,153.52,4
169,160.19,153.67,4
170,160.38,153.83,4
169,160.55,153.99,4
169,160.72,154.14,4
169,160.89,154.29,4
169,161.05,154.43,4
168,161.19,154.57,4
170,161.37,154.72,4
169,161.52,154.87,4
169,161.67,155.01,4
168,161.80,155.14,4
169,161.94,155.28,4
176,162.22,155.48,4
181,162.60,155.74,4
176,162.86,155.94,4
175,163.11,156.13,4
181,163.46,156.38,4
186,163.92,156.68,4
181,164.26,156.92,4
177,164.51,157.12,4
176,164.74,157.31,4
179,165.03,157.53,4
178,165.29,157.73,4
177,165.52,157.92,4
177,165.75,158.11,4
179,166.02,158.32,4
185,166.40,158.59,4
185,166.77,158.85,4
180,167.03,159.06,4
180,167.29,159.27,4
179,167.53,159.47,4
183,167.83,159.71,4
185,168.18,159.96,4
179,168.39,160.15,4
187,168.77,160.42,4
183,169.05,160.64,4
181,169.29,160.85,4
184,169.58,161.08,4
181,169.81,161.28,4
186,170.14,161.53,4
186,170.45,161.77,4
189,170.82,162.04,4
184,171.09,162.26,4
184,171.35,162.48,4
191,171.74,162.77,4
189,172.08,163.03,4
186,172.36,163.26,4
186,172.64,163.48,4
187,172.92,163.72,4
187,173.20,163.95,4
187,173.48,164.18,4
197,173.95,164.51,4
193,174.33,164.80,4
189,174.63,165.04,4
192,174.97,165.31,4
194,175.35,165.59,4
198,175.81,165.92,4
198,176.25,166.24,4
197,176.67,166.55,4
193,176.99,166.81,4
196,177.37,167.10,4
194,177.70,167.37,4
197,178.09,167.67,4
193,178.39,167.92,4
196,178.74,168.20,4
199,179.15,168.51,4
199,179.54,168.82,4
199,179.93,169.12,4
197,180.27,169.40,4
202,180.71,169.72,4
209,181.27,170.12,4
211,181.87,170.52,4
202,182.27,170.84,4
207,182.77,171.20,4
215,183.41,171.64,4
217,184.08,172.09,4
219,184.78,172.56,4
211,185.31,172.95,4
211,185.82,173.33,4
214,186.38,173.73,4
211,186.87,174.11,4
211,187.36,174.47,4
211,187.83,174.84,4
220,188.47,175.29,4
216,189.02,175.70,4
213,189.50,176.07,4
214,189.99,176.45,4
218,190.55,176.87,4
217,191.08,177.27,4
215,191.56,177.64,4
217,192.07,178.04,4
215,192.53,178.41,4
217,193.02,178.79,4
214,193.44,179.15,4
216,193.89,179.51,4
223,194.47,179.95,4
225,195.08,180.40,4
220,195.58,180.80,4
221,196.09,181.20,4
220,196.57,181.59,4
223,197.10,182.00,4
221,197.57,182.39,4
221,198.04,182.78,4
221,198.50,183.16,4
221,198.95,183.54,4
219,199.35,183.89,4
220,199.77,184.25,4
219,200.15,184.60,4
219,200.53,184.94,4
222,200.96,185.31,4
223,201.40,185.69,4
227,201.91,186.10,4
231,202.49,186.55,4
229,203.02,186.98,4
227,203.50,187.38,4
232,204.07,187.82,4
237,204.73,188.32,4
234,205.31,188.77,4
232,205.85,189.21,4
230,206.33,189.61,4
233,206.86,190.05,4
229,207.31,190.44,4
231,207.78,190.84,4
236,208.35,191.29,4
229,208.76,191.67,4
232,209.22,192.07,4
233,209.70,192.48,4
232,210.15,192.88,4
230,210.54,193.25,4
233,210.99,193.65,4
230,211.37,194.01,4
230,211.74,194.37,4
229,212.09,194.72,4
231,212.47,195.08,4
236,212.94,195.49,4
234,213.36,195.87,4
231,213.71,196.23,4
233,214.10,196.59,4
236,214.54,196.99,4
231,214.87,197.33,4
237,215.31,197.72,4
241,215.82,198.16,4
237,216.25,198.55,4
236,216.64,198.92,4
237,217.05,199.30,4
241,217.53,199.72,4
239,217.96,200.11,4
236,218.32,200.47,4
236,218.67,200.82,4
240,219.10,201.22,4
242,219.56,201.62,4
240,219.96,202.01,4
242,220.41,202.41,4
241,220.82,202.79,4
243,221.26,203.20,4
239,221.62,203.55,4
241,222.00,203.93,4
239,222.34,204.28,4
243,222.76,204.67,4
240,223.10,205.02,4
245,223.54,205.42,4
245,223.97,205.82,4
241,224.31,206.17,4
242,224.66,206.53,4
241,224.99,206.87,4
244,225.37,207.24,4
245,225.76,207.62,4
243,226.11,207.97,4
242,226.42,208.31,4
243,226.76,208.66,4
244,227.10,209.01,4
243,227.42,209.35,4
244,227.75,209.70,4
242,228.04,210.02,4
243,228.34,210.35,4
247,228.71,210.72,4
247,229.07,211.08,4
245,229.39,211.42,4
243,229.66,211.74,4
243,229.93,212.05,4
244,230.21,212.37,4
243,230.47,212.68,4
248,230.82,213.03,4
247,231.14,213.37,4
249,231.50,213.72,4
245,231.77,214.04,4
244,232.01,214.34,4
244,232.25,214.63,4
243,232.47,214.92,4
245,232.72,215.22,4
251,233.09,215.58,4
255,233.52,215.97,4
259,234.03,216.40,4
249,234.33,216.73,4
249,234.63,217.05,4
259,235.11,217.47,4
261,235.63,217.90,4
261,236.14,218.33,4
256,236.54,218.71,4
253,236.87,219.05,4
261,237.35,219.47,4
264,237.88,219.92,4
256,238.24,220.28,4
257,238.62,220.65,4
261,239.07,221.05,4
258,239.44,221.42,4
257,239.80,221.78,4
256,240.12,222.12,4
257,240.46,222.47,4
261,240.87,222.85,4
263,241.31,223.25,4
258,241.64,223.60,4
257,241.95,223.94,4
257,242.25,224.27,4
257,242.55,224.59,4
261,242.92,224.96,4
262,243.30,225.33,4
261,243.65,225.68,4
259,243.96,226.02,4
260,244.28,226.36,4
262,244.63,226.71,4
260,244.94,227.05,4
259,245.22,227.37,4
262,245.56,227.71,4
264,245.93,228.08,4
260,246.21,228.39,4
260,246.48,228.71,4
259,246.74,229.01,4
262,247.04,229.34,4
268,247.46,229.73,4
265,247.81,230.08,4
264,248.13,230.42,4
263,248.43,230.75,4
262,248.70,231.06,4
261,248.95,231.36,4
262,249.21,231.67,4
265,249.53,232.00,4
266,249.86,232.34,4
261,250.08,232.63,4
262,250.32,232.92,4
263,250.57,233.22,4
271,250.98,233.60,4
272,251.40,233.98,4
265,251.67,234.29,4
265,251.94,234.60,4
273,252.36,234.98,4
269,252.69,235.32,4
267,252.98,235.64,4
275,253.42,236.03,4
269,253.73,236.36,4
270,254.06,236.70,4
270,254.37,237.03,4
272,254.73,237.38,4
270,255.03,237.71,4
269,255.31,238.02,4
269,255.59,238.33,4
270,255.87,238.65,4
268,256.12,238.94,4
267,256.33,239.22,4
267,256.55,239.50,4
270,256.82,239.81,4
268,257.04,240.09,4
266,257.22,240.35,4
266,257.39,240.60,4
267,257.59,240.87,4
265,257.74,241.11,4
266,257.90,241.36,4
265,258.04,241.59,4
265,258.18,241.83,4
267,258.36,242.08,4
266,258.51,242.32,4
266,258.66,242.56,4
267,258.83,242.80,4
268,259.01,243.05,4
266,259.15,243.28,4
265,259.27,243.50,4
265,259.38,243.71,4
265,259.49,243.93,4
264,259.58,244.13,4
264,259.67,244.33,4
265,259.78,244.53,4
263,259.84,244.72,4
263,259.91,244.90,4
262,259.95,245.07,4
263,260.01,245.25,4
261,260.03,245.41,4
262,260.07,245.57,4
266,260.19,245.78,4
264,260.26,245.96,4
261,260.28,246.11,4
264,260.35,246.29,4
262,260.39,246.45,4
265,260.48,246.63,4
263,260.53,246.80,4
262,260.56,246.95,4
263,260.61,247.11,4
263,260.66,247.27,4
261,260.66,247.40,4
260,260.65,247.53,4
261,260.66,247.67,4
260,260.64,247.79,4
260,260.63,247.91,4
259,260.60,248.02,4
260,260.59,248.14,4
258,260.53,248.24,4
258,260.48,248.34,4
257,260.41,248.42,4
259,260.39,248.53,4
257,260.32,248.61,4
256,260.23,248.69,4
256,260.15,248.76,4
256,260.06,248.83,4
256,259.98,248.91,4
256,259.90,248.98,4
255,259.80,249.04,4
256,259.73,249.11,4
255,259.63,249.17,4
255,259.54,249.22,4
255,259.45,249.28,4
254,259.34,249.33,4
253,259.21,249.37,4
253,259.09,249.40,4
253,258.97,249.44,4
252,258.83,249.46,4
253,258.71,249.50,4
251,258.56,249.51,4
252,258.43,249.54,4
251,258.28,249.55,4
251,258.13,249.57,4
251,257.99,249.58,4
252,257.87,249.61,4
252,257.75,249.63,4
252,257.64,249.65,4
251,257.51,249.67,4
251,257.38,249.68,4
249,257.21,249.67,4
249,257.04,249.67,4
248,256.86,249.65,4
248,256.69,249.63,4
248,256.51,249.62,4
248,256.34,249.60,4
247,256.15,249.58,4
249,256.01,249.57,4
247,255.83,249.54,4
246,255.63,249.51,4
247,255.46,249.48,4
247,255.29,249.46,4
246,255.11,249.42,4
245,254.90,249.38,4
244,254.69,249.33,4
245,254.49,249.28,4
244,254.28,249.23,4
244,254.08,249.18,4
244,253.88,249.13,4
245,253.70,249.08,4
242,253.46,249.01,4
243,253.26,248.95,4
243,253.05,248.89,4
242,252.83,248.83,4
242,252.61,248.76,4
243,252.42,248.70,4
242,252.21,248.63,4
241,251.99,248.56,4
241,251.77,248.48,4
241,251.55,248.41,4
242,251.36,248.34,4
240,251.13,248.26,4
239,250.89,248.17,4
240,250.67,248.08,4
239,250.44,247.99,4
241,250.25,247.92,4
240,250.05,247.84,4
239,249.83,247.76,4
239,249.61,247.67,4
239,249.40,247.58,4
238,249.17,247.49,4
237,248.93,247.38,4
241,248.77,247.32,4
237,248.53,247.21,4
237,248.30,247.11,4
237,248.08,247.01,4
239,247.89,246.93,4
237,247.68,246.83,4
236,247.44,246.72,4
235,247.19,246.61,4
237,246.99,246.51,4
236,246.77,246.40,4
237,246.57,246.31,4
237,246.38,246.22,4
235,246.16,246.11,5
235,245.93,245.99,5
234,245.69,245.87,5
235,245.48,245.77,5
233,245.23,245.64,5
233,244.99,245.51,5
233,244.75,245.39,5
235,244.55,245.28,5
231,244.28,245.14,5
232,244.03,245.01,5
231,243.77,244.87,5
232,243.54,244.74,5
232,243.31,244.61,5
232,243.08,244.49,5
230,242.82,244.34,5
231,242.58,244.21,5
229,242.31,244.06,5
229,242.05,243.91,5
229,241.78,243.76,5
231,241.57,243.63,5
230,241.34,243.49,5
229,241.09,243.35,5
228,240.83,243.19,5
229,240.59,243.05,5
229,240.36,242.91,5
229,240.13,242.77,5
228,239.89,242.62,5
228,239.65,242.48,5
228,239.42,242.33,5
227,239.17,242.18,5
227,238.93,242.03,5
227,238.69,241.88,5
227,238.46,241.73,5
225,238.19,241.56,5
227,237.96,241.42,5
225,237.70,241.25,5
226,237.47,241.10,5
225,237.22,240.94,5
225,236.98,240.78,5
227,236.78,240.64,5
225,236.54,240.49,5
224,236.29,240.32,5
227,236.10,240.19,5
224,235.86,240.03,5
223,235.60,239.85,5
223,235.35,239.69,5
224,235.13,239.53,5
226,234.94,239.39,5
223,234.70,239.23,5
222,234.45,239.06,5
223,234.22,238.90,5
223,234.00,238.74,5
221,233.74,238.56,5
222,233.50,238.40,5
222,233.27,238.23,5
221,233.03,238.06,5
221,232.79,237.89,5
221,232.55,237.72,5
222,232.34,237.56,5
219,232.07,237.38,5
220,231.83,237.20,5
219,231.57,237.02,5
220,231.34,236.85,5
217,231.06,236.65,5
219,230.81,236.48,5
218,230.56,236.29,5
219,230.33,236.12,5
218,230.08,235.94,5
218,229.84,235.76,5
218,229.60,235.58,5
218,229.37,235.40,5
217,229.12,235.22,5
216,228.86,235.03,5
219,228.66,234.87,5
215,228.39,234.67,5
215,228.12,234.47,5
215,227.86,234.28,5
215,227.60,234.08,5
215,227.35,233.89,5
215,227.10,233.71,5
215,226.86,233.52,5
215,226.62,233.33,5
214,226.37,233.14,5
214,226.12,232.95,5
213,225.86,232.75,5
213,225.60,232.55,5
213,225.35,232.36,5
212,225.09,232.15,5
213,224.84,231.96,5
213,224.61,231.77,5
212,224.35,231.57,5
212,224.11,231.38,5
211,223.85,231.17,5
212,223.61,230.98,5
211,223.36,230.78,5
211,223.11,230.58,5
211,222.87,230.39,5
211,222.63,230.19,5
210,222.38,229.99,5
210,222.13,229.79,5
209,221.87,229.58,5
210,221.63,229.39,5
213,221.46,229.23,5
209,221.21,229.02,5
209,220.96,228.82,5
209,220.72,228.62,5
208,220.47,228.42,5
207,220.20,228.20,5
211,220.02,228.03,5
208,219.78,227.83,5
207,219.52,227.62,5
207,219.27,227.42,5
209,219.07,227.23,5
207,218.82,227.03,5
210,218.65,226.86,5
207,218.41,226.66,5
207,218.19,226.47,5
207,217.96,226.27,5
206,217.72,226.07,5
205,217.47,225.86,5
207,217.26,225.67,5
205,217.01,225.46,5
205,216.77,225.26,5
204,216.52,225.04,5
205,216.29,224.84,5
205,216.06,224.65,5
203,215.80,224.43,5
203,215.55,224.22,5
205,215.33,224.02,5
203,215.09,223.81,5
203,214.85,223.60,5
203,214.61,223.40,5
203,214.38,223.19,5
203,214.15,222.99,5
203,213.93,222.79,5
201,213.67,222.57,5
202,213.43,222.37,5
201,213.19,222.16,5
201,212.94,221.94,5
201,212.70,221.73,5
203,212.51,221.55,5
201,212.28,221.34,5
202,212.07,221.15,5
201,211.85,220.95,5
200,211.61,220.74,5
200,211.38,220.53,5
201,211.17,220.33,5
202,210.99,220.15,5
200,210.77,219.95,5
199,210.54,219.74,5
199,210.31,219.53,5
200,210.10,219.34,5
199,209.88,219.13,5
200,209.68,218.94,5
199,209.47,218.74,5
200,209.28,218.56,5
198,209.05,218.35,5
198,208.83,218.15,5
197,208.59,217.94,5
197,208.36,217.73,5
197,208.13,217.52,5
198,207.93,217.32,5
195,207.67,217.10,5
199,207.50,216.92,5
196,207.27,216.71,5
196,207.04,216.50,5
195,206.80,216.29,5
196,206.59,216.09,5
196,206.38,215.88,5
195,206.15,215.68,5
195,205.93,215.47,5
195,205.71,215.26,5
196,205.51,215.07,5
195,205.30,214.87,5
195,205.10,214.67,5
194,204.87,214.47,5
193,204.64,214.25,5
193,204.40,214.04,5
195,204.22,213.85,5
193,203.99,213.64,5
193,203.77,213.43,5
193,203.56,213.23,5
193,203.35,213.03,5
192,203.12,212.82,5
192,202.90,212.61,5
193,202.70,212.41,5
195,202.54,212.24,5
193,202.35,212.05,5
193,202.17,211.85,5
193,201.98,211.67,5
193,201.80,211.48,5
192,201.61,211.28,5
191,201.40,211.08,5
191,201.19,210.88,5
193,201.02,210.70,5
191,200.82,210.51,5
190,200.61,210.30,5
191,200.41,210.11,5
191,200.23,209.92,5
191,200.04,209.73,5
189,199.82,209.52,5
189,199.60,209.31,5
191,199.43,209.13,5
190,199.24,208.94,5
189,199.04,208.74,5
190,198.86,208.55,5
190,198.68,208.37,5
189,198.49,208.17,5
189,198.30,207.98,5
189,198.11,207.79,5
188,197.91,207.59,5
187,197.69,207.39,5
186,197.46,207.17,5
189,197.29,206.99,5
187,197.08,206.79,5
187,196.88,206.60,5
188,196.70,206.41,5
187,196.51,206.22,5
188,196.34,206.03,5
186,196.13,205.83,5
186,195.93,205.63,5
187,195.75,205.45,5
185,195.54,205.24,5
185,195.33,205.04,5
185,195.12,204.84,5
187,194.96,204.66,5
186,194.78,204.48,5
185,194.58,204.28,5
185,194.39,204.09,5
185,194.20,203.90,5
185,194.02,203.71,5
184,193.82,203.51,5
183,193.60,203.31,5
185,193.43,203.12,5
184,193.24,202.93,5
184,193.06,202.74,5
183,192.85,202.54,5
184,192.68,202.36,5
183,192.48,202.17,5
183,192.29,201.97,5
184,192.13,201.79,5
183,191.95,201.61,5
183,191.77,201.42,5
183,191.59,201.24,5
183,191.42,201.05,5
183,191.25,200.87,5
183,191.09,200.69,5
181,190.88,200.50,5
183,190.73,200.32,5
181,190.53,200.13,5
182,190.36,199.95,5
185,190.25,199.80,5
183,190.11,199.63,5
182,189.95,199.45,5
183,189.81,199.29,5
181,189.63,199.11,5
180,189.44,198.92,5
181,189.27,198.74,5
180,189.09,198.55,5
180,188.90,198.36,5
182,188.77,198.20,5
180,188.59,198.02,5
179,188.40,197.83,5
180,188.23,197.65,5
180,188.07,197.47,5
180,187.90,197.30,5
179,187.73,197.12,5
176,187.49,196.90,5
180,187.34,196.74,5
180,187.20,196.57,5
178,187.01,196.38,5
177,186.81,196.19,5
179,186.66,196.02,5
179,186.50,195.85,5
178,186.33,195.67,5
178,186.17,195.49,5
177,185.98,195.31,5
177,185.80,195.12,5
177,185.63,194.94,5
177,185.45,194.76,5
177,185.28,194.59,5
177,185.12,194.41,5
178,184.98,194.25,5
176,184.80,194.06,5
177,184.64,193.89,5
176,184.47,193.71,5
175,184.28,193.53,5
177,184.13,193.36,5
175,183.95,193.18,5
175,183.77,193.00,5
175,183.60,192.82,5
175,183.42,192.64,5
175,183.26,192.46,5
175,183.09,192.29,5
174,182.91,192.10,5
176,182.77,191.94,5
174,182.60,191.76,5
173,182.40,191.58,5
174,182.24,191.40,5
175,182.09,191.24,5
174,181.93,191.06,5
173,181.75,190.88,5
175,181.62,190.72,5
173,181.44,190.55,5
173,181.27,190.37,5
173,181.11,190.20,5
170,180.89,190.00,5
174,180.75,189.84,5
171,180.55,189.65,5
171,180.36,189.46,5
172,180.20,189.29,5
172,180.03,189.11,5
172,179.87,188.94,5
172,179.71,188.77,5
173,179.58,188.61,5
171,179.41,188.44,5
171,179.24,188.26,5
170,179.05,188.08,5
171,178.89,187.91,5
171,178.74,187.74,5
170,178.56,187.56,5
169,178.37,187.38,5
170,178.20,187.21,5
169,178.02,187.02,5
170,177.86,186.85,5
169,177.68,186.67,5
171,177.55,186.52,5
169,177.38,186.34,5
169,177.21,186.17,5
171,177.08,186.02,5
170,176.94,185.86,5
169,176.78,185.69,5
168,176.61,185.51,5
168,176.44,185.34,5
171,176.33,185.19,5
169,176.18,185.03,5
168,176.02,184.86,5
169,175.88,184.70,5
168,175.72,184.54,5
169,175.59,184.38,5
167,175.41,184.21,5
168,175.27,184.04,5
167,175.10,183.87,5
167,174.94,183.70,5
167,174.78,183.54,5
168,174.64,183.38,5
167,174.49,183.22,5
169,174.38,183.08,5
167,174.23,182.92,5
168,174.11,182.77,5
167,173.97,182.61,5
166,173.81,182.44,5
168,173.69,182.30,5
169,173.60,182.17,5
167,173.47,182.01,5
167,173.34,181.86,5
167,173.21,181.71,5
166,173.06,181.56,5
168,172.96,181.42,5
166,172.82,181.27,5
165,172.67,181.11,5
165,172.51,180.94,5
166,172.38,180.79,5
165,172.24,180.64,5
167,172.13,180.50,5
166,172.01,180.36,5
167,171.91,180.22,5
165,171.77,180.07,5
165,171.64,179.92,5
167,171.54,179.79,5
165,171.41,179.64,5
165,171.28,179.50,5
164,171.14,179.34,5
165,171.02,179.20,5
165,170.89,179.06,5
165,170.78,178.91,5
164,170.64,178.77,5
164,170.51,178.62,5
164,170.38,178.47,5
164,170.25,178.33,5
165,170.15,178.19,5
163,170.00,178.04,5
164,169.88,177.90,5
163,169.75,177.75,5
164,169.63,177.61,5
164,169.52,177.48,5
164,169.41,177.34,5
163,169.28,177.20,5
164,169.17,177.07,5
163,169.05,176.93,5
163,168.93,176.79,5
161,168.77,176.63,5
164,168.68,176.50,5
163,168.56,176.37,5
163,168.45,176.24,5
162,168.32,176.09,5
164,168.24,175.97,5
161,168.09,175.82,5
161,167.95,175.67,5
161,167.81,175.53,5
163,167.71,175.40,5
161,167.58,175.26,5
162,167.47,175.13,5
161,167.34,174.98,5
162,167.23,174.85,5
163,167.15,174.74,5
161,167.02,174.60,5
161,166.90,174.46,5
163,166.83,174.35,5
160,166.69,174.20,5
160,166.56,174.06,5
159,166.40,173.91,5
161,166.30,173.78,5
161,166.19,173.65,5
160,166.07,173.52,5
163,166.00,173.41,5
157,165.82,173.25,5
160,165.71,173.12,5
159,165.57,172.98,5
160,165.46,172.85,5
160,165.35,172.72,5
159,165.23,172.58,5
161,165.14,172.46,5
160,165.04,172.34,5
159,164.92,172.21,5
159,164.80,172.07,5
159,164.68,171.94,5
160,164.59,171.82,5
158,164.46,171.69,5
159,164.35,171.56,5
159,164.24,171.43,5
159,164.14,171.31,5
160,164.05,171.20,5
158,163.93,171.06,5
158,163.81,170.93,5
159,163.72,170.81,5
159,163.62,170.70,5
157,163.49,170.56,5
157,163.36,170.42,5
158,163.25,170.30,5
157,163.13,170.17,5
157,163.01,170.03,5
156,162.87,169.89,5
157,162.75,169.77,5
157,162.63,169.64,5
156,162.50,169.50,5
155,162.35,169.36,5
157,162.24,169.23,5
155,162.10,169.09,5
156,161.98,168.96,5
157,161.88,168.84,5
157,161.78,168.72,5
155,161.65,168.58,5
155,161.51,168.45,5
157,161.42,168.33,5
155,161.29,168.20,5
155,161.17,168.07,5
154,161.02,167.93,5
156,160.92,167.81,5
157,160.85,167.70,5
156,160.75,167.58,5
154,160.61,167.45,5
156,160.52,167.33,5
154,160.39,167.20,5
156,160.30,167.09,5
153,160.16,166.95,5
155,160.05,166.83,5
155,159.95,166.71,5
155,159.85,166.59,5
154,159.74,166.47,5
153,159.60,166.33,5
153,159.47,166.20,5
153,159.34,166.07,5
153,159.21,165.94,5
155,159.13,165.83,5
153,159.01,165.70,5
154,158.91,165.58,5
153,158.79,165.46,5
154,158.69,165.34,5
153,158.58,165.22,5
153,158.47,165.10,5
153,158.36,164.97,5
153,158.25,164.85,5
152,158.13,164.73,5
152,158.00,164.60,5
154,157.92,164.49,5
152,157.80,164.37,5
153,157.71,164.25,5
154,157.63,164.15,5
153,157.54,164.04,5
152,157.43,163.92,5
153,157.34,163.81,5
152,157.24,163.69,5
154,157.17,163.60,5
153,157.09,163.49,5
153,157.01,163.38,5
153,156.93,163.28,5
152,156.83,163.17,5
152,156.73,163.06,5
153,156.66,162.96,5
151,156.54,162.84,5
153,156.47,162.74,5
152,156.38,162.63,5
151,156.27,162.51,5
152,156.19,162.41,5
152,156.11,162.30,5
152,156.02,162.20,5
151,155.92,162.09,5
151,155.82,161.98,5
152,155.75,161.88,5
148,155.59,161.74,5
151,155.50,161.63,5
150,155.39,161.52,5
149,155.26,161.39,5
150,155.16,161.28,5
150,155.05,161.16,5
151,154.97,161.06,5
150,154.87,160.95,5
150,154.78,160.84,5
151,154.70,160.74,5
151,154.63,160.65,5
151,154.55,160.55,5
149,154.44,160.44,5
149,154.33,160.32,5
149,154.23,160.21,5
151,154.16,160.12,5
149,154.06,160.00,5
149,153.96,159.89,5
149,153.86,159.79,5
149,153.76,159.68,5
149,153.67,159.57,5
148,153.55,159.45,5
149,153.46,159.35,5
149,153.37,159.25,5
149,153.29,159.14,5
149,153.20,159.04,5
149,153.12,158.94,5
147,152.99,158.82,5
148,152.89,158.71,5
148,152.80,158.61,5
149,152.72,158.51,5
149,152.65,158.42,5
149,152.57,158.32,5
147,152.46,158.21,5
148,152.37,158.11,5
149,152.31,158.02,5
147,152.20,157.91,5
147,152.09,157.80,5
149,152.03,157.71,5
152,152.03,157.65,5
148,151.95,157.56,5
148,151.87,157.46,5
148,151.80,157.37,5
149,151.74,157.28,5
148,151.66,157.19,5
149,151.61,157.11,5
148,151.54,157.02,5
147,151.45,156.92,5
147,151.36,156.82,5
148,151.29,156.73,5
147,151.21,156.63,5
147,151.12,156.53,5
146,151.02,156.43,5
148,150.96,156.35,5
146,150.86,156.24,5
144,150.72,156.12,5
145,150.61,156.01,5
147,150.54,155.92,5
145,150.43,155.81,5
145,150.32,155.70,5
145,150.21,155.59,5
146,150.13,155.50,5
146,150.04,155.40,5
145,149.94,155.30,5
145,149.84,155.20,5
147,149.79,155.11,5
145,149.69,155.01,5
145,149.60,154.91,5
144,149.49,154.80,5
145,149.40,154.71,5
146,149.33,154.62,5
145,149.24,154.52,5
145,149.16,154.43,5
145,149.07,154.33,5
144,148.97,154.23,5
145,148.89,154.14,5
147,148.85,154.07,5
145,148.78,153.97,5
145,148.70,153.89,5
145,148.63,153.80,5
145,148.56,153.71,5
145,148.48,153.62,5
144,148.39,153.53,5
144,148.31,153.43,5
146,148.26,153.36,5
146,148.22,153.28,5
144,148.13,153.19,5
144,148.05,153.10,5
144,147.97,153.01,5
143,147.87,152.91,5
145,147.81,152.83,5
144,147.73,152.74,5
145,147.68,152.66,5
145,147.63,152.58,5
143,147.53,152.49,5
143,147.44,152.39,5
144,147.37,152.31,5
143,147.29,152.22,5
141,147.16,152.10,5
143,147.08,152.01,5
143,147.00,151.92,5
143,146.92,151.83,5
143,146.84,151.75,5
143,146.76,151.66,5
145,146.73,151.59,5
141,146.61,151.49,5
143,146.54,151.40,5
142,146.45,151.31,5
143,146.38,151.22,5
143,146.31,151.14,5
143,146.25,151.06,5
143,146.18,150.98,5
143,146.12,150.90,5
141,146.01,150.80,5
141,145.91,150.70,5
143,145.86,150.63,5
142,145.78,150.54,5
141,145.68,150.44,5
142,145.61,150.36,5
143,145.56,150.29,5
141,145.47,150.19,5
141,145.38,150.10,5
141,145.29,150.01,5
142,145.22,149.93,5
141,145.14,149.84,5
142,145.08,149.76,5
140,144.98,149.67,5
141,144.90,149.58,5
141,144.82,149.49,5
140,144.72,149.40,5
141,144.65,149.31,5
142,144.59,149.24,5
140,144.50,149.15,5
141,144.43,149.07,5
140,144.34,148.98,5
141,144.28,148.90,5
140,144.19,148.81,5
141,144.13,148.73,5
141,144.06,148.65,5
141,144.00,148.58,5
140,143.92,148.49,5
141,143.86,148.41,5
140,143.79,148.33,5
140,143.71,148.25,5
141,143.66,148.17,5
141,143.60,148.10,5
141,143.55,148.03,5
141,143.50,147.96,5
140,143.43,147.88,5
139,143.34,147.79,5
143,143.34,147.75,5
140,143.27,147.67,5
140,143.20,147.59,5
140,143.14,147.52,5
140,143.08,147.44,5
140,143.02,147.37,5
140,142.96,147.29,5
139,142.88,147.21,5
141,142.84,147.15,5
140,142.78,147.08,5
139,142.71,146.99,5
139,142.63,146.92,5
140,142.58,146.85,5
139,142.51,146.77,5
139,142.44,146.69,5
139,142.37,146.61,5
139,142.30,146.54,5
140,142.26,146.47,5
137,142.15,146.38,5
137,142.05,146.28,5
139,141.99,146.21,5
138,141.91,146.13,5
138,141.83,146.05,5
138,141.75,145.97,5
139,141.70,145.90,5
138,141.62,145.82,5
137,141.53,145.73,5
137,141.44,145.64,5
137,141.35,145.56,5
137,141.26,145.47,5
137,141.18,145.39,5
139,141.14,145.32,5
139,141.09,145.26,5
139,141.05,145.20,5
139,141.01,145.13,5
137,140.93,145.05,5
137,140.85,144.97,5
137,140.77,144.89,5
140,140.76,144.84,5
138,140.70,144.77,5
138,140.65,144.71,5
137,140.58,144.63,5
137,140.50,144.55,5
138,140.45,144.49,5
137,140.39,144.41,5
138,140.34,144.35,5
137,140.27,144.28,5
140,140.27,144.23,5
137,140.20,144.16,5
137,140.14,144.09,5
135,140.03,144.00,5
137,139.97,143.93,5
137,139.91,143.86,5
137,139.86,143.79,5
137,139.80,143.72,5
139,139.78,143.68,5
136,139.71,143.60,5
137,139.65,143.53,5
136,139.58,143.46,5
136,139.51,143.38,5
137,139.46,143.32,5
138,139.43,143.27,5
137,139.38,143.20,5
137,139.33,143.14,5
137,139.29,143.08,5
137,139.24,143.02,5
139,139.24,142.98,5
137,139.19,142.92,5
137,139.15,142.86,5
136,139.08,142.79,5
136,139.02,142.72,5
136,138.96,142.66,5
138,138.94,142.61,5
136,138.88,142.54,5
137,138.85,142.49,5
136,138.79,142.42,5
136,138.73,142.36,5
136,138.68,142.29,5
137,138.65,142.24,5
136,138.59,142.18,5
136,138.54,142.12,5
135,138.47,142.05,5
136,138.42,141.99,5
136,138.37,141.93,5
136,138.32,141.87,5
136,138.28,141.81,5
137,138.25,141.76,5
136,138.21,141.70,5
135,138.14,141.64,5
135,138.08,141.57,5
135,138.02,141.50,5
135,137.96,141.44,5
134,137.88,141.36,5
134,137.80,141.29,5
134,137.73,141.22,5
135,137.67,141.16,5
134,137.60,141.08,5
135,137.55,141.02,5
137,137.53,140.98,5
136,137.50,140.93,5
135,137.45,140.87,5
136,137.42,140.82,5
134,137.36,140.76,5
135,137.31,140.70,5
136,137.28,140.65,5
135,137.24,140.60,5
136,137.21,140.55,5
136,137.19,140.50,5
134,137.12,140.44,5
135,137.08,140.38,5
135,137.04,140.33,5
134,136.98,140.27,5
135,136.94,140.21,5
137,136.94,140.18,5
135,136.90,140.13,5
135,136.86,140.08,5
135,136.83,140.03,5
135,136.79,139.98,5
137,136.79,139.95,5
135,136.76,139.90,5
135,136.72,139.85,5
135,136.69,139.80,5
134,136.64,139.74,5
135,136.60,139.70,5
134,136.55,139.64,5
135,136.52,139.59,5
135,136.49,139.55,5
137,136.50,139.52,5
135,136.47,139.48,5
134,136.42,139.42,5
135,136.39,139.38,5
137,136.40,139.35,5
138,136.44,139.34,5
135,136.41,139.30,5
137,136.42,139.27,5
137,136.43,139.25,5
136,136.42,139.22,5
137,136.43,139.20,5
137,136.44,139.17,5
135,136.42,139.13,5
136,136.41,139.10,5
136,136.40,139.07,5
136,136.39,139.04,5
137,136.40,139.02,5
137,136.42,139.00,5
137,136.43,138.98,5
135,136.40,138.94,5
135,136.37,138.90,5
136,136.36,138.87,5
135,136.34,138.83,5
136,136.33,138.80,5
136,136.32,138.78,5
135,136.30,138.74,5
137,136.31,138.72,5
136,136.30,138.69,5
135,136.28,138.66,5
135,136.25,138.62,5
136,136.25,138.59,5
135,136.22,138.56,5
137,136.24,138.54,5
136,136.23,138.52,5
135,136.21,138.48,5
136,136.20,138.46,5
136,136.20,138.43,5
137,136.22,138.42,5
135,136.19,138.38,5
136,136.19,138.36,5
137,136.20,138.35,5
135,136.18,138.31,5
134,136.14,138.27,5
136,136.13,138.25,5
136,136.13,138.22,5
135,136.11,138.19,5
134,136.07,138.15,5
134,136.03,138.11,5
135,136.00,138.08,5
133,135.94,138.03,5
134,135.91,137.99,5
133,135.85,137.94,5
133,135.79,137.89,5
133,135.73,137.84,5
134,135.70,137.80,5
133,135.65,137.75,5
134,135.61,137.71,5
135,135.60,137.69,5
133,135.55,137.64,5
133,135.50,137.59,5
138,135.55,137.60,5
134,135.52,137.56,5
135,135.51,137.54,5
134,135.48,137.50,5
133,135.43,137.46,5
135,135.42,137.43,5
133,135.37,137.39,5
133,135.32,137.34,5
134,135.30,137.31,5
133,135.25,137.27,5
133,135.21,137.22,5
133,135.16,137.18,5
133,135.12,137.14,5
133,135.08,137.10,5
133,135.03,137.06,5
133,134.99,137.02,5
131,134.91,136.96,5
133,134.88,136.92,5
133,134.84,136.88,5
135,134.84,136.86,5
132,134.78,136.81,5
133,134.75,136.77,5
132,134.69,136.73,5
132,134.64,136.68,5
131,134.57,136.62,5
134,134.56,136.60,5
131,134.48,136.54,5
133,134.45,136.50,5
133,134.43,136.47,5
133,134.40,136.43,5
132,134.35,136.39,5
133,134.32,136.36,5
133,134.30,136.32,5
131,134.23,136.27,5
133,134.21,136.24,5
134,134.20,136.21,5
131,134.14,136.16,5
131,134.07,136.11,5
133,134.05,136.08,5
132,134.01,136.04,5
133,133.99,136.01,5
131,133.93,135.96,5
134,133.93,135.94,5
133,133.91,135.91,5
132,133.88,135.87,5
133,133.86,135.84,5
132,133.82,135.80,5
131,133.77,135.75,5
133,133.75,135.73,5
133,133.73,135.70,5
133,133.72,135.67,5
132,133.69,135.64,5
135,133.71,135.63,5
133,133.70,135.60,5
135,133.72,135.60,5
135,133.75,135.59,5
132,133.71,135.56,5
132,133.68,135.52,5
131,133.63,135.47,5
133,133.61,135.45,5
133,133.60,135.43,5
133,133.59,135.40,5
132,133.56,135.37,5
133,133.55,135.34,5
131,133.50,135.30,5
132,133.47,135.27,5
133,133.46,135.24,5
132,133.43,135.21,5
131,133.38,135.17,5
131,133.33,135.13,5
131,133.28,135.09,5
133,133.28,135.07,5
133,133.27,135.05,5
132,133.25,135.02,5
135,133.28,135.01,5
132,133.26,134.98,5
132,133.23,134.96,5
132,133.21,134.93,5
133,133.20,134.91,5
133,133.20,134.89,5
133,133.20,134.87,5
134,133.21,134.86,5
135,133.25,134.86,5
134,133.26,134.85,5
134,133.28,134.84,5
136,133.33,134.86,5
133,133.32,134.84,5
133,133.32,134.82,5
133,133.31,134.80,5
133,133.31,134.78,5
132,133.28,134.75,5
133,133.27,134.74,5
134,133.29,134.73,5
133,133.28,134.71,5
133,133.28,134.70,5
133,133.27,134.68,5
131,133.23,134.64,5
136,133.28,134.66,5
133,133.28,134.64,5
131,133.23,134.60,5
133,133.23,134.59,5
135,133.26,134.59,5
135,133.30,134.59,5
135,133.33,134.60,5
133,133.32,134.58,5
134,133.34,134.58,5
133,133.33,134.56,5
133,133.32,134.55,5
133,133.32,134.53,5
135,133.35,134.53,5
133,133.34,134.52,5
133,133.34,134.50,5
135,133.37,134.51,5
135,133.40,134.51,5
135,133.43,134.52,5
135,133.47,134.52,5
135,133.50,134.53,5
133,133.49,134.51,5
133,133.48,134.50,5
133,133.47,134.48,5
134,133.48,134.48,5
133,133.47,134.46,5
133,133.46,134.45,5
134,133.47,134.44,5
135,133.50,134.45,5
133,133.49,134.44,5
135,133.52,134.44,5
136,133.57,134.46,5
133,133.56,134.44,5
133,133.55,134.43,5
134,133.56,134.42,5
135,133.59,134.43,5
137,133.65,134.45,5
136,133.70,134.47,5
137,133.77,134.50,5
137,133.83,134.52,5
137,133.90,134.55,5
136,133.94,134.56,5
135,133.96,134.56,5
135,133.98,134.57,5
135,134.00,134.57,5
136,134.04,134.59,5
137,134.10,134.61,5
135,134.12,134.62,5
135,134.13,134.62,5
136,134.17,134.63,5
137,134.23,134.66,5
137,134.28,134.68,5
137,134.34,134.70,5
136,134.37,134.72,5
137,134.42,134.74,5
138,134.50,134.77,5
137,134.55,134.79,5
137,134.59,134.82,5
135,134.60,134.82,5
137,134.65,134.84,5
135,134.66,134.84,5
135,134.66,134.84,5
137,134.71,134.86,5
139,134.80,134.91,6
141,134.92,134.97,6
137,134.96,134.99,7
140,135.06,135.04,7
137,135.10,135.06,8
140,135.20,135.11,8
135,135.20,135.11,9
137,135.23,135.12,9
137,135.27,135.14,10
139,135.34,135.18,10
136,135.36,135.19,10
139,135.43,135.23,10
138,135.48,135.26,10
138,135.53,135.28,10
138,135.58,135.31,10
138,135.63,135.34,10
139,135.70,135.37,10
140,135.78,135.42,10
141,135.89,135.48,10
142,136.01,135.54,10
138,136.05,135.57,10
142,136.17,135.63,10
141,136.26,135.68,10
140,136.34,135.73,10
145,136.51,135.82,10
141,136.60,135.87,10
143,136.73,135.94,10
141,136.81,135.99,10
142,136.92,136.05,10
145,137.08,136.14,10
145,137.24,136.23,10
142,137.33,136.29,10
144,137.47,136.37,10
146,137.64,136.46,10
148,137.85,136.58,10
143,137.95,136.64,10
149,138.17,136.77,10
149,138.39,136.89,10
146,138.54,136.98,10
146,138.69,137.07,10
146,138.83,137.16,10
148,139.02,137.27,10
148,139.20,137.37,10
150,139.41,137.50,10
148,139.58,137.61,10
148,139.75,137.71,10
151,139.98,137.84,10
149,140.16,137.95,10
149,140.33,138.06,10
148,140.49,138.16,10
152,140.72,138.30,10
148,140.86,138.40,10
148,141.01,138.50,10
147,141.13,138.58,10
146,141.22,138.65,10
148,141.36,138.75,10
148,141.49,138.84,10
148,141.62,138.93,10
149,141.77,139.03,10
148,141.89,139.12,10
150,142.06,139.23,10
152,142.26,139.36,10
152,142.45,139.49,10
149,142.58,139.58,10
151,142.75,139.69,10
149,142.88,139.79,10
149,143.00,139.88,10
153,143.20,140.01,10
151,143.35,140.12,10
154,143.57,140.26,10
151,143.72,140.37,10
152,143.88,140.48,10
151,144.02,140.59,10
153,144.20,140.71,10
155,144.42,140.86,10
154,144.61,140.99,10
153,144.78,141.11,10
156,145.00,141.26,10
156,145.22,141.40,10
153,145.38,141.52,10
153,145.53,141.63,10
153,145.68,141.75,10
153,145.83,141.86,10
153,145.97,141.97,10
154,146.13,142.09,10
152,146.25,142.19,10
155,146.42,142.32,10
154,146.57,142.44,10
153,146.70,142.54,10
154,146.85,142.66,10
159,147.09,142.82,10
162,147.39,143.01,10
156,147.56,143.14,10
157,147.75,143.28,10
157,147.94,143.42,10
156,148.10,143.54,10
155,148.24,143.66,10
157,148.41,143.79,10
155,148.54,143.90,10
158,148.73,144.04,10
158,148.92,144.18,10
162,149.18,144.36,10
159,149.38,144.51,10
159,149.57,144.65,10
165,149.88,144.86,10
168,150.24,145.09,10
165,150.53,145.29,10
164,150.80,145.47,10
167,151.13,145.69,10
166,151.42,145.89,10
166,151.72,146.09,10
173,152.14,146.36,10
167,152.44,146.57,10
165,152.69,146.75,10
167,152.98,146.96,10
166,153.24,147.15,10
164,153.45,147.31,10
165,153.68,147.49,10
174,154.09,147.76,10
168,154.37,147.96,10
173,154.74,148.21,10
170,155.05,148.43,10
172,155.38,148.66,10
170,155.68,148.88,10
169,155.94,149.08,10
169,156.20,149.28,10
169,156.46,149.47,10
170,156.73,149.68,10
169,156.98,149.87,10
168,157.20,150.05,10
169,157.43,150.24,10
173,157.74,150.47,10
169,157.97,150.66,10
167,158.15,150.82,10
170,158.39,151.01,10
169,158.60,151.19,10
169,158.81,151.37,10
169,159.01,151.55,10
172,159.27,151.75,10
171,159.51,151.94,10
170,159.72,152.12,10
174,160.00,152.34,10
177,160.34,152.59,10
172,160.57,152.78,10
174,160.84,153.00,10
175,161.13,153.22,10
175,161.40,153.43,10
174,161.66,153.64,10
174,161.90,153.84,10
174,162.14,154.04,10
175,162.40,154.25,10
179,162.73,154.50,10
174,162.96,154.70,10
179,163.28,154.94,10
175,163.51,155.14,10
176,163.76,155.35,10
179,164.07,155.58,10
188,164.55,155.91,10
184,164.94,156.19,10
181,165.26,156.44,10
182,165.59,156.69,10
179,165.86,156.92,10
179,166.12,157.14,10
181,166.42,157.38,10
184,166.77,157.64,10
188,167.20,157.95,10
191,167.67,158.28,10
183,167.98,158.52,10
184,168.30,158.78,10
184,168.61,159.03,10
189,169.02,159.33,10
194,169.52,159.68,10
200,170.13,160.08,10
194,170.61,160.42,10
193,171.06,160.75,10
194,171.51,161.08,10
195,171.98,161.42,10
197,172.48,161.77,10
194,172.92,162.10,10
193,173.32,162.40,10
192,173.69,162.70,10
196,174.14,163.03,10
198,174.61,163.38,10
195,175.02,163.70,10
197,175.46,164.03,10
194,175.83,164.33,10
196,176.24,164.65,10
198,176.67,164.98,10
197,177.08,165.30,10
197,177.48,165.62,10
195,177.83,165.91,10
195,178.17,166.20,10
200,178.61,166.54,10
204,179.11,166.92,10
198,179.49,167.23,10
198,179.86,167.53,10
198,180.22,167.84,10
201,180.64,168.17,10
203,181.09,168.52,10
201,181.49,168.84,10
198,181.82,169.14,10
199,182.16,169.43,10
200,182.52,169.74,10
200,182.87,170.04,10
201,183.23,170.35,10
204,183.64,170.69,10
200,183.97,170.98,10
201,184.31,171.28,10
206,184.75,171.63,10
200,185.05,171.91,10
202,185.39,172.21,10
205,185.78,172.54,10
203,186.13,172.85,10
206,186.52,173.18,10
207,186.93,173.52,10
203,187.25,173.81,10
203,187.57,174.10,10
206,187.94,174.42,10
206,188.30,174.74,10
210,188.73,175.09,10
207,189.10,175.41,10
205,189.42,175.71,10
207,189.77,176.02,10
210,190.17,176.36,10
205,190.47,176.64,10
213,190.92,177.01,10
217,191.44,177.41,10
214,191.89,177.77,10
212,192.30,178.12,10
214,192.73,178.47,10
213,193.13,178.82,10
212,193.51,179.15,10
211,193.86,179.47,10
211,194.20,179.79,10
215,194.62,180.14,10
214,195.01,180.48,10
214,195.39,180.81,10
212,195.72,181.12,10
211,196.03,181.42,10
211,196.33,181.72,10
211,196.62,182.01,10
212,196.93,182.31,10
212,197.23,182.61,10
213,197.54,182.91,10
213,197.85,183.21,10
215,198.20,183.53,10
213,198.49,183.83,10
211,198.74,184.10,10
211,198.99,184.37,10
214,199.29,184.66,10
217,199.64,184.99,10
213,199.91,185.27,10
221,200.33,185.62,10
222,200.76,185.99,10
218,201.11,186.31,10
215,201.39,186.59,10
217,201.70,186.90,10
226,202.18,187.29,10
222,202.58,187.64,10
221,202.95,187.97,10
218,203.25,188.27,10
219,203.57,188.58,10
222,203.93,188.91,10
218,204.22,189.20,10
219,204.51,189.50,10
219,204.80,189.80,10
221,205.12,190.11,10
220,205.42,190.41,10
220,205.71,190.70,10
222,206.04,191.02,10
220,206.32,191.31,10
225,206.69,191.64,10
224,207.04,191.97,10
230,207.50,192.35,10
228,207.91,192.70,10
224,208.23,193.02,10
235,208.77,193.44,10
224,209.07,193.74,10
224,209.37,194.04,10
229,209.76,194.39,10
227,210.11,194.72,10
226,210.42,195.03,10
229,210.80,195.37,10
229,211.16,195.71,10
229,211.52,196.04,10
225,211.79,196.33,10
226,212.07,196.63,10
225,212.33,196.91,10
225,212.58,197.19,10
226,212.85,197.48,10
232,213.23,197.83,10
231,213.59,198.16,10
228,213.88,198.46,10
225,214.10,198.72,10
231,214.44,199.04,10
236,214.87,199.41,10
227,215.11,199.69,10
232,215.45,200.01,10
230,215.74,200.31,10
229,216.01,200.60,10
229,216.27,200.88,10
229,216.52,201.16,10
234,216.87,201.49,10
232,217.17,201.80,10
233,217.49,202.11,10
230,217.74,202.39,10
233,218.04,202.69,10
234,218.36,203.01,10
232,218.64,203.30,10
233,218.92,203.59,10
233,219.20,203.89,10
231,219.44,204.16,10
231,219.67,204.43,10
233,219.94,204.71,10
232,220.18,204.99,10
230,220.38,205.24,10
231,220.59,205.49,10
232,220.82,205.76,10
230,221.00,206.00,10
229,221.16,206.23,10
229,221.32,206.46,10
230,221.49,206.70,10
230,221.66,206.93,10
232,221.87,207.18,10
232,222.07,207.43,10
232,222.27,207.67,10
235,222.52,207.95,10
232,222.71,208.19,10
236,222.98,208.46,10
243,223.38,208.81,10
243,223.77,209.15,10
237,224.04,209.43,10
241,224.38,209.75,10
249,224.87,210.14,10
251,225.39,210.55,10
253,225.94,210.97,10
243,226.28,211.29,10
245,226.66,211.63,10
249,227.11,212.00,10
246,227.48,212.34,10
244,227.81,212.66,10
247,228.20,213.00,10
244,228.51,213.31,10
242,228.78,213.60,10
243,229.07,213.89,10
242,229.33,214.17,10
243,229.60,214.46,10
242,229.85,214.74,10
243,230.11,215.02,10
244,230.39,215.31,10
242,230.62,215.58,10
243,230.87,215.85,10
242,231.09,216.11,10
243,231.33,216.38,10
242,231.54,216.64,10
245,231.81,216.92,10
246,232.10,217.21,10
243,232.31,217.47,10
243,232.53,217.73,10
242,232.72,217.97,10
243,232.92,218.22,10
241,233.08,218.45,10
241,233.24,218.67,10
243,233.44,218.92,10
242,233.61,219.15,10
241,233.76,219.37,10
240,233.88,219.57,10
243,234.06,219.81,10
241,234.20,220.02,10
240,234.32,220.22,10
239,234.41,220.41,10
241,234.54,220.61,10
242,234.69,220.83,10
241,234.82,221.03,10
241,234.94,221.23,10
242,235.08,221.43,10
239,235.16,221.61,10
239,235.24,221.78,10
241,235.35,221.98,10
240,235.45,222.16,10
242,235.58,222.35,10
240,235.67,222.53,10
242,235.79,222.73,10
241,235.90,222.91,10
242,236.02,223.10,10
243,236.16,223.30,10
241,236.26,223.48,10
241,236.35,223.65,10
240,236.42,223.81,10
237,236.44,223.95,10
240,236.51,224.11,10
238,236.54,224.25,10
239,236.59,224.39,10
240,236.65,224.55,10
239,236.70,224.69,10
238,236.73,224.83,10
237,236.73,224.95,10
238,236.76,225.08,10
236,236.74,225.19,10
236,236.73,225.30,10
237,236.73,225.41,10
236,236.72,225.52,10
235,236.68,225.61,10
235,236.65,225.71,10
236,236.64,225.81,10
236,236.62,225.91,10
234,236.57,225.99,10
234,236.52,226.07,10
233,236.45,226.14,10
234,236.40,226.22,10
233,236.33,226.29,10
234,236.29,226.37,10
234,236.24,226.44,10
233,236.18,226.51,10
232,236.09,226.56,10
231,235.99,226.61,10
233,235.93,226.67,10
233,235.87,226.73,10
232,235.79,226.79,10
231,235.70,226.83,10
233,235.65,226.89,10
232,235.57,226.94,10
230,235.46,226.97,10
231,235.37,227.01,10
228,235.22,227.02,10
228,235.08,227.03,10
230,234.98,227.06,10
231,234.90,227.10,10
228,234.76,227.11,10
228,234.63,227.12,10
228,234.49,227.13,10
229,234.38,227.15,10
227,234.24,227.15,10
228,234.11,227.15,10
228,233.99,227.16,10
228,233.87,227.17,10
228,233.75,227.18,10
228,233.64,227.19,10
228,233.52,227.20,10
227,233.39,227.19,10
226,233.25,227.18,10
226,233.10,227.17,10
227,232.98,227.17,10
225,232.82,227.15,10
225,232.66,227.13,10
225,232.51,227.10,10
226,232.38,227.09,10
224,232.21,227.06,10
224,232.05,227.03,10
224,231.89,227.00,10
225,231.75,226.98,10
224,231.59,226.95,10
223,231.42,226.91,10
223,231.25,226.87,10
223,231.09,226.83,10
222,230.91,226.79,10
222,230.73,226.74,10
221,230.53,226.68,10
221,230.34,226.62,10
219,230.12,226.55,10
221,229.93,226.49,10
222,229.78,226.45,10
220,229.58,226.38,10
220,229.39,226.32,10
221,229.22,226.27,10
220,229.04,226.20,10
219,228.84,226.13,10
219,228.64,226.06,10
219,228.45,225.99,10
218,228.24,225.91,10
221,228.09,225.86,10
218,227.89,225.78,10
218,227.69,225.70,10
219,227.52,225.64,10
218,227.33,225.56,10
218,227.14,225.48,10
218,226.96,225.41,10
217,226.76,225.33,10
217,226.56,225.24,10
218,226.39,225.17,10
216,226.19,225.08,10
216,225.98,224.99,10
215,225.76,224.89,10
216,225.57,224.80,10
215,225.36,224.70,10
216,225.17,224.61,10
214,224.94,224.51,10
214,224.73,224.40,10
215,224.53,224.31,10
216,224.36,224.23,10
216,224.19,224.14,11
214,223.99,224.04,11
214,223.79,223.94,11
214,223.59,223.84,11
214,223.40,223.74,11
214,223.21,223.65,11
212,222.99,223.53,11
212,222.77,223.41,11
214,222.59,223.32,11
212,222.38,223.21,11
212,222.18,223.09,11
214,222.01,223.00,11
211,221.79,222.88,11
212,221.60,222.78,11
212,221.40,222.67,11
216,221.30,222.60,11
211,221.09,222.48,11
209,220.85,222.35,11
210,220.63,222.23,11
211,220.44,222.11,11
211,220.25,222.00,11
209,220.02,221.87,11
209,219.80,221.74,11
209,219.59,221.62,11
208,219.36,221.48,11
210,219.17,221.37,11
209,218.97,221.24,11
207,218.73,221.10,11
208,218.51,220.97,11
207,218.28,220.83,11
209,218.10,220.71,11
209,217.91,220.59,11
207,217.70,220.46,11
207,217.48,220.32,11
207,217.27,220.19,11
207,217.07,220.06,11
207,216.87,219.93,11
207,216.67,219.80,11
209,216.51,219.69,11
208,216.34,219.57,11
207,216.16,219.45,11
206,215.95,219.31,11
205,215.74,219.17,11
205,215.52,219.03,11
205,215.31,218.89,11
206,215.12,218.76,11
205,214.92,218.62,11
206,214.74,218.50,11
204,214.53,218.35,11
203,214.30,218.20,11
207,214.15,218.08,11
203,213.93,217.93,11
204,213.73,217.79,11
203,213.52,217.65,11
203,213.31,217.50,11
204,213.12,217.37,11
205,212.96,217.24,11
202,212.74,217.09,11
202,212.52,216.94,11
202,212.31,216.79,11
202,212.11,216.64,11
201,211.88,216.48,11
201,211.67,216.33,11
204,211.51,216.21,11
202,211.32,216.06,11
201,211.12,215.91,11
199,210.87,215.74,11
201,210.68,215.60,11
201,210.48,215.45,11
199,210.25,215.29,11
200,210.05,215.13,11
202,209.89,215.00,11
199,209.67,214.84,11
199,209.46,214.68,11
199,209.25,214.53,11
199,209.04,214.37,11
199,208.84,214.22,11
198,208.62,214.06,11
200,208.45,213.92,11
201,208.30,213.79,11
199,208.12,213.64,11
198,207.91,213.48,11
198,207.72,213.33,11
199,207.54,213.18,11
197,207.33,213.02,11
196,207.10,212.85,11
198,206.92,212.70,11
198,206.74,212.56,11
196,206.53,212.39,11
198,206.36,212.25,11
195,206.13,212.07,11
195,205.91,211.90,11
195,205.69,211.73,11
194,205.46,211.56,11
196,205.27,211.40,11
196,205.08,211.25,11
194,204.86,211.08,11
194,204.64,210.90,11
193,204.41,210.73,11
194,204.20,210.56,11
194,204.00,210.39,11
193,203.78,210.22,11
194,203.58,210.06,11
195,203.41,209.91,11
194,203.22,209.75,11
192,203.00,209.57,11
192,202.78,209.39,11
194,202.60,209.24,11
194,202.43,209.09,11
192,202.22,208.92,11
192,202.02,208.75,11
194,201.86,208.60,11
191,201.64,208.42,11
191,201.43,208.25,11
190,201.20,208.07,11
193,201.04,207.92,11
191,200.83,207.75,11
190,200.62,207.57,11
190,200.41,207.39,11
193,200.26,207.25,11
187,199.99,207.05,11
190,199.79,206.88,11
189,199.58,206.70,11
191,199.40,206.54,11
189,199.20,206.37,11
188,198.97,206.18,11
192,198.83,206.04,11
190,198.66,205.88,11
189,198.46,205.71,11
189,198.27,205.54,11
189,198.09,205.38,11
190,197.93,205.23,11
188,197.73,205.05,11
187,197.51,204.87,11
190,197.36,204.72,11
188,197.18,204.56,11
186,196.95,204.37,11
186,196.73,204.19,11
187,196.54,204.02,11
188,196.37,203.86,11
185,196.14,203.67,11
188,195.98,203.51,11
187,195.80,203.34,11
186,195.60,203.17,11
187,195.43,203.01,11
185,195.22,202.83,11
185,195.02,202.65,11
186,194.84,202.48,11
185,194.64,202.31,11
184,194.43,202.13,11
185,194.24,201.96,11
184,194.03,201.78,11
187,193.89,201.63,11
185,193.72,201.46,11
184,193.52,201.29,11
183,193.31,201.10,11
183,193.10,200.92,11
182,192.88,200.73,11
183,192.69,200.56,11
184,192.51,200.39,11
184,192.34,200.23,11
181,192.11,200.04,11
182,191.91,199.85,11
182,191.71,199.68,11
184,191.56,199.52,11
181,191.35,199.33,11
182,191.16,199.16,11
184,191.02,199.01,11
182,190.84,198.84,11
180,190.62,198.65,11
180,190.41,198.46,11
183,190.26,198.31,11
180,190.06,198.13,11
180,189.85,197.95,11
180,189.66,197.77,11
183,189.52,197.62,11
180,189.33,197.44,11
180,189.15,197.27,11
182,189.00,197.11,11
180,188.82,196.94,11
180,188.65,196.77,11
179,188.45,196.60,11
180,188.29,196.43,11
180,188.12,196.27,11
179,187.94,196.09,11
178,187.74,195.91,11
180,187.58,195.75,11
178,187.39,195.58,11
178,187.20,195.40,11
179,187.04,195.24,11
176,186.82,195.04,11
177,186.62,194.86,11
178,186.45,194.69,11
177,186.26,194.52,11
176,186.06,194.33,11
176,185.86,194.15,11
175,185.64,193.96,11
177,185.47,193.79,11
177,185.30,193.62,11
175,185.09,193.43,11
175,184.89,193.25,11
175,184.69,193.07,11
175,184.50,192.89,11
174,184.29,192.70,11
176,184.12,192.53,11
174,183.92,192.35,11
174,183.72,192.16,11
174,183.53,191.98,11
175,183.36,191.81,11
174,183.17,191.63,11
174,182.98,191.46,11
173,182.79,191.27,11
174,182.61,191.10,11
172,182.40,190.91,11
173,182.21,190.73,11
173,182.03,190.55,11
173,181.84,190.38,11
173,181.67,190.20,11
173,181.49,190.03,11
173,181.32,189.86,11
172,181.14,189.68,11
172,180.96,189.50,11
173,180.80,189.34,11
173,180.64,189.18,11
172,180.47,189.00,11
171,180.28,188.82,11
171,180.09,188.65,11
172,179.93,188.48,11
173,179.79,188.32,11
171,179.62,188.15,11
173,179.48,188.00,11
171,179.31,187.83,11
170,179.13,187.65,11
171,178.97,187.49,11
171,178.81,187.32,11
171,178.65,187.16,11
171,178.50,187.00,11
172,178.37,186.85,11
171,178.22,186.69,11
170,178.06,186.52,11
170,177.89,186.36,11
171,177.76,186.20,11
170,177.60,186.04,11
169,177.43,185.87,11
169,177.26,185.70,11
169,177.10,185.53,11
170,176.95,185.38,11
169,176.79,185.21,11
168,176.62,185.04,11
170,176.49,184.89,11
169,176.34,184.73,11
168,176.17,184.57,11
168,176.01,184.40,11
169,175.87,184.25,11
168,175.71,184.08,11
168,175.55,183.92,11
168,175.40,183.76,11
167,175.24,183.60,11
167,175.07,183.43,11
167,174.91,183.27,11
169,174.79,183.12,11
168,174.66,182.97,11
167,174.50,182.81,11
167,174.35,182.65,11
166,174.19,182.49,11
167,174.04,182.33,11
166,173.88,182.17,11
167,173.74,182.02,11
166,173.59,181.86,11
165,173.42,181.69,11
165,173.25,181.52,11
168,173.14,181.39,11
166,173.00,181.23,11
165,172.84,181.07,11
164,172.66,180.90,11
165,172.51,180.74,11
165,172.36,180.58,11
165,172.21,180.43,11
164,172.05,180.26,11
164,171.89,180.10,11
165,171.75,179.95,11
163,171.57,179.78,11
164,171.42,179.62,11
164,171.27,179.47,11
163,171.11,179.30,11
164,170.97,179.15,11
164,170.83,179.00,11
163,170.67,178.84,11
163,170.52,178.68,11
162,170.35,178.51,11
164,170.22,178.37,11
163,170.08,178.21,11
162,169.91,178.05,11
164,169.80,177.91,11
163,169.66,177.76,11
162,169.51,177.60,11
162,169.36,177.45,11
162,169.21,177.29,11
162,169.07,177.14,11
163,168.94,177.00,11
161,168.79,176.84,11
161,168.63,176.68,11
161,168.48,176.52,11
162,168.35,176.38,11
162,168.22,176.23,11
161,168.08,176.08,11
161,167.93,175.93,11
161,167.80,175.78,11
161,167.66,175.63,11
161,167.53,175.49,11
159,167.36,175.32,11
159,167.19,175.16,11
162,167.09,175.03,11
162,166.98,174.90,11
160,166.84,174.75,11
161,166.73,174.61,11
160,166.59,174.47,11
160,166.46,174.32,11
159,166.31,174.17,11
159,166.17,174.02,11
159,166.02,173.87,11
160,165.90,173.73,11
159,165.76,173.58,11
162,165.69,173.46,11
158,165.53,173.31,11
159,165.40,173.17,11
158,165.26,173.01,11
159,165.13,172.87,11
158,164.99,172.73,11
159,164.87,172.59,11
159,164.75,172.45,11
158,164.62,172.31,11
157,164.46,172.15,11
158,164.33,172.01,11
157,164.19,171.86,11
157,164.04,171.71,11
156,163.88,171.56,11
157,163.75,171.41,11
157,163.61,171.27,11
156,163.46,171.12,11
157,163.33,170.97,11
157,163.20,170.83,11
156,163.06,170.69,11
156,162.92,170.54,11
156,162.78,170.39,11
157,162.66,170.26,11
155,162.51,170.11,11
154,162.34,169.95,11
156,162.21,169.81,11
156,162.09,169.67,11
154,161.93,169.51,11
156,161.81,169.38,11
156,161.69,169.24,11
154,161.54,169.09,11
156,161.43,168.96,11
154,161.28,168.81,11
158,161.21,168.70,11
155,161.09,168.56,11
154,160.95,168.42,11
154,160.81,168.28,11
155,160.69,168.14,11
154,160.56,168.00,11
154,160.43,167.86,11
154,160.30,167.72,11
155,160.19,167.60,11
154,160.07,167.46,11
154,159.95,167.32,11
153,159.81,167.18,11
154,159.69,167.05,11
153,159.56,166.91,11
154,159.45,166.78,11
154,159.34,166.65,11
153,159.21,166.52,11
152,159.07,166.37,11
152,158.93,166.23,11
155,158.85,166.11,11
151,158.69,165.96,11
153,158.58,165.83,11
153,158.47,165.71,11
153,158.36,165.58,11
151,158.21,165.43,11
152,158.08,165.30,11
154,158.00,165.19,11
152,157.88,165.05,11
152,157.77,164.92,11
152,157.65,164.79,11
153,157.56,164.68,11
153,157.47,164.56,11
152,157.36,164.43,11
151,157.23,164.30,11
152,157.12,164.18,11
151,157.00,164.04,11
151,156.88,163.91,11
151,156.76,163.78,11
152,156.67,163.67,11
151,156.56,163.54,11
151,156.44,163.41,11
151,156.34,163.29,11
152,156.25,163.18,11
151,156.14,163.06,11
151,156.04,162.94,11
153,155.98,162.84,11
151,155.88,162.72,11
150,155.76,162.59,11
151,155.67,162.47,11
152,155.59,162.37,11
151,155.50,162.26,11
150,155.39,162.13,11
153,155.34,162.04,11
151,155.26,161.93,11
151,155.17,161.82,11
148,155.03,161.68,11
151,154.95,161.58,11
150,154.85,161.46,11
150,154.75,161.35,11
150,154.66,161.23,11
150,154.56,161.12,11
150,154.47,161.01,11
148,154.34,160.88,11
150,154.26,160.77,11
149,154.15,160.65,11
149,154.05,160.54,11
149,153.95,160.42,11
149,153.85,160.31,11
150,153.77,160.20,11
150,153.70,160.10,11
148,153.58,159.98,11
150,153.51,159.88,11
148,153.40,159.76,11
148,153.29,159.64,11
149,153.21,159.54,11
149,153.12,159.43,11
149,153.04,159.33,11
149,152.96,159.23,11
150,152.90,159.13,11
149,152.82,159.03,11
147,152.71,158.91,11
149,152.63,158.81,11
148,152.54,158.70,11
147,152.43,158.59,11
148,152.34,158.48,11
148,152.25,158.38,11
147,152.15,158.26,11
148,152.06,158.16,11
147,151.96,158.05,11
147,151.86,157.94,11
144,151.71,157.80,11
146,151.59,157.68,11
146,151.48,157.56,11
148,151.41,157.47,11
148,151.34,157.37,11
146,151.24,157.26,11
147,151.15,157.16,11
147,151.07,157.06,11
146,150.97,156.95,11
145,150.85,156.83,11
146,150.75,156.72,11
146,150.66,156.61,11
146,150.56,156.50,11
145,150.45,156.39,11
147,150.38,156.30,11
146,150.29,156.19,11
145,150.19,156.08,11
145,150.09,155.97,11
147,150.02,155.88,11
144,149.90,155.76,11
145,149.80,155.65,11
144,149.69,155.54,11
145,149.60,155.43,11
146,149.52,155.34,11
144,149.41,155.22,11
146,149.34,155.13,11
145,149.26,155.03,11
144,149.15,154.92,11
145,149.07,154.82,11
144,148.97,154.71,11
144,148.87,154.61,11
145,148.79,154.51,11
144,148.70,154.40,11
144,148.60,154.30,11
144,148.51,154.20,11
142,148.38,154.08,11
143,148.27,153.96,11
143,148.17,153.85,11
144,148.08,153.76,11
143,147.98,153.65,11
144,147.90,153.55,11
144,147.82,153.46,11
143,147.73,153.35,11
142,147.61,153.24,11
145,147.56,153.16,11
143,147.47,153.05,11
145,147.42,152.97,11
143,147.33,152.87,11
143,147.24,152.78,11
143,147.16,152.68,11
143,147.08,152.58,11
145,147.04,152.51,11
143,146.95,152.41,11
143,146.88,152.32,11
143,146.80,152.22,11
143,146.72,152.13,11
143,146.65,152.04,11
143,146.57,151.95,11
143,146.50,151.86,11
143,146.43,151.77,11
143,146.36,151.68,11
144,146.32,151.61,11
143,146.25,151.52,11
142,146.17,151.43,11
142,146.08,151.33,11
142,146.00,151.24,11
143,145.94,151.16,11
143,145.88,151.07,11
143,145.82,150.99,11
141,145.73,150.89,11
144,145.69,150.82,11
142,145.62,150.74,11
142,145.55,150.65,11
142,145.48,150.56,11
141,145.39,150.47,11
143,145.34,150.39,11
141,145.25,150.30,11
143,145.21,150.22,11
141,145.12,150.13,11
141,145.04,150.04,11
142,144.98,149.96,11
146,145.00,149.92,11
141,144.92,149.83,11
141,144.84,149.74,11
141,144.76,149.66,11
141,144.69,149.57,11
142,144.64,149.49,11
141,144.56,149.41,11
141,144.49,149.32,11
141,144.42,149.24,11
139,144.31,149.14,11
140,144.23,149.05,11
141,144.16,148.97,11
142,144.12,148.90,11
141,144.06,148.82,11
139,143.96,148.72,11
141,143.90,148.64,11
139,143.80,148.55,11
141,143.74,148.47,11
140,143.67,148.39,11
140,143.59,148.30,11
140,143.52,148.22,11
140,143.45,148.14,11
140,143.38,148.06,11
139,143.30,147.97,11
139,143.21,147.88,11
139,143.13,147.79,11
141,143.08,147.72,11
139,143.00,147.63,11
139,142.92,147.55,11
138,142.82,147.45,11
138,142.73,147.36,11
139,142.65,147.27,11
138,142.56,147.18,11
139,142.49,147.10,11
139,142.42,147.02,11
143,142.43,146.98,11
139,142.36,146.90,11
140,142.31,146.83,11
139,142.25,146.75,11
139,142.18,146.67,11
138,142.10,146.59,11
139,142.04,146.51,11
138,141.96,146.42,11
137,141.86,146.33,11
138,141.78,146.25,11
138,141.70,146.16,11
140,141.67,146.10,11
138,141.60,146.02,11
139,141.54,145.95,11
138,141.47,145.87,11
137,141.38,145.78,11
137,141.30,145.70,11
140,141.27,145.64,11
137,141.19,145.55,11
137,141.10,145.47,11
138,141.04,145.39,11
138,140.98,145.32,11
139,140.94,145.25,11
139,140.90,145.19,11
139,140.86,145.13,11
137,140.79,145.05,11
137,140.71,144.97,11
138,140.66,144.90,11
139,140.62,144.84,11
138,140.57,144.77,11
139,140.54,144.71,11
140,140.53,144.67,11
139,140.50,144.61,11
135,140.39,144.51,11
138,140.34,144.45,11
135,140.23,144.35,11
137,140.17,144.28,11
137,140.10,144.21,11
137,140.04,144.14,11
137,139.98,144.06,11
139,139.96,144.01,11
137,139.90,143.94,11
137,139.84,143.87,11
138,139.81,143.82,11
136,139.73,143.74,11
137,139.68,143.67,11
137,139.62,143.60,11
137,139.57,143.54,11
137,139.52,143.47,11
137,139.47,143.41,11
137,139.42,143.34,11
137,139.37,143.28,11
135,139.28,143.20,11
137,139.24,143.13,11
138,139.21,143.08,11
137,139.17,143.02,11
137,139.13,142.96,11
136,139.06,142.89,11
136,139.00,142.82,11
136,138.94,142.76,11
135,138.86,142.68,11
135,138.79,142.60,11
135,138.71,142.53,11
135,138.64,142.45,11
135,138.56,142.38,11
136,138.51,142.31,11
135,138.44,142.24,11
136,138.39,142.18,11
136,138.35,142.11,11
136,138.30,142.05,11
133,138.19,141.96,11
136,138.15,141.90,11
135,138.09,141.83,11
136,138.04,141.78,11
137,138.02,141.73,11
135,137.96,141.66,11
136,137.92,141.60,11
136,137.88,141.55,11
135,137.83,141.48,11
134,137.75,141.41,11
137,137.74,141.36,11
135,137.68,141.30,11
136,137.65,141.25,11
135,137.59,141.18,11
135,137.54,141.12,11
136,137.51,141.07,11
135,137.46,141.01,11
134,137.39,140.94,11
135,137.34,140.88,11
136,137.32,140.83,11
134,137.25,140.76,11
134,137.19,140.70,11
136,137.16,140.65,11
134,137.10,140.58,11
138,137.12,140.56,11
136,137.09,140.51,11
134,137.03,140.45,11
136,137.01,140.40,11
136,136.99,140.36,11
135,136.95,140.30,11
136,136.93,140.26,11
136,136.91,140.22,11
136,136.90,140.18,11
136,136.88,140.14,11
136,136.86,140.09,11
135,136.82,140.04,11
135,136.79,139.99,11
134,136.73,139.93,11
134,136.68,139.87,11
134,136.62,139.81,11
136,136.61,139.78,11
134,136.56,139.72,11
134,136.51,139.66,11
136,136.50,139.62,11
135,136.47,139.58,11
134,136.42,139.52,11
134,136.37,139.47,11
136,136.36,139.43,11
135,136.33,139.39,11
135,136.31,139.34,11
135,136.28,139.30,11
136,136.28,139.27,11
136,136.27,139.24,11
134,136.23,139.18,11
134,136.18,139.13,11
136,136.18,139.10,11
135,136.15,139.06,11
134,136.11,139.01,11
137,136.13,138.99,11
136,136.13,138.96,11
137,136.14,138.94,11
135,136.12,138.90,11
136,136.12,138.87,11
135,136.10,138.83,11
135,136.07,138.79,11
133,136.01,138.74,11
135,135.99,138.70,11
137,136.01,138.68,11
135,135.99,138.64,11
134,135.95,138.60,11
136,135.95,138.57,11
135,135.93,138.54,11
136,135.94,138.51,11
137,135.96,138.50,11
136,135.96,138.47,11
136,135.96,138.45,11
136,135.96,138.42,11
135,135.94,138.39,11
134,135.90,138.34,11
135,135.88,138.31,11
135,135.87,138.28,11
136,135.87,138.25,11
134,135.83,138.21,11
136,135.83,138.19,11
135,135.82,138.16,11
134,135.78,138.12,11
134,135.75,138.07,11
136,135.75,138.05,11
134,135.72,138.01,11
134,135.68,137.97,11
133,135.63,137.92,11
134,135.60,137.88,11
134,135.56,137.85,11
134,135.53,137.81,11
133,135.48,137.76,11
134,135.45,137.72,11
133,135.40,137.67,11
133,135.35,137.63,11
132,135.29,137.57,11
135,135.28,137.55,11
133,135.24,137.50,11
133,135.19,137.46,11
134,135.17,137.42,11
133,135.12,137.38,11
133,135.08,137.33,11
132,135.02,137.28,11
133,134.98,137.24,11
133,134.94,137.19,11
133,134.90,137.15,11
132,134.84,137.10,11
133,134.81,137.06,11
133,134.77,137.02,11
133,134.73,136.98,11
133,134.70,136.94,11
132,134.65,136.89,11
136,134.67,136.88,11
137,134.72,136.88,11
132,134.67,136.83,11
133,134.63,136.79,11
133,134.60,136.76,11
132,134.55,136.71,11
131,134.48,136.65,11
134,134.47,136.63,11
133,134.44,136.59,11
132,134.39,136.54,11
134,134.38,136.52,11
131,134.31,136.46,11
134,134.31,136.44,11
132,134.26,136.39,11
131,134.20,136.34,11
131,134.13,136.29,11
132,134.09,136.24,11
131,134.03,136.19,11
132,133.99,136.15,11
131,133.93,136.10,11
131,133.87,136.05,11
135,133.89,136.04,11
131,133.83,135.99,11
131,133.78,135.94,11
132,133.74,135.90,11
132,133.71,135.86,11
131,133.65,135.81,11
131,133.60,135.76,11
133,133.59,135.73,11
132,133.56,135.70,11
130,133.48,135.64,11
130,133.41,135.58,11
131,133.37,135.54,11
130,133.30,135.48,11
130,133.23,135.43,11
130,133.17,135.37,11
131,133.13,135.33,11
130,133.06,135.28,11
132,133.04,135.24,11
130,132.98,135.19,11
132,132.96,135.16,11
131,132.92,135.12,11
131,132.88,135.08,11
131,132.85,135.04,11
131,132.81,134.99,11
130,132.75,134.94,11
130,132.70,134.90,11
131,132.66,134.86,11
130,132.61,134.81,11
131,132.58,134.77,11
129,132.51,134.71,11
129,132.44,134.66,11
131,132.41,134.62,11
129,132.34,134.56,11
130,132.29,134.52,11
131,132.27,134.48,11
131,132.24,134.45,11
131,132.22,134.41,11
131,132.19,134.38,11
131,132.17,134.34,11
131,132.15,134.31,11
133,132.16,134.30,11
130,132.12,134.25,11
130,132.08,134.21,11
131,132.06,134.18,11
130,132.01,134.14,11
131,131.99,134.11,11
131,131.97,134.08,11
131,131.95,134.05,11
131,131.94,134.01,11
130,131.90,133.97,11
127,131.80,133.90,11
131,131.78,133.88,11
132,131.79,133.86,11
130,131.75,133.82,11
130,131.72,133.78,11
132,131.72,133.76,11
130,131.69,133.72,11
130,131.65,133.69,11
131,131.64,133.66,11
130,131.61,133.62,11
130,131.58,133.59,11
130,131.54,133.55,11
129,131.49,133.51,11
132,131.50,133.49,11
132,131.51,133.48,11
131,131.50,133.45,11
132,131.51,133.44,11
131,131.50,133.41,11
130,131.47,133.38,11
130,131.44,133.34,11
131,131.43,133.32,11
133,131.47,133.32,11
133,131.50,133.32,11
130,131.47,133.28,11
132,131.48,133.27,11
131,131.47,133.25,11
133,131.50,133.24,11
131,131.49,133.22,11
135,131.56,133.24,11
131,131.55,133.22,11
134,131.60,133.22,11
131,131.58,133.20,11
131,131.57,133.18,11
132,131.58,133.17,11
132,131.59,133.16,11
131,131.58,133.14,11
132,131.59,133.12,11
132,131.59,133.11,11
133,131.62,133.11,11
133,131.65,133.11,11
133,131.68,133.11,11
131,131.66,133.09,11
133,131.69,133.09,11
131,131.68,133.07,11
132,131.68,133.06,11
131,131.67,133.04,11
131,131.66,133.02,11
133,131.68,133.01,11
131,131.67,132.99,11
131,131.66,132.97,11
132,131.66,132.97,11
132,131.67,132.96,11
132,131.68,132.95,11
133,131.70,132.95,11
133,131.73,132.95,11
131,131.71,132.93,11
131,131.70,132.91,11
132,131.71,132.90,11
134,131.75,132.91,11
132,131.76,132.90,11
132,131.76,132.89,11
132,131.77,132.88,11
133,131.79,132.88,11
131,131.78,132.87,11
131,131.76,132.85,11
133,131.78,132.85,11
133,131.81,132.85,11
132,131.81,132.84,11
133,131.84,132.84,11
133,131.86,132.84,11
129,131.80,132.81,11
131,131.79,132.79,11
131,131.77,132.77,11
131,131.76,132.75,11
132,131.76,132.74,11
133,131.78,132.75,11
132,131.79,132.74,11
132,131.79,132.73,11
133,131.82,132.74,11
133,131.84,132.74,11
133,131.86,132.74,11
132,131.87,132.73,11
135,131.93,132.76,11
134,131.97,132.77,11
133,131.99,132.77,11
134,132.03,132.78,11
135,132.09,132.81,11
133,132.11,132.81,11
134,132.15,132.82,11
133,132.16,132.82,11
135,132.22,132.84,11
134,132.26,132.85,11
133,132.27,132.86,11
134,132.31,132.87,11
133,132.32,132.87,11
135,132.37,132.89,11
136,132.45,132.92,11
135,132.50,132.94,11
133,132.51,132.94,11
135,132.56,132.96,11
134,132.59,132.97,11
135,132.63,132.99,11
135,132.68,133.01,11
134,132.71,133.02,11
134,132.73,133.03,11
132,132.72,133.02,11
134,132.74,133.03,11
133,132.75,133.03,11
135,132.79,133.05,11
138,132.90,133.10,11
134,132.92,133.11,11
133,132.92,133.11,11
133,132.92,133.11,11
136,132.99,133.14,11
136,133.05,133.17,12
133,133.04,133.16,12
135,133.08,133.18,13
135,133.12,133.20,13
134,133.14,133.21,14
133,133.14,133.21,14
133,133.13,133.20,15
134,133.15,133.21,15
135,133.19,133.23,16
136,133.24,133.26,16
134,133.26,133.27,17
133,133.25,133.26,17
135,133.29,133.28,18
133,133.28,133.28,18
135,133.32,133.29,19
135,133.35,133.31,19
134,133.36,133.32,20
134,133.38,133.33,20
133,133.37,133.32,21
136,133.42,133.35,21
134,133.43,133.36,22
133,133.43,133.35,22
135,133.46,133.37,23
133,133.45,133.36,23
134,133.46,133.37,24
134,133.47,133.38,24
136,133.52,133.40,25
135,133.55,133.42,25
135,133.58,133.44,25
135,133.61,133.45,25
134,133.62,133.46,25
134,133.62,133.46,25
136,133.67,133.49,25
134,133.68,133.49,25
134,133.68,133.50,25
134,133.69,133.50,25
137,133.76,133.54,25
136,133.80,133.56,25
136,133.84,133.59,25
137,133.91,133.62,25
137,133.97,133.65,25
136,134.01,133.68,25
135,134.03,133.69,25
139,134.13,133.74,25
141,134.27,133.82,25
139,134.36,133.87,25
137,134.41,133.90,25
138,134.49,133.94,25
138,134.56,133.98,25
139,134.65,134.03,25
139,134.73,134.08,25
143,134.90,134.17,25
138,134.96,134.21,25
138,135.02,134.25,25
139,135.10,134.29,25
139,135.18,134.34,25
139,135.25,134.39,25
139,135.33,134.43,25
140,135.42,134.49,25
140,135.51,134.54,25
141,135.62,134.61,25
138,135.67,134.64,25
140,135.76,134.70,25
139,135.82,134.74,25
139,135.89,134.78,25
140,135.97,134.83,25
140,136.05,134.89,25
140,136.13,134.94,25
141,136.23,135.00,25
140,136.30,135.05,25
142,136.42,135.12,25
139,136.47,135.16,25
139,136.52,135.19,25
140,136.59,135.24,25
141,136.68,135.30,25
141,136.76,135.36,25
140,136.83,135.40,25
141,136.91,135.46,25
140,136.97,135.51,25
141,137.05,135.56,25
139,137.09,135.59,25
140,137.15,135.64,25
140,137.21,135.68,25
141,137.28,135.74,25
140,137.34,135.78,25
143,137.45,135.85,25
140,137.50,135.89,25
140,137.55,135.93,25
139,137.58,135.96,25
145,137.73,136.05,25
141,137.79,136.10,25
142,137.88,136.16,25
141,137.94,136.21,25
143,138.04,136.28,25
142,138.12,136.34,25
143,138.22,136.40,25
143,138.31,136.47,25
144,138.43,136.54,25
141,138.48,136.59,25
141,138.53,136.63,25
143,138.62,136.70,25
143,138.71,136.76,25
143,138.79,136.82,25
142,138.86,136.87,25
141,138.90,136.91,25
146,139.04,137.01,25
141,139.08,137.05,25
148,139.26,137.15,25
144,139.35,137.22,25
144,139.45,137.29,25
146,139.58,137.38,25
150,139.79,137.50,25
147,139.93,137.60,25
145,140.03,137.67,25
145,140.13,137.75,25
152,140.37,137.89,25
150,140.56,138.01,25
148,140.71,138.11,25
151,140.92,138.24,25
147,141.04,138.33,25
146,141.14,138.40,25
147,141.25,138.49,25
147,141.37,138.57,25
148,141.50,138.67,25
146,141.59,138.74,25
149,141.74,138.84,25
148,141.87,138.94,25
146,141.95,139.01,25
147,142.05,139.09,25
148,142.17,139.18,25
149,142.30,139.27,25
147,142.40,139.35,25
146,142.47,139.42,25
151,142.64,139.53,25
149,142.77,139.63,25
150,142.91,139.73,25
151,143.07,139.84,25
149,143.19,139.94,25
149,143.31,140.03,25
148,143.40,140.11,25
148,143.50,140.19,25
149,143.61,140.27,25
148,143.69,140.35,25
148,143.78,140.43,25
153,143.96,140.55,25
149,144.06,140.64,25
151,144.20,140.74,25
149,144.30,140.82,25
154,144.49,140.96,25
154,144.68,141.09,25
153,144.85,141.21,25
151,144.97,141.30,25
151,145.09,141.40,25
152,145.23,141.51,25
157,145.47,141.66,25
152,145.60,141.76,25
152,145.73,141.87,25
154,145.89,141.99,25
155,146.07,142.12,25
156,146.27,142.26,25
153,146.41,142.36,25
152,146.52,142.46,25
153,146.65,142.57,25
154,146.79,142.68,25
154,146.94,142.79,25
154,147.08,142.91,25
154,147.22,143.02,25
154,147.35,143.13,25
156,147.53,143.26,25
156,147.70,143.38,25
156,147.86,143.51,25
157,148.05,143.64,25
160,148.28,143.81,25
161,148.54,143.98,25
159,148.75,144.13,25
156,148.89,144.25,25
158,149.08,144.39,25
159,149.27,144.53,25
157,149.43,144.66,25
158,149.60,144.79,25
159,149.79,144.93,25
160,149.99,145.08,25
159,150.17,145.22,25
159,150.35,145.36,25
158,150.50,145.49,25
163,150.75,145.66,25
160,150.94,145.80,25
160,151.12,145.95,25
164,151.38,146.13,25
163,151.61,146.30,25
164,151.86,146.47,25
166,152.14,146.67,25
169,152.48,146.89,25
163,152.69,147.05,25
167,152.97,147.25,25
176,153.43,147.54,25
171,153.78,147.77,25
171,154.13,148.01,25
169,154.43,148.22,25
171,154.76,148.44,25
180,155.26,148.76,25
183,155.82,149.10,25
175,156.20,149.36,25
176,156.60,149.63,25
181,157.09,149.94,25
180,157.54,150.24,25
180,157.99,150.54,25
182,158.47,150.85,25
180,158.90,151.15,25
176,159.25,151.39,25
178,159.62,151.66,25
179,160.01,151.93,25
177,160.35,152.18,25
175,160.64,152.41,25
181,161.05,152.70,25
183,161.49,153.00,25
183,161.92,153.30,25
183,162.34,153.60,25
181,162.71,153.87,25
193,163.32,154.26,25
190,163.85,154.62,25
192,164.41,154.99,25
187,164.87,155.31,25
187,165.31,155.63,25
185,165.70,155.93,25
185,166.09,156.22,25
189,166.55,156.54,25
190,167.02,156.88,25
192,167.52,157.23,25
189,167.95,157.55,25
193,168.45,157.90,25
195,168.98,158.27,25
