Teste de posicionamento 1(EMG ao centro do bíceps (Vermelho A, Verde B) + Ref no pulso) - 19/10/2024 - teste9 - 5 contrações
long frequencia = 1000;                 //frequência de aquisição do sinal, neste caso, 1000 sinais por segundo
float fator1 = 0.02, fator2 = 0.01;
float incerteza = 0.13;
float pico_basal = 130; // Mínimo para ser considerado um pico de contração
int filtro_horizontal=200000; //intervalo de 200ms valores não pode ter mais de 1 contração

Biceps_D,mediaMovel_1,mediaMovel_2,Contracao
103,2.06,1.03,0
102,4.06,2.04,0
103,6.04,3.05,0
103,7.98,4.05,0
102,9.86,5.03,0
103,11.72,6.01,0
103,13.55,6.98,0
107,15.41,7.98,0
104,17.19,8.94,0
103,18.90,9.88,0
104,20.60,10.82,0
102,22.23,11.73,0
103,23.85,12.64,0
105,25.47,13.57,0
103,27.02,14.46,0
103,28.54,15.35,0
102,30.01,16.21,0
102,31.45,17.07,0
103,32.88,17.93,0
103,34.28,18.78,0
103,35.66,19.62,0
103,37.00,20.46,0
101,38.28,21.26,0
104,39.60,22.09,0
103,40.87,22.90,0
104,42.13,23.71,0
102,43.33,24.49,0
103,44.52,25.28,0
101,45.65,26.04,0
102,46.78,26.80,0
102,47.88,27.55,0
103,48.98,28.30,0
102,50.04,29.04,0
101,51.06,29.76,0
101,52.06,30.47,0
100,53.02,31.17,0
103,54.02,31.89,0
105,55.04,32.62,0
102,55.98,33.31,0
103,56.92,34.01,0
103,57.84,34.70,0
103,58.74,35.38,0
101,59.59,36.04,0
103,60.46,36.71,0
103,61.31,37.37,0
103,62.14,38.03,0
103,62.96,38.67,0
102,63.74,39.31,0
103,64.53,39.94,0
104,65.32,40.59,0
102,66.05,41.20,0
103,66.79,41.82,0
105,67.55,42.45,0
103,68.26,43.05,0
103,68.96,43.65,0
103,69.64,44.25,0
102,70.28,44.83,0
101,70.90,45.39,0
103,71.54,45.96,0
103,72.17,46.53,0
103,72.79,47.10,0
103,73.39,47.66,0
102,73.96,48.20,0
103,74.54,48.75,0
102,75.09,49.28,0
103,75.65,49.82,0
103,76.20,50.35,0
105,76.77,50.90,0
104,77.32,51.43,0
104,77.85,51.95,0
103,78.35,52.46,0
103,78.85,52.97,0
103,79.33,53.47,0
100,79.74,53.93,0
103,80.21,54.43,0
101,80.63,54.89,0
103,81.07,55.37,0
103,81.51,55.85,0
103,81.94,56.32,0
103,82.36,56.79,0
102,82.75,57.24,0
104,83.18,57.71,0
103,83.58,58.16,0
103,83.96,58.61,0
103,84.35,59.05,0
102,84.70,59.48,0
103,85.06,59.92,0
104,85.44,60.36,0
102,85.77,60.77,0
103,86.12,61.20,0
103,86.46,61.61,0
103,86.79,62.03,0
103,87.11,62.44,0
103,87.43,62.84,0
104,87.76,63.25,0
102,88.05,63.64,0
103,88.34,64.04,0
103,88.64,64.43,0
103,88.92,64.81,0
103,89.21,65.19,0
102,89.46,65.56,0
103,89.73,65.94,0
103,90.00,66.31,0
103,90.26,66.67,0
103,90.51,67.04,0
103,90.76,67.40,0
103,91.01,67.75,0
103,91.25,68.10,0
104,91.50,68.46,0
103,91.73,68.81,0
103,91.96,69.15,0
104,92.20,69.50,0
104,92.43,69.84,0
103,92.65,70.18,0
103,92.85,70.50,0
103,93.06,70.83,0
103,93.26,71.15,0
104,93.47,71.48,0
104,93.68,71.80,0
103,93.87,72.12,0
102,94.03,72.42,0
102,94.19,72.71,0
101,94.33,72.99,0
104,94.52,73.30,0
103,94.69,73.60,0
103,94.85,73.90,0
104,95.04,74.20,0
104,95.22,74.49,0
103,95.37,74.78,0
104,95.54,75.07,0
103,95.69,75.35,0
103,95.84,75.63,0
103,95.98,75.90,0
103,96.12,76.17,0
103,96.26,76.44,0
103,96.40,76.71,0
102,96.51,76.96,0
103,96.64,77.22,0
104,96.79,77.49,0
103,96.91,77.74,0
103,97.03,77.99,0
103,97.15,78.24,0
102,97.25,78.48,0
103,97.36,78.73,0
103,97.48,78.97,0
102,97.57,79.20,0
103,97.67,79.44,0
103,97.78,79.67,0
103,97.89,79.91,0
104,98.01,80.15,0
105,98.15,80.40,0
104,98.26,80.63,0
103,98.36,80.86,0
103,98.45,81.08,0
103,98.54,81.30,0
103,98.63,81.51,0
103,98.72,81.73,0
103,98.81,81.94,0
103,98.89,82.15,0
104,98.99,82.37,0
103,99.07,82.58,0
101,99.11,82.76,0
103,99.19,82.96,0
103,99.26,83.16,0
103,99.34,83.36,0
103,99.41,83.56,0
102,99.46,83.74,0
103,99.53,83.94,0
103,99.60,84.13,0
103,99.67,84.32,0
103,99.74,84.50,0
101,99.76,84.67,0
103,99.83,84.85,0
103,99.89,85.03,0
103,99.95,85.21,0
102,99.99,85.38,0
103,100.05,85.56,0
104,100.13,85.74,0
103,100.19,85.91,0
102,100.23,86.07,0
102,100.26,86.23,0
102,100.30,86.39,0
103,100.35,86.56,0
102,100.38,86.71,0
102,100.42,86.86,0
106,100.53,87.06,0
102,100.56,87.20,0
103,100.61,87.36,0
102,100.63,87.51,0
102,100.66,87.65,0
103,100.71,87.81,0
102,100.73,87.95,0
102,100.76,88.09,0
102,100.78,88.23,0
102,100.81,88.37,0
102,100.83,88.50,0
103,100.88,88.65,0
102,100.90,88.78,0
103,100.94,88.92,0
102,100.96,89.05,0
103,101.00,89.19,0
103,101.04,89.33,0
102,101.06,89.46,0
102,101.08,89.58,0
103,101.12,89.72,0
103,101.16,89.85,0
102,101.17,89.97,0
102,101.19,90.09,0
102,101.21,90.21,0
102,101.22,90.33,0
103,101.26,90.46,0
102,101.27,90.57,0
104,101.33,90.71,0
102,101.34,90.82,0
102,101.35,90.93,0
102,101.37,91.04,0
102,101.38,91.15,0
103,101.41,91.27,0
103,101.44,91.39,0
102,101.45,91.49,0
102,101.47,91.60,0
102,101.48,91.70,0
103,101.51,91.82,0
102,101.52,91.92,0
103,101.55,92.03,0
102,101.56,92.13,0
103,101.58,92.24,0
102,101.59,92.33,0
104,101.64,92.45,0
102,101.65,92.55,0
102,101.65,92.64,0
103,101.68,92.74,0
104,101.73,92.86,0
103,101.75,92.96,0
103,101.78,93.06,0
102,101.78,93.15,0
102,101.79,93.24,0
99,101.73,93.29,0
103,101.76,93.39,0
102,101.76,93.48,0
102,101.77,93.56,0
103,101.79,93.66,0
104,101.84,93.76,0
102,101.84,93.84,0
102,101.84,93.92,0
103,101.87,94.02,0
102,101.87,94.09,0
103,101.89,94.18,0
102,101.89,94.26,0
102,101.89,94.34,0
105,101.96,94.45,0
103,101.98,94.53,0
102,101.98,94.61,0
102,101.98,94.68,0
102,101.98,94.75,0
102,101.98,94.83,0
103,102.00,94.91,0
101,101.98,94.97,0
102,101.98,95.04,0
102,101.98,95.11,0
102,101.98,95.18,0
102,101.98,95.25,0
102,101.98,95.31,0
102,101.98,95.38,0
106,102.06,95.49,0
102,102.06,95.55,0
102,102.06,95.62,0
104,102.10,95.70,0
104,102.14,95.78,0
102,102.13,95.84,0
102,102.13,95.91,0
102,102.13,95.97,0
102,102.13,96.03,0
103,102.14,96.10,0
102,102.14,96.16,0
102,102.14,96.21,0
102,102.14,96.27,0
102,102.13,96.33,0
102,102.13,96.39,0
102,102.13,96.44,0
101,102.10,96.49,0
102,102.10,96.54,0
105,102.16,96.63,0
104,102.20,96.70,0
104,102.23,96.77,0
101,102.21,96.82,0
102,102.20,96.87,0
102,102.20,96.92,0
102,102.20,96.97,0
102,102.19,97.02,0
102,102.19,97.07,0
102,102.19,97.12,0
102,102.18,97.17,0
102,102.18,97.22,0
102,102.17,97.27,0
102,102.17,97.31,0
102,102.17,97.36,0
102,102.16,97.41,0
102,102.16,97.45,0
102,102.16,97.50,0
102,102.15,97.54,0
103,102.17,97.60,0
102,102.17,97.64,0
103,102.18,97.69,0
102,102.18,97.74,0
102,102.18,97.78,0
102,102.17,97.82,0
102,102.17,97.86,0
102,102.17,97.91,0
103,102.18,97.96,0
104,102.22,98.02,0
103,102.24,98.07,0
101,102.21,98.10,0
102,102.21,98.14,0
103,102.22,98.18,0
103,102.24,98.23,0
102,102.23,98.27,0
104,102.27,98.33,0
103,102.28,98.37,0
102,102.28,98.41,0
102,102.27,98.45,0
102,102.27,98.48,0
102,102.26,98.52,0
102,102.26,98.55,0
102,102.25,98.59,0
103,102.27,98.63,0
103,102.28,98.67,0
102,102.27,98.71,0
104,102.31,98.76,0
103,102.32,98.80,0
102,102.32,98.83,0
102,102.31,98.87,0
102,102.30,98.90,0
102,102.30,98.93,0
102,102.29,98.96,0
102,102.29,98.99,0
102,102.28,99.02,0
102,102.27,99.05,0
102,102.27,99.08,0
102,102.26,99.11,0
103,102.28,99.15,0
102,102.27,99.18,0
102,102.27,99.20,0
106,102.34,99.27,0
101,102.32,99.29,0
101,102.29,99.31,0
101,102.26,99.32,0
102,102.26,99.35,0
102,102.25,99.38,0
102,102.25,99.40,0
102,102.24,99.43,0
102,102.24,99.45,0
106,102.31,99.52,0
102,102.31,99.54,0
101,102.28,99.56,0
98,102.20,99.54,0
101,102.17,99.56,0
102,102.17,99.58,0
101,102.14,99.60,0
101,102.12,99.61,0
102,102.12,99.63,0
103,102.14,99.67,0
102,102.13,99.69,0
102,102.13,99.71,0
100,102.09,99.72,0
102,102.09,99.74,0
101,102.07,99.75,0
101,102.04,99.77,0
101,102.02,99.78,0
100,101.98,99.78,0
102,101.98,99.80,0
102,101.98,99.82,0
102,101.98,99.85,0
105,102.04,99.90,0
102,102.04,99.92,0
103,102.06,99.95,0
102,102.06,99.97,0
101,102.04,99.98,0
102,102.04,100.00,0
102,102.04,100.02,0
103,102.06,100.05,0
102,102.06,100.07,0
101,102.04,100.08,0
101,102.01,100.09,0
101,101.99,100.10,0
101,101.97,100.11,0
102,101.97,100.13,0
101,101.96,100.13,0
101,101.94,100.14,0
101,101.92,100.15,0
103,101.94,100.18,0
103,101.96,100.21,0
101,101.94,100.22,0
101,101.92,100.22,0
101,101.90,100.23,0
102,101.91,100.25,0
101,101.89,100.26,0
101,101.87,100.26,0
101,101.85,100.27,0
101,101.84,100.28,0
101,101.82,100.29,0
101,101.80,100.29,0
101,101.79,100.30,0
101,101.77,100.31,0
101,101.76,100.31,0
102,101.76,100.33,0
101,101.74,100.34,0
101,101.73,100.34,0
101,101.72,100.35,0
101,101.70,100.36,0
101,101.69,100.36,0
101,101.67,100.37,0
102,101.68,100.39,0
101,101.67,100.39,0
101,101.65,100.40,0
100,101.62,100.39,0
100,101.59,100.39,0
101,101.58,100.40,0
101,101.56,100.40,0
101,101.55,100.41,0
100,101.52,100.40,0
101,101.51,100.41,0
101,101.50,100.42,0
101,101.49,100.42,0
101,101.48,100.43,0
100,101.45,100.42,0
100,101.42,100.42,0
101,101.41,100.43,0
100,101.39,100.42,0
100,101.36,100.42,0
100,101.33,100.41,0
100,101.30,100.41,0
100,101.28,100.40,0
101,101.27,100.41,0
99,101.23,100.40,0
98,101.16,100.37,0
99,101.12,100.36,0
99,101.08,100.35,0
98,101.02,100.32,0
100,101.00,100.32,0
100,100.98,100.32,0
99,100.94,100.30,0
99,100.90,100.29,0
100,100.88,100.29,0
100,100.86,100.28,0
99,100.82,100.27,0
99,100.79,100.26,0
100,100.77,100.26,0
100,100.76,100.25,0
100,100.74,100.25,0
99,100.71,100.24,0
99,100.67,100.23,0
98,100.62,100.20,0
99,100.59,100.19,0
99,100.56,100.18,0
98,100.50,100.16,0
100,100.49,100.16,0
99,100.46,100.14,0
99,100.43,100.13,0
99,100.41,100.12,0
99,100.38,100.11,0
99,100.35,100.10,0
98,100.30,100.08,0
100,100.30,100.08,0
99,100.27,100.07,0
100,100.27,100.07,0
99,100.24,100.06,0
99,100.22,100.04,0
100,100.21,100.04,0
99,100.19,100.03,0
100,100.18,100.03,0
99,100.16,100.02,0
100,100.16,100.02,0
99,100.13,100.01,0
100,100.13,100.01,0
99,100.11,100.00,0
100,100.11,100.00,0
99,100.08,99.99,0
100,100.08,99.99,0
99,100.06,99.98,0
98,100.02,99.96,0
99,100.00,99.95,0
98,99.96,99.93,0
99,99.94,99.92,0
99,99.92,99.91,0
100,99.92,99.92,0
99,99.90,99.91,0
99,99.89,99.90,0
98,99.85,99.88,0
99,99.83,99.87,0
98,99.79,99.85,0
100,99.80,99.85,0
99,99.78,99.84,0
99,99.77,99.84,0
99,99.75,99.83,0
98,99.72,99.81,0
98,99.68,99.79,0
98,99.65,99.77,0
98,99.62,99.76,0
98,99.58,99.74,0
98,99.55,99.72,0
98,99.52,99.70,0
98,99.49,99.69,0
99,99.48,99.68,0
98,99.45,99.66,0
97,99.40,99.64,0
98,99.37,99.62,0
98,99.35,99.60,0
98,99.32,99.59,0
98,99.29,99.57,0
98,99.27,99.56,0
98,99.24,99.54,0
98,99.22,99.52,0
98,99.19,99.51,0
98,99.17,99.49,0
98,99.15,99.48,0
98,99.12,99.46,0
98,99.10,99.45,0
98,99.08,99.44,0
101,99.12,99.45,0
98,99.09,99.44,0
99,99.09,99.43,0
98,99.07,99.42,0
98,99.05,99.40,0
98,99.03,99.39,0
98,99.01,99.38,0
98,98.99,99.36,0
100,99.01,99.37,0
99,99.01,99.36,0
99,99.01,99.36,0
97,98.97,99.34,0
98,98.95,99.32,0
98,98.93,99.31,0
98,98.91,99.30,0
98,98.89,99.28,0
98,98.87,99.27,0
98,98.86,99.26,0
98,98.84,99.25,0
98,98.82,99.23,0
98,98.81,99.22,0
100,98.83,99.23,0
98,98.81,99.22,0
98,98.80,99.21,0
99,98.80,99.20,0
98,98.79,99.19,0
98,98.77,99.18,0
98,98.75,99.17,0
99,98.76,99.17,0
99,98.76,99.16,0
99,98.77,99.16,0
100,98.79,99.17,0
99,98.80,99.17,0
99,98.80,99.17,0
99,98.81,99.17,0
102,98.87,99.19,0
99,98.87,99.19,0
100,98.89,99.20,0
102,98.96,99.23,0
101,99.00,99.25,0
100,99.02,99.25,0
100,99.04,99.26,0
99,99.04,99.26,0
101,99.08,99.28,0
99,99.07,99.27,0
99,99.07,99.27,0
99,99.07,99.27,0
98,99.05,99.25,0
98,99.03,99.24,0
99,99.03,99.24,0
98,99.01,99.23,0
98,98.99,99.22,0
100,99.01,99.22,0
99,99.01,99.22,0
99,99.01,99.22,0
99,99.01,99.22,0
98,98.99,99.20,0
98,98.97,99.19,0
98,98.95,99.18,0
99,98.95,99.18,0
98,98.93,99.17,0
98,98.91,99.16,0
98,98.89,99.14,0
97,98.86,99.12,0
98,98.84,99.11,0
97,98.80,99.09,0
100,98.83,99.10,0
98,98.81,99.09,0
98,98.79,99.08,0
98,98.78,99.07,0
98,98.76,99.06,0
97,98.73,99.04,0
98,98.71,99.02,0
100,98.74,99.03,0
98,98.72,99.02,0
98,98.71,99.01,0
98,98.69,99.00,0
98,98.68,98.99,0
98,98.67,98.98,0
98,98.65,98.97,0
98,98.64,98.96,0
98,98.63,98.95,0
98,98.62,98.95,0
97,98.58,98.93,0
98,98.57,98.92,0
98,98.56,98.91,0
96,98.51,98.88,0
98,98.50,98.87,0
97,98.47,98.85,0
97,98.44,98.83,0
98,98.43,98.82,0
98,98.42,98.82,0
97,98.39,98.80,0
97,98.37,98.78,0
98,98.36,98.77,0
98,98.35,98.76,0
98,98.34,98.76,0
96,98.30,98.73,0
97,98.27,98.71,0
98,98.27,98.70,0
97,98.24,98.69,0
98,98.24,98.68,0
97,98.21,98.66,0
98,98.21,98.66,0
97,98.18,98.64,0
96,98.14,98.61,0
97,98.12,98.60,0
98,98.11,98.59,0
97,98.09,98.58,0
97,98.07,98.56,0
97,98.05,98.54,0
97,98.03,98.53,0
96,97.99,98.50,0
97,97.97,98.49,0
97,97.95,98.47,0
96,97.91,98.45,0
97,97.89,98.43,0
97,97.87,98.42,0
97,97.86,98.41,0
97,97.84,98.39,0
96,97.80,98.37,0
97,97.79,98.35,0
96,97.75,98.33,0
98,97.75,98.33,0
97,97.74,98.31,0
98,97.74,98.31,0
96,97.71,98.29,0
96,97.68,98.27,0
97,97.66,98.25,0
97,97.65,98.24,0
95,97.60,98.21,0
96,97.56,98.19,0
96,97.53,98.16,0
97,97.52,98.15,0
97,97.51,98.14,0
96,97.48,98.12,0
96,97.45,98.10,0
97,97.44,98.09,0
95,97.39,98.06,0
98,97.41,98.06,0
96,97.38,98.04,0
97,97.37,98.02,0
97,97.36,98.01,0
96,97.34,97.99,0
96,97.31,97.97,0
97,97.30,97.96,0
97,97.30,97.96,0
98,97.31,97.96,0
96,97.28,97.94,0
98,97.30,97.94,0
97,97.29,97.93,0
96,97.27,97.91,0
96,97.24,97.89,0
95,97.20,97.86,0
98,97.21,97.86,0
98,97.23,97.86,0
98,97.24,97.86,0
95,97.20,97.84,0
97,97.20,97.83,0
96,97.17,97.81,0
100,97.23,97.83,0
98,97.24,97.83,0
98,97.26,97.83,0
97,97.25,97.83,0
97,97.25,97.82,0
96,97.22,97.80,0
97,97.22,97.79,0
97,97.21,97.78,0
98,97.23,97.79,0
98,97.25,97.79,0
98,97.26,97.79,0
97,97.26,97.78,0
98,97.27,97.78,0
98,97.28,97.79,0
98,97.30,97.79,0
98,97.31,97.79,0
98,97.33,97.79,0
98,97.34,97.79,0
100,97.39,97.82,0
99,97.43,97.83,0
97,97.42,97.82,0
98,97.43,97.82,0
98,97.44,97.82,0
98,97.45,97.83,0
98,97.46,97.83,0
98,97.47,97.83,0
98,97.48,97.83,0
98,97.49,97.83,0
98,97.50,97.83,0
100,97.55,97.86,0
98,97.56,97.86,0
98,97.57,97.86,0
99,97.60,97.87,0
98,97.61,97.87,0
98,97.62,97.87,0
98,97.62,97.87,0
98,97.63,97.88,0
98,97.64,97.88,0
98,97.65,97.88,0
98,97.65,97.88,0
98,97.66,97.88,0
98,97.67,97.88,0
98,97.67,97.88,0
98,97.68,97.88,0
98,97.69,97.89,0
102,97.77,97.93,0
99,97.80,97.94,0
98,97.80,97.94,0
98,97.81,97.94,0
98,97.81,97.94,0
98,97.81,97.94,0
99,97.84,97.95,0
99,97.86,97.96,0
98,97.86,97.96,0
98,97.87,97.96,0
99,97.89,97.97,0
99,97.91,97.98,0
98,97.91,97.98,0
98,97.91,97.98,0
100,97.96,98.00,0
99,97.98,98.01,0
99,98.00,98.02,0
99,98.02,98.03,0
98,98.02,98.03,0
98,98.02,98.03,0
100,98.06,98.05,0
99,98.08,98.06,0
99,98.09,98.07,0
98,98.09,98.07,0
98,98.09,98.07,0
100,98.13,98.09,0
99,98.15,98.10,0
100,98.18,98.12,0
100,98.22,98.14,0
99,98.23,98.14,0
101,98.29,98.17,0
101,98.34,98.20,0
100,98.38,98.22,0
100,98.41,98.24,0
100,98.44,98.25,0
99,98.45,98.26,0
98,98.44,98.26,0
100,98.47,98.28,0
100,98.51,98.29,0
99,98.52,98.30,0
100,98.54,98.32,0
99,98.55,98.32,0
104,98.66,98.38,0
101,98.71,98.41,0
100,98.74,98.42,0
99,98.74,98.43,0
101,98.79,98.45,0
101,98.83,98.48,0
100,98.85,98.50,0
101,98.90,98.52,0
101,98.94,98.55,0
101,98.98,98.57,0
104,99.08,98.62,0
102,99.14,98.66,0
101,99.18,98.68,0
101,99.21,98.70,0
101,99.25,98.73,0
102,99.30,98.76,0
101,99.34,98.78,0
101,99.37,98.80,0
101,99.40,98.83,0
104,99.49,98.88,0
102,99.54,98.91,0
101,99.57,98.93,0
101,99.60,98.95,0
101,99.63,98.97,0
101,99.66,98.99,0
102,99.70,99.02,0
102,99.75,99.05,0
101,99.78,99.07,0
102,99.82,99.10,0
102,99.86,99.13,0
103,99.93,99.17,0
101,99.95,99.19,0
101,99.97,99.20,0
106,100.09,99.27,0
102,100.13,99.30,0
102,100.17,99.33,0
101,100.18,99.34,0
101,100.20,99.36,0
101,100.21,99.38,0
100,100.21,99.38,0
100,100.21,99.39,0
101,100.22,99.41,0
101,100.24,99.42,0
100,100.23,99.43,0
100,100.23,99.43,0
100,100.22,99.44,0
100,100.22,99.44,0
100,100.21,99.45,0
101,100.23,99.47,0
100,100.23,99.47,0
101,100.24,99.49,0
101,100.26,99.50,0
101,100.27,99.52,0
100,100.27,99.52,0
101,100.28,99.54,0
102,100.31,99.56,0
101,100.33,99.57,0
102,100.36,99.60,0
101,100.37,99.61,0
102,100.41,99.64,0
101,100.42,99.65,0
103,100.47,99.68,0
101,100.48,99.70,0
102,100.51,99.72,0
101,100.52,99.73,0
102,100.55,99.76,0
104,100.62,99.80,0
103,100.67,99.83,0
103,100.71,99.86,0
102,100.74,99.88,0
104,100.81,99.92,0
104,100.87,99.96,0
103,100.91,100.00,0
104,100.97,100.04,0
106,101.07,100.09,0
105,101.15,100.14,0
104,101.21,100.18,0
105,101.29,100.23,0
105,101.36,100.28,0
106,101.45,100.34,0
105,101.52,100.38,0
105,101.59,100.43,0
105,101.66,100.47,0
105,101.73,100.52,0
105,101.79,100.56,0
107,101.90,100.63,0
105,101.96,100.67,0
106,102.04,100.73,0
107,102.14,100.79,0
108,102.26,100.86,0
107,102.35,100.92,0
107,102.44,100.98,0
107,102.54,101.04,0
108,102.64,101.11,0
109,102.77,101.19,0
107,102.86,101.25,0
108,102.96,101.32,0
108,103.06,101.38,0
109,103.18,101.46,0
107,103.26,101.52,0
109,103.37,101.59,0
107,103.44,101.64,0
108,103.53,101.71,0
109,103.64,101.78,0
109,103.75,101.85,0
108,103.84,101.91,0
109,103.94,101.99,0
109,104.04,102.06,0
108,104.12,102.11,0
109,104.22,102.18,0
109,104.31,102.25,0
109,104.41,102.32,0
110,104.52,102.40,0
110,104.63,102.47,0
109,104.72,102.54,0
109,104.80,102.60,0
109,104.88,102.67,0
111,105.01,102.75,0
109,105.09,102.81,0
110,105.19,102.88,0
109,105.26,102.94,0
112,105.40,103.04,0
111,105.51,103.12,0
111,105.62,103.19,0
109,105.69,103.25,0
111,105.79,103.33,0
111,105.90,103.41,0
111,106.00,103.48,0
111,106.10,103.56,0
111,106.20,103.63,0
111,106.29,103.71,0
111,106.39,103.78,0
111,106.48,103.85,0
111,106.57,103.92,0
111,106.66,103.99,0
111,106.74,104.06,0
111,106.83,104.13,0
111,106.91,104.20,0
115,107.08,104.31,0
111,107.15,104.38,0
112,107.25,104.45,0
113,107.37,104.54,0
112,107.46,104.61,0
111,107.53,104.68,0
113,107.64,104.76,0
114,107.77,104.85,0
113,107.87,104.93,0
113,107.97,105.01,0
113,108.07,105.09,0
113,108.17,105.17,0
114,108.29,105.26,0
113,108.38,105.34,0
114,108.50,105.43,0
114,108.61,105.51,0
112,108.67,105.58,0
116,108.82,105.68,0
115,108.94,105.77,0
115,109.06,105.87,0
117,109.22,105.98,0
118,109.40,106.10,0
118,109.57,106.22,0
117,109.72,106.32,0
117,109.86,106.43,0
118,110.03,106.55,0
120,110.23,106.68,0
120,110.42,106.81,0
121,110.63,106.96,0
121,110.84,107.10,0
121,111.04,107.24,0
120,111.22,107.36,0
121,111.42,107.50,0
120,111.59,107.62,0
121,111.78,107.76,0
120,111.94,107.88,0
120,112.10,108.00,0
120,112.26,108.12,0
120,112.42,108.24,0
119,112.55,108.35,0
119,112.68,108.45,0
119,112.80,108.56,0
120,112.95,108.67,0
119,113.07,108.78,0
119,113.19,108.88,0
119,113.30,108.98,0
120,113.44,109.09,0
120,113.57,109.20,0
120,113.70,109.31,0
121,113.84,109.43,0
119,113.95,109.52,0
120,114.07,109.63,0
121,114.21,109.74,0
121,114.34,109.85,0
120,114.46,109.95,0
119,114.55,110.04,0
120,114.66,110.14,0
120,114.76,110.24,0
120,114.87,110.34,0
121,114.99,110.45,0
121,115.11,110.55,0
121,115.23,110.66,0
120,115.32,110.75,0
121,115.44,110.85,0
121,115.55,110.95,0
121,115.66,111.05,0
124,115.82,111.18,0
122,115.95,111.29,0
122,116.07,111.40,0
124,116.23,111.53,0
124,116.38,111.65,0
124,116.54,111.77,0
123,116.66,111.89,0
123,116.79,112.00,0
123,116.92,112.11,0
125,117.08,112.24,0
124,117.22,112.35,0
126,117.39,112.49,0
125,117.54,112.61,0
125,117.69,112.74,0
125,117.84,112.86,0
125,117.98,112.98,0
124,118.10,113.09,0
127,118.28,113.23,0
125,118.41,113.35,0
125,118.55,113.47,0
127,118.72,113.60,0
129,118.92,113.76,0
127,119.08,113.89,0
129,119.28,114.04,0
129,119.48,114.19,0
129,119.67,114.34,0
130,119.87,114.49,0
129,120.06,114.64,0
132,120.29,114.81,0
129,120.47,114.95,0
131,120.68,115.11,0
130,120.87,115.26,0
132,121.09,115.43,0
131,121.29,115.59,0
132,121.50,115.75,0
132,121.71,115.91,0
133,121.94,116.08,0
131,122.12,116.23,0
132,122.32,116.39,0
132,122.51,116.55,0
132,122.70,116.70,0
133,122.90,116.86,0
133,123.11,117.03,0
133,123.30,117.19,0
133,123.50,117.34,0
133,123.69,117.50,0
134,123.89,117.67,0
133,124.08,117.82,0
135,124.30,117.99,0
136,124.53,118.17,0
136,124.76,118.35,0
136,124.98,118.53,0
137,125.22,118.71,0
139,125.50,118.91,0
138,125.75,119.10,0
139,126.01,119.30,0
141,126.31,119.52,0
141,126.61,119.73,0
141,126.90,119.95,0
142,127.20,120.17,0
144,127.53,120.41,0
143,127.84,120.63,0
144,128.17,120.87,0
144,128.48,121.10,0
145,128.81,121.34,0
145,129.14,121.57,0
148,129.51,121.84,0
146,129.84,122.08,0
146,130.17,122.32,0
146,130.48,122.55,0
147,130.81,122.80,0
147,131.14,123.04,0
147,131.46,123.28,0
149,131.81,123.54,0
149,132.15,123.79,0
149,132.49,124.04,0
147,132.78,124.27,0
148,133.08,124.51,0
147,133.36,124.74,0
148,133.65,124.97,0
149,133.96,125.21,0
149,134.26,125.45,0
147,134.52,125.66,0
152,134.87,125.93,0
151,135.19,126.18,0
152,135.52,126.44,0
152,135.85,126.69,0
154,136.22,126.96,0
153,136.55,127.22,0
153,136.88,127.48,0
153,137.20,127.74,0
153,137.52,127.99,0
154,137.85,128.25,0
153,138.15,128.50,0
156,138.51,128.77,0
157,138.88,129.05,0
157,139.24,129.33,0
159,139.64,129.63,0
159,140.02,129.92,0
157,140.36,130.20,0
160,140.76,130.49,0
161,141.16,130.80,0
161,141.56,131.10,0
160,141.93,131.39,0
162,142.33,131.70,0
161,142.70,131.99,0
163,143.11,132.30,0
165,143.55,132.63,0
166,143.99,132.96,0
165,144.41,133.28,0
166,144.85,133.61,0
167,145.29,133.94,0
165,145.68,134.25,0
167,146.11,134.58,0
168,146.55,134.91,0
168,146.98,135.24,0
169,147.42,135.58,0
168,147.83,135.91,0
168,148.23,136.23,0
170,148.67,136.56,0
169,149.07,136.89,0
171,149.51,137.23,0
170,149.92,137.56,0
172,150.36,137.90,0
171,150.78,138.23,0
174,151.24,138.59,0
177,151.76,138.97,0
175,152.22,139.34,0
176,152.70,139.70,0
178,153.20,140.08,0
179,153.72,140.47,0
179,154.22,140.86,0
180,154.74,141.25,0
179,155.23,141.63,0
180,155.72,142.01,0
179,156.19,142.38,0
181,156.68,142.77,0
179,157.13,143.13,0
180,157.59,143.50,0
180,158.03,143.86,0
180,158.47,144.23,0
180,158.90,144.58,0
180,159.33,144.94,0
179,159.72,145.28,0
180,160.13,145.63,0
180,160.52,145.97,0
179,160.89,146.30,0
183,161.33,146.67,0
182,161.75,147.02,0
181,162.13,147.36,0
183,162.55,147.72,0
185,163.00,148.09,0
183,163.40,148.44,0
185,163.83,148.80,0
187,164.29,149.19,0
187,164.75,149.56,0
186,165.17,149.93,0
188,165.63,150.31,0
189,166.10,150.70,0
190,166.58,151.09,0
189,167.02,151.47,0
190,167.48,151.85,0
193,167.99,152.26,0
193,168.49,152.67,0
194,169.00,153.08,0
193,169.48,153.48,0
196,170.01,153.91,0
195,170.51,154.32,0
195,171.00,154.73,0
195,171.48,155.13,0
196,171.97,155.54,0
195,172.43,155.93,0
196,172.91,156.33,0
195,173.35,156.72,0
197,173.82,157.12,0
197,174.28,157.52,0
196,174.72,157.91,0
198,175.18,158.31,0
198,175.64,158.70,0
200,176.13,159.12,0
199,176.59,159.52,0
199,177.03,159.91,0
201,177.51,160.32,0
203,178.02,160.75,0
203,178.52,161.17,0
203,179.01,161.59,0
202,179.47,161.99,0
201,179.90,162.38,0
201,180.32,162.77,0
202,180.76,163.16,0
200,181.14,163.53,0
201,181.54,163.91,0
201,181.93,164.28,0
200,182.29,164.63,0
201,182.66,165.00,0
201,183.03,165.36,0
203,183.43,165.73,0
202,183.80,166.10,0
203,184.19,166.47,0
201,184.52,166.81,0
201,184.85,167.15,0
201,185.17,167.49,0
203,185.53,167.85,0
203,185.88,168.20,0
202,186.20,168.54,0
202,186.52,168.87,0
204,186.87,169.22,0
203,187.19,169.56,0
203,187.51,169.89,0
203,187.82,170.22,0
203,188.12,170.55,0
203,188.42,170.88,0
202,188.69,171.19,0
202,188.96,171.50,0
201,189.20,171.79,0
201,189.43,172.08,0
201,189.66,172.37,0
201,189.89,172.66,0
201,190.11,172.94,0
201,190.33,173.22,0
201,190.54,173.50,0
200,190.73,173.77,0
200,190.92,174.03,0
200,191.10,174.29,0
201,191.30,174.55,0
201,191.49,174.82,0
201,191.68,175.08,0
200,191.85,175.33,0
200,192.01,175.58,0
199,192.15,175.81,0
199,192.29,176.04,0
199,192.42,176.27,0
201,192.59,176.52,0
198,192.70,176.73,0
199,192.83,176.96,0
198,192.93,177.17,0
198,193.03,177.38,0
197,193.11,177.57,0
197,193.19,177.77,0
196,193.25,177.95,0
198,193.34,178.15,0
196,193.40,178.33,0
196,193.45,178.50,0
196,193.50,178.68,0
195,193.53,178.84,0
195,193.56,179.00,0
195,193.59,179.16,0
196,193.63,179.33,0
192,193.60,179.46,0
193,193.59,179.59,0
194,193.60,179.74,0
194,193.61,179.88,0
194,193.61,180.02,0
193,193.60,180.15,0
193,193.59,180.28,0
193,193.58,180.41,0
193,193.57,180.53,0
193,193.56,180.66,0
193,193.54,180.78,0
192,193.51,180.89,0
191,193.46,181.00,0
192,193.43,181.11,0
191,193.39,181.20,0
191,193.34,181.30,0
191,193.29,181.40,0
189,193.20,181.48,0
191,193.16,181.57,0
190,193.10,181.65,0
189,193.02,181.73,0
189,192.94,181.80,0
189,192.86,181.87,0
189,192.78,181.94,0
189,192.70,182.01,0
188,192.61,182.07,0
189,192.54,182.14,0
188,192.45,182.20,0
188,192.36,182.26,0
187,192.25,182.31,0
187,192.15,182.35,0
187,192.04,182.40,0
187,191.94,182.45,0
187,191.84,182.49,0
187,191.75,182.54,0
185,191.61,182.56,0
186,191.50,182.60,0
185,191.37,182.62,0
186,191.26,182.65,0
186,191.16,182.69,0
185,191.03,182.71,0
185,190.91,182.73,0
185,190.79,182.76,0
184,190.66,182.77,0
185,190.55,182.79,0
185,190.43,182.81,0
183,190.29,182.82,0
185,190.18,182.84,0
183,190.04,182.84,0
183,189.90,182.84,0
183,189.76,182.84,0
182,189.60,182.83,0
182,189.45,182.83,0
182,189.30,182.82,0
181,189.14,182.80,0
181,188.97,182.78,0
181,188.81,182.76,0
181,188.66,182.75,0
181,188.50,182.73,0
180,188.33,182.70,0
180,188.17,182.67,0
179,187.98,182.64,0
180,187.82,182.61,0
179,187.65,182.57,0
180,187.49,182.55,0
180,187.35,182.52,0
179,187.18,182.49,0
179,187.01,182.45,0
179,186.85,182.42,0
178,186.68,182.37,0
178,186.50,182.33,0
177,186.31,182.28,0
177,186.13,182.22,0
177,185.94,182.17,0
177,185.77,182.12,0
177,185.59,182.07,0
177,185.42,182.02,0
177,185.25,181.97,0
176,185.07,181.91,0
177,184.90,181.86,0
176,184.73,181.80,0
175,184.53,181.73,0
175,184.34,181.67,0
175,184.15,181.60,0
175,183.97,181.53,0
174,183.77,181.46,0
174,183.58,181.38,0
174,183.38,181.31,0
173,183.18,181.23,0
174,182.99,181.15,0
174,182.81,181.08,0
174,182.64,181.01,0
173,182.44,180.93,0
173,182.26,180.85,0
170,182.01,180.74,0
171,181.79,180.65,0
173,181.61,180.57,0
172,181.42,180.48,0
171,181.21,180.39,0
172,181.03,180.31,0
171,180.83,180.21,0
171,180.63,180.12,0
170,180.42,180.02,0
169,180.19,179.91,0
169,179.97,179.80,0
169,179.75,179.69,1
169,179.53,179.59,1
170,179.34,179.49,1
169,179.14,179.38,1
169,178.93,179.28,1
169,178.73,179.18,1
169,178.54,179.08,1
168,178.33,178.97,1
169,178.14,178.87,1
167,177.92,178.75,1
167,177.70,178.63,1
167,177.49,178.51,1
167,177.28,178.40,1
167,177.07,178.28,1
166,176.85,178.16,1
165,176.61,178.03,1
165,176.38,177.90,1
167,176.19,177.79,1
165,175.97,177.66,1
165,175.75,177.54,1
165,175.54,177.41,1
165,175.32,177.29,1
164,175.10,177.15,1
164,174.88,177.02,1
164,174.66,176.89,1
164,174.45,176.76,1
164,174.24,176.64,1
164,174.03,176.51,1
167,173.89,176.41,1
164,173.69,176.29,1
163,173.48,176.16,1
163,173.27,176.03,1
163,173.06,175.89,1
162,172.84,175.76,1
163,172.65,175.63,1
161,172.41,175.48,1
161,172.19,175.34,1
161,171.96,175.19,1
161,171.74,175.05,1
161,171.53,174.91,1
161,171.32,174.77,1
161,171.11,174.63,1
161,170.91,174.50,1
161,170.71,174.36,1
160,170.50,174.22,1
159,170.27,174.07,1
160,170.06,173.93,1
159,169.84,173.78,1
159,169.62,173.63,1
159,169.41,173.48,1
159,169.20,173.34,1
159,169.00,173.20,1
158,168.78,173.04,1
157,168.54,172.88,1
157,168.31,172.72,1
158,168.11,172.58,1
157,167.88,172.42,1
157,167.67,172.27,1
158,167.47,172.12,1
156,167.24,171.96,1
157,167.04,171.81,1
158,166.86,171.68,1
156,166.64,171.52,1
156,166.43,171.36,1
156,166.22,171.21,1
155,165.99,171.05,1
156,165.79,170.90,1
156,165.60,170.75,1
156,165.41,170.60,1
155,165.20,170.44,1
155,164.99,170.29,1
155,164.79,170.14,1
155,164.60,169.99,1
153,164.37,169.82,1
153,164.14,169.65,1
153,163.92,169.48,1
153,163.70,169.32,1
153,163.48,169.15,1
155,163.31,169.01,1
153,163.11,168.85,1
153,162.91,168.69,1
152,162.69,168.53,1
152,162.47,168.36,1
153,162.28,168.21,1
152,162.08,168.05,1
151,161.86,167.87,1
151,161.64,167.71,1
151,161.43,167.54,1
151,161.22,167.37,1
151,161.01,167.21,1
151,160.81,167.05,1
151,160.62,166.89,1
150,160.41,166.72,1
149,160.18,166.54,1
149,159.95,166.37,1
151,159.78,166.21,1
149,159.56,166.04,1
149,159.35,165.87,1
150,159.16,165.71,1
150,158.98,165.55,1
149,158.78,165.39,1
149,158.58,165.22,1
149,158.39,165.06,1
149,158.20,164.90,1
149,158.02,164.74,1
149,157.84,164.59,1
148,157.64,164.42,1
148,157.45,164.26,1
148,157.26,164.09,1
148,157.08,163.93,1
149,156.91,163.78,1
147,156.72,163.61,1
148,156.54,163.46,1
148,156.37,163.30,1
147,156.18,163.14,1
147,156.00,162.98,1
148,155.84,162.83,1
147,155.66,162.67,1
147,155.49,162.51,1
147,155.32,162.36,1
147,155.15,162.21,1
147,154.99,162.05,1
147,154.83,161.90,1
146,154.65,161.74,1
146,154.48,161.59,1
147,154.33,161.44,1
145,154.14,161.28,1
147,154.00,161.13,1
145,153.82,160.97,1
147,153.69,160.83,1
145,153.51,160.67,1
147,153.38,160.54,1
146,153.23,160.39,1
147,153.11,160.26,1
145,152.95,160.11,1
145,152.79,159.95,1
145,152.63,159.81,1
145,152.48,159.66,1
145,152.33,159.51,1
145,152.18,159.37,1
145,152.04,159.22,1
145,151.90,159.08,1
145,151.76,158.94,1
145,151.63,158.80,1
147,151.53,158.68,1
145,151.40,158.54,1
145,151.27,158.41,1
146,151.17,158.29,1
147,151.09,158.17,1
145,150.96,158.04,1
145,150.84,157.91,1
145,150.73,157.78,1
145,150.61,157.65,1
145,150.50,157.53,1
145,150.39,157.40,1
145,150.28,157.28,1
145,150.18,157.15,1
145,150.07,157.03,1
145,149.97,156.91,1
145,149.87,156.79,1
145,149.78,156.68,1
145,149.68,156.56,1
145,149.59,156.44,1
144,149.47,156.32,1
144,149.37,156.20,1
145,149.28,156.08,1
144,149.17,155.96,1
144,149.07,155.84,1
143,148.95,155.71,1
144,148.85,155.60,1
143,148.73,155.47,1
144,148.64,155.36,1
144,148.54,155.24,1
144,148.45,155.13,1
143,148.34,155.01,1
144,148.26,154.90,1
145,148.19,154.80,1
146,148.15,154.71,1
143,148.05,154.60,1
143,147.94,154.48,1
144,147.87,154.37,1
144,147.79,154.27,1
145,147.73,154.18,1
143,147.64,154.07,1
143,147.55,153.96,1
143,147.45,153.85,1
143,147.37,153.74,1
144,147.30,153.64,1
143,147.21,153.53,1
145,147.17,153.45,1
143,147.08,153.34,1
143,147.00,153.24,1
143,146.92,153.14,1
142,146.82,153.03,1
143,146.75,152.93,1
143,146.67,152.83,1
143,146.60,152.73,1
143,146.53,152.63,1
145,146.50,152.56,1
143,146.43,152.46,1
143,146.36,152.37,1
143,146.29,152.27,1
141,146.19,152.16,1
143,146.12,152.07,1
143,146.06,151.98,1
142,145.98,151.88,1
142,145.90,151.78,1
142,145.82,151.68,1
143,145.76,151.59,1
143,145.71,151.51,1
143,145.65,151.42,1
143,145.60,151.34,1
143,145.55,151.25,1
143,145.50,151.17,1
143,145.45,151.09,1
143,145.40,151.01,1
142,145.33,150.92,1
141,145.24,150.82,1
142,145.18,150.73,1
142,145.12,150.64,1
143,145.07,150.57,1
142,145.01,150.48,1
142,144.95,150.40,1
142,144.89,150.31,1
141,144.82,150.22,1
142,144.76,150.14,1
142,144.70,150.06,1
142,144.65,149.98,1
141,144.58,149.89,1
141,144.51,149.80,1
141,144.44,149.71,1
141,144.37,149.62,1
140,144.28,149.53,1
140,144.19,149.43,1
141,144.13,149.35,1
140,144.05,149.25,1
140,143.97,149.16,1
139,143.87,149.06,1
140,143.79,148.97,1
139,143.69,148.87,1
140,143.62,148.78,1
138,143.51,148.67,1
140,143.44,148.59,1
139,143.35,148.49,1
140,143.28,148.41,1
139,143.20,148.31,1
140,143.13,148.23,1
139,143.05,148.14,1
140,142.99,148.05,1
139,142.91,147.96,1
138,142.81,147.86,1
137,142.69,147.76,1
138,142.60,147.66,1
138,142.51,147.56,1
138,142.42,147.47,1
137,142.31,147.36,1
137,142.20,147.26,1
137,142.10,147.15,1
137,142.00,147.05,1
138,141.92,146.96,1
137,141.82,146.86,1
137,141.72,146.76,1
137,141.63,146.67,1
137,141.54,146.57,1
137,141.45,146.47,1
137,141.36,146.38,1
137,141.27,146.29,1
136,141.16,146.18,1
136,141.06,146.08,1
136,140.96,145.98,1
137,140.88,145.89,1
140,140.86,145.83,1
136,140.77,145.73,1
136,140.67,145.64,1
137,140.60,145.55,1
136,140.50,145.45,1
136,140.41,145.36,1
136,140.33,145.27,1
135,140.22,145.16,1
135,140.12,145.06,1
136,140.03,144.97,1
135,139.93,144.87,1
135,139.83,144.77,1
135,139.74,144.68,1
136,139.66,144.59,1
135,139.57,144.49,1
135,139.48,144.40,1
133,139.35,144.28,1
135,139.26,144.19,1
135,139.18,144.10,1
134,139.07,144.00,1
135,138.99,143.91,1
135,138.91,143.82,1
135,138.83,143.73,1
133,138.72,143.62,1
135,138.64,143.54,1
133,138.53,143.43,1
135,138.46,143.35,1
134,138.37,143.25,1
133,138.26,143.15,1
133,138.16,143.05,1
135,138.09,142.97,1
133,137.99,142.87,1
133,137.89,142.77,1
133,137.79,142.67,1
133,137.70,142.58,1
134,137.62,142.49,1
134,137.55,142.41,1
133,137.46,142.31,1
133,137.37,142.22,1
133,137.28,142.13,1
133,137.20,142.04,1
133,137.11,141.94,1
133,137.03,141.86,1
133,136.95,141.77,1
131,136.83,141.66,1
133,136.76,141.57,1
132,136.66,141.48,1
133,136.59,141.39,1
132,136.50,141.30,1
132,136.41,141.21,1
133,136.34,141.12,1
132,136.25,141.03,1
131,136.15,140.93,1
132,136.06,140.84,1
132,135.98,140.75,1
136,135.98,140.71,1
132,135.90,140.62,1
131,135.80,140.52,1
132,135.73,140.44,1
131,135.63,140.34,1
131,135.54,140.25,1
131,135.45,140.16,1
131,135.36,140.07,1
131,135.27,139.98,1
132,135.21,139.90,1
131,135.12,139.81,1
130,135.02,139.71,1
131,134.94,139.62,1
132,134.88,139.55,1
131,134.81,139.46,1
130,134.71,139.37,1
131,134.63,139.28,1
129,134.52,139.18,1
130,134.43,139.09,1
129,134.32,138.99,1
130,134.24,138.90,1
129,134.13,138.80,1
129,134.03,138.70,1
129,133.93,138.60,1
129,133.83,138.51,1
129,133.73,138.41,1
129,133.64,138.32,1
129,133.55,138.22,1
129,133.46,138.13,1
129,133.37,138.04,1
130,133.30,137.96,1
129,133.21,137.87,1
129,133.13,137.78,1
129,133.05,137.69,1
128,132.95,137.60,1
129,132.87,137.51,1
128,132.77,137.42,1
129,132.69,137.33,1
128,132.60,137.24,1
127,132.49,137.14,1
127,132.38,137.03,1
127,132.27,136.93,1
127,132.16,136.84,1
128,132.08,136.75,1
128,132.00,136.66,1
127,131.90,136.56,1
127,131.80,136.47,1
129,131.75,136.39,1
127,131.65,136.30,1
127,131.56,136.21,1
127,131.47,136.11,1
127,131.38,136.02,1
127,131.29,135.93,1
127,131.20,135.84,1
127,131.12,135.75,1
127,131.04,135.67,1
127,130.96,135.58,1
127,130.88,135.49,1
128,130.82,135.42,1
127,130.74,135.34,1
127,130.67,135.25,1
127,130.60,135.17,1
127,130.52,135.09,1
126,130.43,135.00,1
127,130.36,134.92,1
125,130.26,134.82,1
125,130.15,134.72,1
125,130.05,134.62,1
126,129.97,134.54,1
127,129.91,134.46,1
126,129.83,134.38,1
125,129.73,134.28,1
126,129.66,134.20,1
127,129.61,134.13,1
127,129.55,134.06,1
127,129.50,133.99,1
126,129.43,133.91,1
127,129.38,133.84,1
125,129.30,133.75,1
127,129.25,133.68,1
125,129.17,133.59,1
125,129.08,133.51,1
125,129.00,133.42,1
125,128.92,133.34,1
127,128.88,133.28,1
126,128.82,133.20,1
125,128.75,133.12,1
125,128.67,133.04,1
125,128.60,132.96,1
125,128.53,132.88,1
125,128.46,132.80,1
125,128.39,132.72,1
126,128.34,132.66,1
125,128.27,132.58,1
125,128.21,132.50,1
125,128.14,132.43,1
127,128.12,132.37,1
125,128.06,132.30,1
126,128.02,132.24,1
125,127.96,132.16,1
125,127.90,132.09,1
126,127.86,132.03,1
125,127.80,131.96,1
125,127.75,131.89,1
126,127.71,131.83,1
125,127.66,131.76,1
125,127.60,131.70,1
125,127.55,131.63,1
125,127.50,131.56,1
126,127.47,131.51,1
127,127.46,131.46,1
127,127.45,131.42,1
127,127.44,131.37,1
128,127.45,131.34,1
127,127.45,131.30,1
127,127.44,131.25,1
125,127.39,131.19,1
127,127.38,131.15,1
127,127.37,131.11,1
126,127.35,131.06,1
127,127.34,131.02,1
126,127.31,130.97,1
127,127.31,130.93,1
128,127.32,130.90,1
128,127.33,130.87,1
127,127.33,130.83,1
127,127.32,130.79,1
127,127.31,130.75,1
127,127.31,130.72,1
127,127.30,130.68,1
128,127.31,130.65,1
127,127.31,130.62,1
127,127.30,130.58,1
127,127.30,130.54,1
129,127.33,130.53,1
127,127.32,130.49,1
128,127.34,130.47,1
127,127.33,130.43,1
128,127.34,130.41,1
127,127.34,130.38,1
128,127.35,130.35,1
127,127.34,130.32,1
127,127.34,130.28,1
127,127.33,130.25,1
127,127.32,130.22,1
127,127.32,130.19,1
127,127.31,130.16,1
127,127.30,130.12,1
127,127.30,130.09,1
129,127.33,130.08,1
128,127.35,130.06,1
128,127.36,130.04,1
128,127.37,130.02,1
128,127.38,130.00,1
128,127.40,129.98,1
127,127.39,129.95,1
128,127.40,129.93,1
129,127.43,129.92,1
128,127.44,129.90,1
128,127.45,129.88,1
129,127.49,129.87,1
128,127.50,129.86,1
129,127.53,129.85,1
128,127.54,129.83,1
128,127.55,129.81,1
128,127.55,129.79,1
129,127.58,129.78,1
127,127.57,129.76,1
128,127.58,129.74,1
128,127.59,129.72,1
127,127.58,129.69,1
129,127.61,129.69,1
128,127.61,129.67,1
128,127.62,129.65,1
128,127.63,129.64,1
129,127.66,129.63,1
129,127.68,129.62,1
129,127.71,129.62,1
129,127.73,129.61,1
129,127.76,129.61,1
130,127.80,129.61,1
132,127.89,129.63,1
131,127.95,129.65,1
133,128.05,129.68,1
131,128.11,129.69,1
131,128.17,129.71,1
131,128.23,129.72,1
131,128.28,129.73,1
132,128.36,129.76,1
133,128.45,129.79,1
133,128.54,129.82,1
132,128.61,129.84,1
133,128.70,129.87,1
132,128.76,129.89,1
133,128.85,129.93,1
133,128.93,129.96,1
132,128.99,129.98,1
133,129.07,130.01,1
133,129.15,130.04,1
133,129.23,130.07,1
134,129.32,130.11,1
133,129.40,130.13,1
133,129.47,130.16,1
133,129.54,130.19,1
133,129.61,130.22,1
133,129.68,130.25,1
132,129.72,130.27,1
133,129.79,130.29,1
134,129.87,130.33,1
135,129.97,130.38,1
134,130.06,130.41,1
135,130.15,130.46,1
134,130.23,130.49,1
134,130.31,130.53,1
134,130.38,130.56,1
135,130.47,130.61,1
134,130.54,130.64,2
134,130.61,130.68,2
133,130.66,130.70,3
133,130.71,130.72,3
135,130.79,130.76,4
135,130.88,130.81,4
135,130.96,130.85,5
135,131.04,130.89,5
135,131.12,130.93,5
135,131.20,130.97,5
136,131.29,131.02,5
135,131.37,131.06,5
135,131.44,131.10,5
136,131.53,131.15,5
136,131.62,131.20,5
135,131.69,131.24,5
135,131.75,131.27,5
135,131.82,131.31,5
135,131.88,131.35,5
135,131.95,131.39,5
136,132.03,131.43,5
136,132.11,131.48,5
138,132.22,131.54,5
137,132.32,131.60,5
137,132.41,131.65,5
139,132.54,131.72,5
139,132.67,131.80,5
141,132.84,131.89,5
138,132.94,131.95,5
138,133.04,132.01,5
139,133.16,132.08,5
140,133.30,132.16,5
138,133.39,132.22,5
140,133.53,132.30,5
139,133.64,132.36,5
139,133.74,132.43,5
140,133.87,132.51,5
140,133.99,132.58,5
139,134.09,132.64,5
139,134.19,132.71,5
141,134.33,132.79,5
141,134.46,132.87,5
141,134.59,132.95,5
139,134.68,133.01,5
141,134.80,133.09,5
141,134.93,133.17,5
142,135.07,133.26,5
141,135.19,133.34,5
141,135.30,133.42,5
141,135.42,133.49,5
143,135.57,133.59,5
141,135.68,133.66,5
141,135.79,133.73,5
143,135.93,133.83,5
143,136.07,133.92,5
142,136.19,134.00,5
142,136.31,134.08,5
141,136.40,134.15,5
143,136.53,134.24,5
143,136.66,134.32,5
143,136.79,134.41,5
142,136.89,134.49,5
143,137.01,134.57,5
145,137.17,134.68,5
143,137.29,134.76,5
144,137.42,134.85,5
143,137.54,134.93,5
145,137.69,135.03,5
145,137.83,135.13,5
146,138.00,135.24,5
145,138.14,135.34,5
146,138.29,135.45,5
145,138.43,135.54,5
144,138.54,135.63,5
145,138.67,135.72,5
145,138.79,135.81,5
146,138.94,135.92,5
146,139.08,136.02,5
147,139.24,136.13,5
146,139.37,136.23,5
145,139.49,136.31,5
146,139.62,136.41,5
149,139.80,136.54,5
145,139.91,136.62,5
145,140.01,136.70,5
145,140.11,136.79,5
147,140.25,136.89,5
145,140.34,136.97,5
147,140.48,137.07,5
145,140.57,137.15,5
145,140.65,137.23,5
145,140.74,137.31,5
147,140.87,137.40,5
147,140.99,137.50,5
146,141.09,137.58,5
145,141.17,137.66,5
147,141.28,137.75,5
145,141.36,137.82,5
144,141.41,137.89,5
147,141.52,137.98,5
147,141.63,138.07,5
146,141.72,138.15,5
147,141.83,138.24,5
150,141.99,138.35,5
149,142.13,138.46,5
148,142.25,138.55,5
148,142.36,138.65,5
149,142.49,138.75,5
149,142.62,138.86,5
150,142.77,138.97,5
150,142.92,139.08,5
151,143.08,139.20,5
151,143.24,139.31,5
151,143.39,139.43,5
153,143.58,139.57,5
152,143.75,139.69,5
152,143.92,139.81,5
152,144.08,139.94,5
153,144.26,140.07,5
153,144.43,140.20,5
155,144.64,140.34,5
156,144.87,140.50,5
155,145.07,140.65,5
156,145.29,140.80,5
156,145.51,140.95,5
157,145.74,141.11,5
156,145.94,141.26,5
156,146.14,141.41,5
156,146.34,141.55,5
156,146.53,141.70,5
157,146.74,141.85,5
157,146.95,142.00,5
158,147.17,142.16,5
158,147.39,142.32,5
157,147.58,142.47,5
157,147.77,142.61,5
157,147.95,142.76,5
161,148.21,142.94,5
159,148.43,143.10,5
158,148.62,143.25,5
159,148.83,143.41,5
160,149.05,143.57,5
159,149.25,143.73,5
159,149.44,143.88,5
159,149.64,144.03,5
159,149.82,144.18,5
160,150.03,144.34,5
161,150.25,144.51,5
160,150.44,144.66,5
159,150.61,144.80,5
159,150.78,144.95,5
160,150.96,145.10,5
160,151.14,145.25,5
159,151.30,145.38,5
161,151.50,145.54,5
161,151.69,145.69,5
160,151.85,145.84,5
161,152.03,145.99,5
162,152.23,146.15,5
161,152.41,146.30,5
164,152.64,146.47,5
165,152.89,146.66,5
164,153.11,146.83,5
166,153.37,147.02,5
165,153.60,147.20,5
166,153.85,147.39,5
167,154.11,147.59,5
165,154.33,147.76,5
166,154.56,147.94,5
167,154.81,148.14,5
167,155.06,148.32,5
166,155.27,148.50,5
167,155.51,148.69,5
169,155.78,148.89,5
169,156.04,149.09,5
169,156.30,149.29,5
173,156.64,149.53,5
170,156.90,149.73,5
172,157.21,149.95,5
170,157.46,150.15,5
173,157.77,150.38,5
173,158.08,150.61,5
175,158.42,150.85,5
174,158.73,151.08,5
177,159.09,151.34,5
179,159.49,151.62,5
180,159.90,151.90,5
180,160.30,152.18,5
180,160.70,152.46,5
181,161.10,152.75,5
182,161.52,153.04,5
183,161.95,153.34,5
183,162.37,153.64,5
181,162.74,153.91,5
181,163.11,154.18,5
184,163.53,154.48,5
184,163.94,154.77,5
183,164.32,155.06,5
183,164.69,155.34,5
183,165.06,155.61,5
183,165.42,155.89,5
184,165.79,156.17,5
183,166.13,156.44,5
184,166.49,156.71,5
184,166.84,156.98,5
185,167.20,157.26,5
186,167.58,157.55,5
187,167.97,157.85,5
187,168.35,158.14,5
188,168.74,158.44,5
188,169.13,158.73,5
187,169.48,159.02,5
189,169.87,159.32,5
187,170.22,159.59,5
190,170.61,159.90,5
190,171.00,160.20,5
189,171.36,160.49,5
191,171.75,160.79,5
193,172.18,161.11,5
193,172.59,161.43,5
192,172.98,161.74,5
193,173.38,162.05,5
193,173.78,162.36,5
193,174.16,162.67,5
194,174.56,162.98,5
193,174.93,163.28,5
195,175.33,163.60,5
195,175.72,163.91,5
194,176.09,164.21,5
196,176.48,164.53,5
196,176.87,164.84,5
195,177.24,165.15,5
197,177.63,165.46,5
200,178.08,165.81,5
199,178.50,166.14,5
199,178.91,166.47,5
201,179.35,166.82,5
203,179.82,167.18,5
204,180.31,167.55,5
205,180.80,167.92,5
203,181.24,168.27,5
207,181.76,168.66,5
209,182.30,169.06,5
209,182.84,169.46,5
209,183.36,169.86,5
213,183.95,170.29,5
214,184.56,170.72,5
214,185.14,171.16,5
215,185.74,171.60,5
216,186.35,172.04,5
217,186.96,172.49,5
220,187.62,172.96,5
221,188.29,173.44,5
221,188.94,173.92,5
222,189.60,174.40,5
224,190.29,174.90,5
225,190.99,175.40,5
223,191.63,175.87,5
224,192.27,176.36,5
224,192.91,176.83,5
224,193.53,177.30,5
225,194.16,177.78,5
228,194.84,178.28,5
227,195.48,178.77,5
226,196.09,179.24,5
227,196.71,179.72,5
228,197.33,180.20,5
229,197.97,180.69,5
228,198.57,181.16,5
230,199.20,181.65,5
231,199.83,182.15,5
231,200.46,182.63,5
231,201.07,183.12,5
235,201.75,183.64,5
234,202.39,184.14,5
234,203.02,184.64,5
233,203.62,185.12,5
232,204.19,185.59,5
232,204.75,186.06,5
233,205.31,186.52,5
233,205.86,186.99,5
233,206.41,187.45,5
233,206.94,187.91,5
232,207.44,188.35,5
232,207.93,188.78,5
232,208.41,189.21,5
235,208.94,189.67,5
232,209.41,190.10,5
233,209.88,190.53,5
231,210.30,190.93,5
231,210.71,191.33,5
231,211.12,191.73,5
231,211.52,192.12,5
231,211.91,192.51,5
232,212.31,192.90,5
230,212.66,193.27,5
231,213.03,193.65,5
230,213.37,194.02,5
229,213.68,194.37,5
231,214.03,194.73,5
230,214.35,195.08,5
230,214.66,195.43,5
229,214.95,195.77,5
229,215.23,196.10,5
229,215.50,196.43,5
229,215.77,196.76,5
227,216.00,197.06,5
228,216.24,197.37,5
228,216.47,197.67,5
227,216.68,197.97,5
227,216.89,198.26,5
228,217.11,198.56,5
225,217.27,198.82,5
225,217.42,199.08,5
225,217.58,199.34,5
225,217.72,199.60,5
224,217.85,199.84,5
225,217.99,200.09,5
223,218.09,200.32,5
223,218.19,200.55,5
223,218.29,200.77,5
223,218.38,201.00,5
223,218.47,201.22,5
222,218.54,201.42,5
221,218.59,201.62,5
223,218.68,201.83,5
222,218.75,202.03,5
221,218.79,202.22,5
221,218.84,202.41,5
221,218.88,202.60,5
220,218.90,202.77,5
220,218.93,202.94,5
220,218.95,203.11,5
220,218.97,203.28,5
219,218.97,203.44,5
217,218.93,203.58,5
217,218.89,203.71,5
218,218.87,203.85,5
217,218.84,203.99,5
217,218.80,204.12,5
217,218.76,204.24,5
215,218.69,204.35,5
216,218.63,204.47,5
217,218.60,204.59,5
216,218.55,204.71,5
216,218.50,204.82,5
216,218.45,204.93,5
215,218.38,205.03,5
215,218.31,205.13,5
215,218.25,205.23,5
214,218.16,205.32,5
213,218.06,205.40,5
213,217.96,205.47,5
213,217.86,205.55,5
213,217.76,205.62,5
213,217.66,205.70,5
212,217.55,205.76,5
212,217.44,205.82,5
212,217.33,205.88,5
211,217.20,205.93,5
212,217.10,205.99,5
211,216.98,206.04,5
210,216.84,206.08,5
209,216.68,206.11,5
209,216.53,206.14,5
209,216.38,206.17,5
210,216.25,206.21,5
209,216.11,206.24,5
209,215.96,206.26,5
208,215.80,206.28,5
208,215.65,206.30,5
207,215.48,206.31,5
207,215.31,206.31,5
208,215.16,206.33,5
207,215.00,206.34,5
207,214.84,206.34,5
205,214.64,206.33,5
205,214.45,206.32,5
205,214.26,206.30,5
205,214.07,206.29,5
206,213.91,206.29,5
205,213.73,206.27,5
204,213.54,206.25,5
204,213.35,206.23,5
203,213.14,206.20,5
203,212.94,206.17,5
203,212.74,206.13,5
203,212.54,206.10,5
203,212.35,206.07,5
202,212.15,206.03,5
201,211.92,205.98,5
201,211.71,205.93,5
201,211.49,205.88,5
201,211.28,205.83,5
200,211.06,205.77,5
200,210.83,205.72,5
197,210.56,205.63,5
200,210.35,205.57,5
201,210.16,205.53,5
199,209.94,205.46,5
199,209.72,205.40,5
199,209.50,205.33,5
198,209.27,205.26,5
198,209.05,205.19,5
198,208.83,205.12,5
197,208.59,205.03,5
197,208.36,204.95,5
197,208.13,204.87,5
196,207.89,204.79,5
197,207.67,204.71,5
196,207.44,204.62,5
196,207.21,204.53,5
196,206.98,204.45,5
196,206.77,204.36,5
195,206.53,204.27,5
196,206.32,204.19,5
195,206.09,204.10,5
195,205.87,204.01,5
193,205.61,203.90,5
194,205.38,203.80,5
194,205.15,203.70,5
193,204.91,203.59,5
193,204.67,203.49,5
193,204.44,203.38,5
193,204.21,203.28,5
192,203.97,203.16,5
193,203.75,203.06,5
191,203.49,202.94,5
191,203.24,202.82,5
191,203.00,202.70,5
192,202.78,202.60,5
190,202.52,202.47,6
191,202.29,202.36,6
191,202.07,202.24,6
190,201.82,202.12,6
189,201.57,201.99,6
189,201.32,201.86,6
189,201.07,201.73,6
190,200.85,201.61,6
189,200.61,201.49,6
188,200.36,201.35,6
189,200.13,201.23,6
188,199.89,201.10,6
188,199.65,200.97,6
188,199.42,200.84,6
187,199.17,200.70,6
187,198.93,200.56,6
187,198.69,200.43,6
187,198.45,200.29,6
186,198.21,200.15,6
185,197.94,200.00,6
185,197.68,199.85,6
186,197.45,199.71,6
185,197.20,199.56,6
185,196.96,199.42,6
185,196.72,199.27,6
185,196.48,199.13,6
184,196.23,198.98,6
184,195.99,198.83,6
184,195.75,198.68,6
183,195.49,198.52,6
183,195.24,198.37,6
183,195.00,198.21,6
183,194.76,198.06,6
184,194.54,197.92,6
181,194.27,197.75,6
182,194.03,197.59,6
181,193.77,197.43,6
181,193.51,197.26,6
181,193.26,197.10,6
181,193.02,196.94,6
181,192.78,196.78,6
181,192.54,196.62,6
180,192.29,196.46,6
180,192.04,196.29,6
179,191.78,196.12,6
179,191.53,195.95,6
179,191.28,195.78,6
179,191.03,195.61,6
180,190.81,195.45,6
178,190.55,195.28,6
178,190.30,195.11,6
177,190.04,194.93,6
177,189.78,194.75,6
177,189.52,194.57,6
177,189.27,194.39,6
177,189.02,194.22,6
177,188.78,194.05,6
176,188.53,193.87,6
176,188.28,193.69,6
175,188.01,193.50,6
176,187.77,193.33,6
175,187.52,193.14,6
176,187.29,192.97,6
175,187.04,192.79,6
175,186.80,192.61,6
175,186.56,192.44,6
173,186.29,192.24,6
174,186.05,192.06,6
173,185.79,191.87,6
173,185.53,191.68,6
173,185.28,191.50,6
174,185.05,191.32,6
172,184.79,191.13,6
172,184.54,190.94,6
171,184.27,190.74,6
171,184.00,190.54,6
172,183.76,190.35,6
172,183.53,190.17,6
171,183.28,189.98,6
171,183.03,189.79,6
171,182.79,189.60,6
170,182.53,189.40,6
171,182.30,189.22,6
169,182.04,189.02,6
170,181.80,188.83,6
170,181.56,188.64,6
170,181.33,188.45,6
171,181.12,188.28,6
171,180.92,188.11,6
169,180.68,187.92,6
169,180.45,187.73,6
169,180.22,187.54,6
169,179.99,187.35,6
169,179.77,187.17,6
169,179.56,186.99,6
168,179.33,186.80,6
168,179.10,186.61,6
169,178.90,186.43,6
171,178.74,186.28,6
168,178.53,186.10,6
167,178.30,185.91,6
167,178.07,185.72,6
167,177.85,185.53,6
166,177.61,185.33,6
165,177.36,185.13,6
165,177.11,184.93,6
165,176.87,184.73,6
165,176.63,184.53,6
165,176.40,184.34,6
164,176.15,184.13,6
164,175.91,183.93,6
165,175.69,183.74,6
165,175.48,183.56,6
165,175.27,183.37,6
164,175.04,183.18,6
165,174.84,183.00,6
165,174.64,182.82,6
164,174.43,182.63,6
164,174.22,182.44,6
163,174.00,182.25,6
165,173.82,182.07,6
164,173.62,181.89,6
163,173.41,181.70,6
163,173.20,181.52,6
163,173.00,181.33,6
164,172.82,181.16,6
162,172.60,180.97,6
162,172.39,180.78,6
162,172.18,180.59,6
161,171.96,180.39,6
161,171.74,180.20,6
161,171.52,180.01,6
161,171.31,179.82,6
161,171.11,179.63,6
161,170.91,179.44,6
161,170.71,179.26,6
161,170.51,179.08,6
161,170.32,178.90,6
161,170.14,178.72,6
161,169.95,178.54,6
161,169.77,178.36,6
160,169.58,178.18,6
159,169.37,177.99,6
160,169.18,177.81,6
159,168.98,177.62,6
159,168.78,177.43,6
160,168.60,177.26,6
159,168.41,177.08,6
159,168.22,176.90,6
159,168.04,176.72,6
158,167.84,176.53,6
159,167.66,176.36,6
159,167.49,176.18,6
158,167.30,176.00,6
159,167.13,175.83,6
157,166.93,175.64,6
157,166.73,175.46,6
158,166.55,175.28,6
158,166.38,175.11,6
157,166.20,174.93,6
157,166.01,174.75,6
157,165.83,174.57,6
157,165.66,174.39,6
157,165.48,174.22,6
157,165.31,174.05,6
157,165.15,173.88,6
157,164.98,173.71,6
157,164.82,173.54,6
156,164.65,173.37,6
157,164.49,173.20,6
156,164.32,173.03,6
157,164.18,172.87,6
156,164.01,172.70,6
156,163.85,172.53,6
157,163.72,172.38,6
156,163.56,172.22,6
156,163.41,172.05,6
155,163.24,171.88,6
156,163.10,171.72,6
155,162.94,171.56,6
154,162.76,171.38,6
156,162.62,171.23,6
155,162.47,171.07,6
154,162.30,170.89,6
155,162.15,170.74,6
155,162.01,170.58,6
156,161.89,170.43,6
155,161.75,170.28,6
154,161.60,170.12,6
153,161.43,169.94,6
154,161.28,169.78,6
154,161.13,169.63,6
153,160.97,169.46,6
153,160.81,169.30,6
153,160.65,169.13,6
153,160.50,168.97,6
153,160.35,168.81,6
154,160.22,168.66,6
152,160.06,168.50,6
152,159.90,168.33,6
152,159.74,168.17,6
153,159.61,168.02,6
152,159.45,167.86,6
152,159.30,167.70,6
152,159.16,167.54,6
151,159.00,167.38,6
152,158.86,167.22,6
152,158.72,167.07,6
151,158.56,166.91,6
151,158.41,166.75,6
152,158.28,166.60,6
151,158.14,166.45,6
151,158.00,166.29,6
151,157.86,166.14,6
152,157.74,166.00,6
152,157.62,165.86,6
151,157.49,165.71,6
151,157.36,165.56,6
151,157.23,165.42,6
151,157.11,165.27,6
151,156.99,165.13,6
151,156.87,164.99,6
151,156.75,164.85,6
150,156.62,164.70,6
151,156.50,164.56,6
149,156.35,164.41,6
149,156.21,164.25,6
149,156.06,164.10,6
150,155.94,163.96,6
149,155.80,163.81,6
150,155.69,163.67,6
149,155.55,163.53,6
149,155.42,163.38,6
149,155.29,163.24,6
149,155.17,163.09,6
149,155.04,162.95,6
149,154.92,162.81,6
149,154.80,162.68,6
149,154.69,162.54,6
149,154.57,162.40,6
147,154.42,162.25,6
147,154.27,162.10,6
148,154.15,161.96,6
147,154.01,161.81,6
147,153.87,161.66,6
147,153.73,161.51,6
148,153.61,161.38,6
151,153.56,161.27,6
146,153.41,161.12,6
146,153.26,160.97,6
145,153.10,160.81,6
145,152.93,160.65,6
146,152.80,160.50,6
145,152.64,160.35,6
145,152.49,160.20,6
145,152.34,160.04,6
146,152.21,159.90,6
144,152.05,159.74,6
145,151.91,159.60,6
145,151.77,159.45,6
145,151.63,159.31,6
145,151.50,159.16,6
144,151.35,159.01,6
144,151.20,158.86,6
144,151.06,158.71,6
144,150.92,158.57,6
144,150.78,158.42,6
143,150.62,158.27,6
143,150.47,158.11,6
143,150.32,157.96,6
144,150.20,157.82,6
144,150.07,157.68,6
143,149.93,157.54,6
145,149.83,157.41,6
143,149.69,157.27,6
144,149.58,157.14,6
143,149.45,156.99,6
143,149.32,156.85,6
143,149.19,156.72,6
144,149.09,156.59,6
143,148.97,156.45,6
143,148.85,156.32,6
143,148.73,156.19,6
143,148.62,156.05,6
143,148.50,155.92,6
142,148.37,155.78,6
143,148.27,155.66,6
142,148.14,155.52,6
143,148.04,155.39,6
141,147.90,155.25,6
143,147.80,155.13,6
141,147.66,154.99,6
142,147.55,154.86,6
141,147.42,154.72,6
142,147.31,154.59,6
141,147.19,154.45,6
141,147.06,154.32,6
141,146.94,154.19,6
141,146.82,154.06,6
141,146.71,153.92,6
141,146.59,153.80,6
141,146.48,153.67,6
137,146.29,153.50,6
140,146.16,153.37,6
139,146.02,153.22,6
140,145.90,153.09,6
139,145.76,152.95,6
140,145.65,152.82,6
140,145.53,152.69,6
140,145.42,152.56,6
140,145.32,152.44,6
140,145.21,152.31,6
139,145.08,152.18,6
139,144.96,152.05,6
137,144.80,151.90,6
138,144.67,151.76,6
138,144.53,151.62,6
138,144.40,151.49,6
138,144.28,151.35,6
137,144.13,151.21,6
139,144.03,151.09,6
138,143.91,150.95,6
139,143.81,150.84,6
137,143.67,150.70,6
137,143.54,150.56,6
138,143.43,150.43,6
138,143.32,150.31,6
137,143.19,150.18,6
139,143.11,150.07,6
137,142.99,149.93,6
137,142.87,149.81,6
137,142.75,149.68,6
137,142.64,149.55,6
138,142.54,149.43,6
137,142.43,149.31,6
137,142.32,149.19,6
136,142.20,149.06,6
137,142.09,148.93,6
135,141.95,148.80,6
136,141.83,148.67,6
136,141.72,148.54,6
138,141.64,148.44,6
135,141.51,148.30,6
137,141.42,148.19,6
135,141.29,148.06,6
135,141.16,147.93,6
135,141.04,147.80,6
135,140.92,147.67,6
133,140.76,147.52,6
135,140.65,147.40,6
136,140.55,147.28,6
135,140.44,147.16,6
135,140.33,147.04,6
135,140.23,146.92,6
135,140.12,146.80,6
135,140.02,146.68,6
135,139.92,146.56,6
131,139.74,146.41,6
135,139.65,146.29,6
134,139.53,146.17,6
135,139.44,146.06,6
133,139.31,145.93,6
135,139.23,145.82,6
133,139.10,145.69,6
134,139.00,145.57,6
133,138.88,145.45,6
133,138.76,145.32,6
133,138.65,145.20,6
133,138.53,145.08,6
133,138.42,144.96,6
133,138.32,144.84,6
133,138.21,144.72,6
133,138.11,144.60,6
133,138.00,144.49,6
133,137.90,144.37,6
133,137.80,144.26,6
131,137.67,144.13,6
133,137.58,144.01,6
132,137.46,143.89,6
132,137.35,143.78,6
132,137.25,143.66,6
132,137.14,143.54,6
133,137.06,143.44,6
132,136.96,143.32,6
132,136.86,143.21,6
131,136.74,143.09,6
132,136.65,142.98,6
131,136.53,142.86,6
132,136.44,142.75,6
131,136.33,142.63,6
131,136.23,142.51,6
131,136.12,142.40,6
132,136.04,142.29,6
131,135.94,142.18,6
131,135.84,142.07,6
131,135.74,141.96,6
134,135.71,141.88,6
129,135.58,141.75,6
130,135.46,141.63,6
130,135.35,141.52,6
130,135.25,141.40,6
130,135.14,141.29,6
129,135.02,141.16,6
130,134.92,141.05,6
129,134.80,140.93,6
130,134.71,140.82,6
130,134.61,140.71,6
129,134.50,140.60,6
129,134.39,140.48,6
129,134.28,140.37,6
129,134.18,140.25,6
129,134.07,140.14,6
128,133.95,140.02,6
129,133.85,139.91,6
129,133.75,139.80,6
129,133.66,139.69,6
129,133.57,139.58,6
129,133.47,139.48,6
129,133.39,139.37,6
129,133.30,139.27,6
129,133.21,139.17,6
129,133.13,139.07,6
129,133.04,138.97,6
128,132.94,138.86,6
128,132.85,138.75,6
129,132.77,138.65,6
128,132.67,138.54,6
128,132.58,138.44,6
128,132.49,138.33,6
128,132.40,138.23,6
128,132.31,138.13,6
128,132.22,138.03,6
129,132.16,137.94,6
127,132.06,137.83,6
128,131.98,137.73,6
128,131.90,137.63,6
127,131.80,137.53,6
127,131.70,137.42,6
127,131.61,137.32,6
127,131.52,137.21,6
126,131.41,137.10,6
127,131.32,137.00,6
127,131.23,136.90,6
127,131.15,136.80,6
127,131.06,136.70,6
125,130.94,136.59,6
127,130.86,136.49,6
127,130.79,136.39,6
126,130.69,136.29,6
126,130.60,136.19,6
125,130.48,136.08,6
125,130.37,135.97,6
125,130.27,135.86,6
126,130.18,135.76,6
125,130.08,135.65,6
125,129.98,135.54,6
125,129.88,135.44,6
125,129.78,135.33,6
125,129.68,135.23,6
125,129.59,135.13,6
125,129.50,135.03,6
125,129.41,134.93,6
124,129.30,134.82,6
125,129.21,134.72,6
126,129.15,134.63,6
123,129.03,134.52,6
125,128.95,134.42,6
124,128.85,134.32,6
123,128.73,134.20,6
125,128.66,134.11,6
125,128.58,134.02,6
124,128.49,133.92,6
123,128.38,133.81,6
125,128.31,133.72,6
125,128.25,133.63,6
123,128.14,133.53,6
124,128.06,133.43,6
124,127.98,133.34,6
125,127.92,133.26,6
124,127.84,133.16,6
123,127.74,133.06,6
124,127.67,132.97,6
124,127.60,132.88,6
124,127.52,132.79,6
124,127.45,132.70,6
124,127.38,132.62,6
123,127.30,132.52,6
124,127.23,132.44,6
124,127.17,132.35,6
124,127.10,132.27,6
124,127.04,132.19,6
123,126.96,132.09,6
124,126.90,132.01,6
123,126.82,131.92,6
125,126.79,131.85,6
124,126.73,131.77,6
125,126.70,131.71,6
125,126.66,131.64,6
125,126.63,131.57,6
125,126.60,131.51,6
125,126.56,131.44,6
125,126.53,131.38,6
126,126.52,131.32,6
125,126.49,131.26,6
125,126.46,131.20,6
125,126.43,131.14,6
123,126.36,131.06,6
125,126.34,130.99,6
125,126.31,130.93,6
125,126.28,130.88,6
124,126.24,130.81,6
123,126.17,130.73,6
125,126.15,130.67,6
125,126.13,130.61,6
125,126.10,130.56,6
125,126.08,130.50,6
125,126.06,130.45,6
125,126.04,130.39,6
126,126.04,130.35,6
126,126.04,130.31,6
127,126.06,130.27,6
125,126.04,130.22,6
125,126.02,130.17,6
125,126.00,130.12,6
125,125.98,130.06,6
125,125.96,130.01,6
127,125.98,129.98,6
126,125.98,129.94,6
125,125.96,129.89,6
127,125.98,129.87,6
127,126.00,129.84,6
127,126.02,129.81,6
127,126.04,129.78,6
127,126.06,129.75,6
127,126.08,129.73,6
126,126.07,129.69,6
127,126.09,129.66,6
127,126.11,129.63,6
127,126.13,129.61,6
127,126.15,129.58,6
127,126.16,129.56,6
127,126.18,129.53,6
127,126.20,129.51,6
128,126.23,129.49,6
127,126.25,129.47,6
131,126.34,129.48,6
127,126.36,129.46,6
127,126.37,129.43,6
127,126.38,129.41,6
127,126.39,129.38,6
127,126.41,129.36,6
127,126.42,129.34,6
127,126.43,129.31,6
127,126.44,129.29,6
127,126.45,129.27,6
127,126.46,129.24,6
127,126.47,129.22,6
127,126.48,129.20,6
127,126.50,129.18,6
126,126.49,129.15,6
127,126.50,129.12,6
122,126.41,129.05,6
125,126.38,129.01,6
125,126.35,128.97,6
125,126.32,128.93,6
125,126.30,128.89,6
126,126.29,128.86,6
126,126.28,128.84,6
126,126.28,128.81,6
125,126.25,128.77,6
126,126.25,128.74,6
125,126.22,128.70,6
125,126.20,128.67,6
126,126.19,128.64,6
125,126.17,128.60,6
127,126.19,128.59,6
125,126.16,128.55,6
125,126.14,128.52,6
125,126.12,128.48,6
127,126.14,128.47,6
125,126.11,128.43,6
125,126.09,128.40,6
125,126.07,128.36,6
126,126.07,128.34,6
125,126.05,128.31,6
125,126.03,128.27,6
124,125.98,128.23,6
125,125.96,128.20,6
125,125.95,128.17,6
125,125.93,128.13,6
126,125.93,128.11,6
125,125.91,128.08,6
125,125.89,128.05,6
125,125.87,128.02,6
125,125.86,127.99,6
125,125.84,127.96,6
125,125.82,127.93,6
125,125.81,127.90,6
125,125.79,127.87,6
125,125.77,127.84,6
127,125.80,127.84,6
125,125.78,127.81,6
126,125.79,127.79,6
125,125.77,127.76,6
125,125.76,127.73,6
127,125.78,127.73,6
127,125.80,127.72,6
126,125.81,127.70,6
126,125.81,127.68,6
127,125.84,127.68,6
126,125.84,127.66,6
127,125.86,127.65,6
127,125.89,127.65,6
126,125.89,127.63,6
125,125.87,127.61,6
127,125.89,127.60,6
126,125.89,127.58,6
127,125.92,127.58,6
125,125.90,127.55,6
125,125.88,127.53,6
125,125.86,127.50,6
126,125.87,127.49,6
125,125.85,127.46,6
125,125.83,127.44,6
125,125.81,127.41,6
126,125.82,127.40,6
127,125.84,127.39,6
125,125.83,127.37,6
125,125.81,127.35,6
127,125.83,127.34,6
127,125.86,127.34,6
125,125.84,127.32,6
127,125.86,127.31,6
126,125.86,127.30,6
127,125.89,127.30,6
125,125.87,127.27,6
126,125.87,127.26,6
127,125.90,127.26,6
126,125.90,127.25,6
126,125.90,127.23,6
126,125.90,127.22,6
125,125.88,127.20,6
125,125.87,127.18,6
127,125.89,127.18,6
126,125.89,127.16,6
126,125.89,127.15,6
126,125.89,127.14,6
127,125.92,127.14,6
126,125.92,127.13,6
127,125.94,127.13,6
127,125.96,127.12,6
127,125.98,127.12,6
125,125.96,127.10,6
127,125.98,127.10,6
127,126.00,127.10,6
127,126.02,127.10,6
127,126.04,127.10,6
127,126.06,127.10,6
127,126.08,127.10,6
126,126.08,127.09,6
125,126.06,127.06,6
126,126.06,127.05,6
127,126.08,127.05,6
126,126.07,127.04,6
127,126.09,127.04,6
128,126.13,127.05,6
129,126.19,127.07,6
129,126.24,127.09,6
129,126.30,127.11,6
131,126.39,127.15,6
132,126.51,127.20,6
132,126.62,127.25,6
133,126.74,127.30,6
133,126.87,127.36,6
133,126.99,127.42,6
133,127.11,127.47,6
132,127.21,127.52,6
133,127.32,127.57,6
132,127.42,127.62,6
133,127.53,127.67,6
133,127.64,127.72,6
133,127.75,127.78,6
133,127.85,127.83,6
133,127.95,127.88,6
132,128.04,127.92,6
133,128.13,127.97,6
133,128.23,128.02,6
135,128.37,128.09,6
133,128.46,128.14,6
135,128.59,128.21,6
133,128.68,128.26,6
133,128.77,128.31,6
133,128.85,128.35,6
134,128.95,128.41,6
137,129.11,128.49,6
134,129.21,128.55,6
135,129.33,128.61,6
135,129.44,128.68,6
137,129.59,128.76,6
135,129.70,128.82,6
136,129.83,128.90,6
135,129.93,128.96,6
134,130.01,129.01,6
134,130.09,129.06,6
136,130.21,129.13,6
135,130.30,129.19,6
135,130.40,129.24,6
135,130.49,129.30,6
135,130.58,129.36,6
137,130.71,129.43,6
133,130.76,129.47,6
137,130.88,129.55,6
136,130.98,129.61,6
137,131.10,129.68,6
137,131.22,129.76,6
137,131.34,129.83,6
139,131.49,129.92,6
138,131.62,130.00,6
139,131.77,130.09,6
139,131.91,130.18,6
139,132.05,130.27,6
139,132.19,130.36,6
139,132.33,130.44,6
140,132.48,130.54,6
140,132.63,130.63,6
139,132.76,130.72,6
141,132.92,130.82,6
141,133.09,130.92,6
141,133.24,131.02,6
141,133.40,131.12,6
143,133.59,131.24,6
141,133.74,131.34,6
143,133.93,131.45,6
143,134.11,131.57,6
144,134.30,131.69,6
143,134.48,131.81,6
145,134.69,131.94,6
145,134.90,132.07,6
145,135.10,132.20,6
145,135.30,132.33,6
145,135.49,132.45,6
145,135.68,132.58,6
146,135.89,132.71,6
147,136.11,132.86,6
149,136.37,133.02,6
148,136.60,133.17,6
147,136.81,133.31,6
148,137.03,133.45,6
147,137.23,133.59,6
147,137.43,133.72,6
148,137.64,133.87,6
148,137.84,134.01,6
149,138.07,134.16,6
150,138.31,134.32,6
149,138.52,134.46,6
149,138.73,134.61,6
149,138.93,134.75,6
148,139.12,134.88,6
150,139.33,135.04,6
150,139.55,135.18,6
149,139.74,135.32,6
149,139.92,135.46,6
149,140.10,135.60,6
149,140.28,135.73,6
150,140.48,135.87,6
151,140.69,136.02,6
151,140.89,136.17,6
152,141.11,136.33,6
155,141.39,136.52,6
153,141.62,136.68,6
154,141.87,136.86,6
154,142.11,137.03,6
156,142.39,137.22,6
157,142.68,137.41,6
157,142.97,137.61,6
157,143.25,137.80,6
158,143.55,138.01,6
159,143.86,138.22,6
159,144.16,138.42,6
159,144.45,138.63,6
159,144.75,138.83,6
160,145.05,139.05,6
161,145.37,139.27,6
162,145.70,139.49,6
162,146.03,139.72,6
161,146.33,139.93,6
163,146.66,140.16,6
168,147.09,140.44,6
169,147.53,140.72,6
167,147.92,140.99,6
168,148.32,141.26,6
170,148.75,141.55,6
169,149.16,141.82,6
170,149.57,142.10,6
169,149.96,142.37,6
169,150.34,142.64,6
172,150.78,142.93,6
171,151.18,143.21,6
171,151.58,143.49,6
170,151.94,143.75,6
171,152.33,144.03,6
171,152.70,144.30,6
172,153.09,144.57,6
171,153.44,144.84,6
171,153.79,145.10,6
171,154.14,145.36,6
170,154.46,145.60,6
170,154.77,145.85,6
172,155.11,146.11,6
170,155.41,146.35,6
170,155.70,146.59,6
170,155.99,146.82,6
170,156.27,147.05,6
172,156.58,147.30,6
173,156.91,147.56,6
173,157.23,147.81,6
174,157.57,148.07,6
173,157.88,148.32,6
175,158.22,148.59,6
177,158.59,148.87,6
175,158.92,149.14,6
177,159.28,149.41,6
177,159.64,149.69,6
178,160.01,149.97,6
177,160.35,150.24,6
177,160.68,150.51,6
179,161.05,150.80,6
180,161.42,151.09,6
180,161.80,151.38,6
179,162.14,151.65,6
181,162.52,151.95,6
181,162.89,152.24,6
181,163.25,152.53,6
181,163.60,152.81,6
183,163.99,153.11,6
181,164.33,153.39,6
183,164.71,153.69,6
181,165.03,153.96,6
182,165.37,154.24,6
182,165.70,154.52,6
183,166.05,154.80,6
182,166.37,155.07,6
182,166.68,155.34,6
183,167.01,155.62,6
183,167.33,155.89,6
183,167.64,156.17,6
183,167.95,156.43,6
184,168.27,156.71,6
184,168.58,156.98,6
184,168.89,157.25,6
185,169.21,157.53,6
186,169.55,157.81,6
185,169.86,158.09,6
185,170.16,158.36,6
185,170.46,158.62,6
184,170.73,158.88,6
183,170.97,159.12,6
184,171.23,159.37,6
184,171.49,159.61,6
183,171.72,159.85,6
184,171.97,160.09,6
185,172.23,160.34,6
187,172.52,160.60,6
186,172.79,160.86,6
185,173.04,161.10,6
185,173.28,161.34,6
185,173.51,161.57,6
185,173.74,161.81,6
186,173.98,162.05,6
187,174.25,162.30,6
187,174.50,162.55,6
187,174.75,162.79,6
187,175.00,163.03,6
187,175.24,163.27,6
187,175.47,163.51,6
187,175.70,163.75,6
186,175.91,163.97,6
187,176.13,164.20,6
188,176.37,164.44,6
187,176.58,164.66,6
187,176.79,164.89,6
187,176.99,165.11,6
188,177.21,165.34,6
187,177.41,165.55,6
186,177.58,165.76,6
187,177.77,165.97,6
186,177.93,166.17,6
186,178.09,166.37,6
185,178.23,166.55,6
186,178.39,166.75,6
185,178.52,166.93,6
185,178.65,167.11,6
185,178.78,167.29,6
184,178.88,167.46,6
185,179.00,167.63,6
186,179.14,167.82,6
184,179.24,167.98,6
183,179.32,168.13,6
186,179.45,168.31,6
183,179.52,168.45,6
183,179.59,168.60,6
182,179.64,168.73,6
182,179.69,168.87,6
182,179.73,169.00,6
181,179.76,169.12,6
181,179.78,169.24,6
181,179.81,169.35,6
181,179.83,169.47,6
181,179.85,169.59,6
181,179.88,169.70,6
181,179.90,169.81,6
179,179.88,169.91,6
180,179.88,170.01,6
180,179.89,170.11,6
180,179.89,170.21,6
179,179.87,170.29,6
179,179.85,170.38,6
179,179.84,170.47,6
179,179.82,170.55,6
179,179.80,170.64,6
178,179.77,170.71,6
178,179.73,170.78,6
178,179.70,170.85,6
179,179.68,170.94,6
177,179.63,171.00,6
177,179.58,171.06,6
177,179.52,171.12,6
177,179.47,171.18,6
178,179.44,171.24,6
177,179.40,171.30,6
177,179.35,171.36,6
176,179.28,171.40,6
175,179.20,171.44,6
175,179.11,171.48,6
175,179.03,171.51,6
175,178.95,171.55,6
175,178.87,171.58,6
175,178.79,171.61,6
175,178.72,171.65,6
173,178.60,171.66,6
175,178.53,171.70,6
173,178.42,171.71,6
173,178.31,171.72,6
173,178.21,171.73,6
173,178.10,171.75,6
172,177.98,171.75,6
173,177.88,171.76,6
172,177.76,171.76,6
171,177.63,171.76,6
172,177.51,171.76,6
172,177.40,171.76,6
171,177.28,171.75,6
170,177.13,171.74,6
169,176.97,171.71,6
170,176.83,171.69,6
169,176.67,171.67,6
169,176.52,171.64,6
169,176.37,171.61,6
169,176.22,171.59,6
169,176.08,171.56,6
168,175.91,171.52,6
169,175.78,171.50,6
168,175.62,171.46,6
168,175.47,171.43,6
167,175.30,171.39,6
167,175.13,171.34,6
168,174.99,171.31,6
166,174.81,171.25,6
167,174.65,171.21,6
167,174.50,171.17,6
167,174.35,171.13,6
166,174.18,171.08,6
167,174.04,171.04,6
166,173.88,170.99,6
166,173.72,170.94,6
165,173.55,170.88,6
165,173.38,170.82,6
165,173.21,170.76,6
165,173.05,170.70,6
165,172.88,170.65,6
164,172.71,170.58,6
165,172.55,170.52,6
164,172.38,170.46,6
164,172.21,170.39,6
164,172.05,170.33,6
164,171.89,170.27,6
163,171.71,170.19,6
164,171.56,170.13,6
163,171.39,170.06,6
164,171.24,170.00,6
163,171.07,169.93,6
164,170.93,169.87,6
167,170.85,169.84,6
164,170.72,169.78,6
162,170.54,169.71,6
163,170.39,169.64,6
161,170.20,169.55,6
163,170.06,169.49,6
163,169.92,169.42,6
162,169.76,169.35,6
161,169.58,169.26,6
161,169.41,169.18,6
161,169.24,169.10,6
161,169.08,169.02,7
161,168.92,168.94,7
160,168.74,168.85,8
160,168.56,168.76,8
160,168.39,168.67,8
160,168.23,168.59,8
160,168.06,168.50,8
160,167.90,168.42,8
159,167.72,168.32,8
159,167.55,168.23,8
159,167.38,168.14,8
159,167.21,168.04,8
159,167.04,167.95,8
160,166.90,167.87,8
158,166.73,167.78,8
158,166.55,167.68,8
157,166.36,167.57,8
158,166.19,167.48,8
159,166.05,167.39,8
157,165.87,167.29,8
157,165.69,167.18,8
157,165.52,167.08,8
157,165.35,166.98,8
157,165.18,166.88,8
156,165.00,166.77,8
156,164.82,166.66,8
156,164.64,166.56,8
156,164.47,166.45,8
156,164.30,166.35,8
155,164.11,166.23,8
156,163.95,166.13,8
155,163.77,166.02,8
155,163.60,165.91,8
155,163.42,165.80,8
155,163.25,165.69,8
154,163.07,165.58,8
154,162.89,165.46,8
153,162.69,165.34,8
153,162.50,165.21,8
153,162.31,165.09,8
153,162.12,164.97,8
153,161.94,164.85,8
153,161.76,164.73,8
152,161.56,164.60,8
152,161.37,164.48,8
153,161.21,164.36,8
152,161.02,164.24,8
151,160.82,164.11,8
151,160.62,163.98,8
152,160.45,163.86,8
152,160.28,163.74,8
151,160.10,163.61,8
151,159.92,163.48,8
151,159.74,163.36,8
151,159.56,163.24,8
151,159.39,163.11,8
151,159.22,162.99,8
151,159.06,162.87,8
150,158.88,162.74,8
151,158.72,162.63,8
150,158.55,162.50,8
150,158.37,162.38,8
151,158.23,162.26,8
149,158.04,162.13,8
149,157.86,162.00,8
149,157.68,161.87,8
149,157.51,161.74,8
149,157.34,161.61,8
149,157.17,161.49,8
148,156.99,161.35,8
148,156.81,161.22,8
149,156.65,161.09,8
147,156.46,160.95,8
148,156.29,160.82,8
149,156.15,160.71,8
148,155.98,160.58,8
147,155.80,160.44,8
148,155.65,160.32,8
147,155.47,160.19,8
148,155.33,160.06,8
147,155.16,159.93,8
147,155.00,159.80,8
145,154.80,159.66,8
147,154.64,159.53,8
147,154.49,159.40,8
146,154.32,159.27,8
147,154.17,159.15,8
146,154.01,159.02,8
145,153.83,158.88,8
145,153.65,158.74,8
143,153.44,158.58,8
146,153.29,158.45,8
145,153.12,158.32,8
145,152.96,158.19,8
145,152.80,158.05,8
144,152.63,157.91,8
145,152.47,157.78,8
145,152.32,157.66,8
144,152.16,157.52,8
143,151.97,157.37,8
145,151.83,157.25,8
144,151.68,157.12,8
144,151.52,156.99,8
143,151.35,156.85,8
143,151.19,156.71,8
143,151.02,156.57,8
143,150.86,156.44,8
143,150.71,156.30,8
143,150.55,156.17,8
144,150.42,156.05,8
143,150.27,155.92,8
143,150.13,155.79,8
143,149.98,155.66,8
143,149.84,155.53,8
143,149.71,155.41,8
142,149.55,155.27,8
142,149.40,155.14,8
143,149.27,155.02,8
141,149.11,154.88,8
141,148.95,154.74,8
142,148.81,154.61,8
141,148.65,154.48,8
141,148.50,154.34,8
141,148.35,154.21,8
141,148.20,154.08,8
141,148.06,153.95,8
141,147.92,153.82,8
141,147.78,153.69,8
141,147.64,153.56,8
140,147.49,153.43,8
141,147.36,153.30,8
141,147.23,153.18,8
141,147.11,153.06,8
140,146.97,152.93,8
140,146.83,152.80,8
140,146.69,152.67,8
139,146.54,152.53,8
140,146.41,152.41,8
141,146.30,152.29,8
140,146.17,152.17,8
139,146.03,152.04,8
139,145.89,151.91,8
139,145.75,151.78,8
137,145.57,151.63,8
138,145.42,151.49,8
139,145.29,151.37,8
139,145.17,151.25,8
138,145.03,151.11,8
138,144.88,150.98,8
139,144.77,150.86,8
137,144.61,150.72,8
137,144.46,150.59,8
137,144.31,150.45,8
137,144.16,150.32,8
137,144.02,150.18,8
137,143.88,150.05,8
137,143.74,149.92,8
137,143.61,149.79,8
137,143.48,149.66,8
137,143.35,149.54,8
137,143.22,149.41,8
137,143.10,149.29,8
136,142.95,149.15,8
136,142.81,149.02,8
137,142.70,148.90,8
135,142.54,148.76,8
137,142.43,148.65,8
135,142.28,148.51,8
135,142.14,148.37,8
135,142.00,148.24,8
135,141.86,148.11,8
135,141.72,147.98,8
135,141.58,147.85,8
135,141.45,147.72,8
135,141.32,147.59,8
135,141.20,147.47,8
135,141.07,147.34,8
135,140.95,147.22,8
135,140.83,147.10,8
134,140.70,146.96,8
135,140.58,146.85,8
135,140.47,146.73,8
135,140.36,146.61,8
134,140.23,146.48,8
135,140.13,146.37,8
133,139.99,146.24,8
133,139.85,146.10,8
134,139.73,145.98,8
133,139.60,145.85,8
133,139.46,145.72,8
133,139.33,145.60,8
133,139.21,145.47,8
133,139.08,145.35,8
133,138.96,145.22,8
133,138.84,145.10,8
133,138.73,144.98,8
133,138.61,144.86,8
133,138.50,144.74,8
133,138.39,144.62,8
133,138.28,144.51,8
133,138.18,144.39,8
133,138.07,144.28,8
132,137.95,144.16,8
133,137.85,144.04,8
132,137.73,143.92,8
133,137.64,143.81,8
133,137.55,143.71,8
133,137.46,143.60,8
133,137.37,143.49,8
133,137.28,143.39,8
133,137.19,143.28,8
133,137.11,143.18,8
132,137.01,143.07,8
133,136.93,142.97,8
133,136.85,142.87,8
132,136.75,142.76,8
132,136.66,142.65,8
131,136.54,142.54,8
132,136.45,142.43,8
132,136.36,142.33,8
131,136.26,142.21,8
131,136.15,142.10,8
131,136.05,141.99,8
131,135.95,141.88,8
131,135.85,141.77,8
131,135.75,141.66,8
132,135.68,141.57,8
132,135.60,141.47,8
133,135.55,141.39,8
131,135.46,141.28,8
131,135.37,141.18,8
131,135.28,141.08,8
133,135.24,141.00,8
131,135.15,140.90,8
130,135.05,140.79,8
130,134.95,140.68,8
132,134.89,140.59,8
130,134.79,140.49,8
130,134.70,140.38,8
130,134.60,140.28,8
129,134.49,140.17,8
131,134.42,140.07,8
129,134.31,139.96,8
129,134.21,139.85,8
129,134.10,139.75,8
129,134.00,139.64,8
129,133.90,139.53,8
129,133.80,139.43,8
129,133.71,139.32,8
129,133.61,139.22,8
129,133.52,139.12,8
129,133.43,139.02,8
128,133.32,138.91,8
128,133.21,138.80,8
129,133.13,138.70,8
128,133.03,138.59,8
128,132.93,138.49,8
128,132.83,138.38,8
129,132.75,138.29,8
128,132.66,138.18,8
128,132.56,138.08,8
128,132.47,137.98,8
127,132.36,137.87,8
128,132.28,137.77,8
128,132.19,137.68,8
128,132.11,137.58,8
127,132.00,137.47,8
127,131.90,137.37,8
127,131.81,137.26,8
127,131.71,137.16,8
127,131.62,137.06,8
127,131.52,136.96,8
127,131.43,136.86,8
127,131.34,136.76,8
128,131.28,136.67,8
127,131.19,136.58,8
128,131.13,136.49,8
127,131.05,136.40,8
128,130.98,136.31,8
127,130.90,136.22,8
127,130.83,136.13,8
127,130.75,136.04,8
129,130.72,135.97,8
128,130.66,135.89,8
127,130.59,135.80,8
127,130.52,135.71,8
127,130.45,135.62,8
131,130.46,135.58,8
127,130.39,135.49,8
127,130.32,135.40,8
127,130.25,135.32,8
127,130.19,135.24,8
127,130.12,135.16,8
127,130.06,135.07,8
127,130.00,134.99,8
126,129.92,134.90,8
125,129.82,134.80,8
126,129.75,134.72,8
126,129.67,134.63,8
127,129.62,134.55,8
127,129.57,134.48,8
125,129.47,134.38,8
127,129.42,134.31,8
124,129.32,134.21,8
125,129.23,134.11,8
125,129.14,134.02,8
125,129.06,133.93,8
126,129.00,133.85,8
125,128.92,133.76,8
125,128.84,133.68,8
123,128.73,133.57,8
125,128.65,133.48,8
125,128.58,133.40,8
125,128.51,133.32,8
125,128.44,133.23,8
124,128.35,133.14,8
124,128.26,133.05,8
124,128.18,132.96,8
124,128.09,132.87,8
125,128.03,132.79,8
124,127.95,132.70,8
123,127.85,132.60,8
124,127.77,132.52,8
124,127.70,132.43,8
125,127.64,132.36,8
123,127.55,132.27,8
123,127.46,132.17,8
123,127.37,132.08,8
124,127.30,132.00,8
123,127.22,131.91,8
124,127.15,131.83,8
123,127.07,131.74,8
123,126.99,131.66,8
123,126.91,131.57,8
123,126.83,131.48,8
122,126.73,131.39,8
122,126.64,131.29,8
121,126.53,131.19,8
121,126.42,131.09,8
122,126.33,131.00,8
122,126.24,130.91,8
122,126.16,130.82,8
121,126.05,130.72,8
121,125.95,130.62,8
121,125.85,130.53,8
122,125.78,130.44,8
122,125.70,130.36,8
121,125.61,130.26,8
122,125.53,130.18,8
121,125.44,130.09,8
121,125.35,130.00,8
121,125.27,129.91,8
121,125.18,129.82,8
121,125.10,129.73,8
121,125.02,129.64,8
122,124.96,129.57,8
122,124.90,129.49,8
122,124.84,129.42,8
121,124.76,129.33,8
121,124.69,129.25,8
121,124.61,129.17,8
121,124.54,129.09,8
121,124.47,129.01,8
120,124.38,128.92,8
121,124.31,128.84,8
120,124.23,128.75,8
120,124.14,128.66,8
120,124.06,128.57,8
120,123.98,128.49,8
119,123.88,128.39,8
120,123.80,128.31,8
120,123.73,128.23,8
119,123.63,128.13,8
119,123.54,128.04,8
120,123.47,127.96,8
119,123.38,127.87,8
119,123.29,127.78,8
120,123.22,127.71,8
119,123.14,127.62,8
119,123.06,127.53,8
119,122.98,127.45,8
119,122.90,127.36,8
119,122.82,127.28,8
119,122.74,127.20,8
119,122.67,127.11,8
119,122.59,127.03,8
119,122.52,126.95,8
118,122.43,126.86,8
118,122.34,126.77,8
119,122.28,126.70,8
118,122.19,126.61,8
117,122.09,126.51,8
118,122.01,126.43,8
117,121.91,126.33,8
118,121.83,126.25,8
117,121.73,126.16,8
117,121.64,126.07,8
117,121.54,125.98,8
117,121.45,125.89,8
117,121.36,125.80,8
117,121.28,125.71,8
117,121.19,125.62,8
117,121.11,125.54,8
117,121.02,125.45,8
117,120.94,125.37,8
115,120.83,125.26,8
117,120.75,125.18,8
116,120.65,125.09,8
116,120.56,125.00,8
116,120.47,124.91,8
115,120.36,124.81,8
115,120.25,124.71,8
116,120.17,124.62,8
116,120.08,124.54,8
115,119.98,124.44,8
115,119.88,124.35,8
115,119.79,124.25,8
116,119.71,124.17,8
115,119.62,124.08,8
114,119.50,123.98,8
115,119.41,123.89,8
115,119.33,123.80,8
114,119.22,123.70,8
115,119.13,123.62,8
113,119.01,123.51,8
113,118.89,123.40,8
113,118.77,123.30,8
114,118.68,123.21,8
113,118.56,123.10,8
114,118.47,123.01,8
113,118.36,122.91,8
113,118.26,122.81,8
115,118.19,122.74,8
113,118.09,122.64,8
113,117.99,122.54,8
114,117.91,122.46,8
117,117.89,122.40,8
114,117.81,122.32,8
115,117.75,122.25,8
113,117.66,122.15,8
113,117.57,122.06,8
113,117.47,121.97,8
114,117.40,121.89,8
114,117.34,121.81,8
115,117.29,121.74,8
115,117.24,121.68,8
115,117.20,121.61,8
115,117.16,121.54,8
113,117.07,121.46,8
115,117.03,121.39,8
113,116.95,121.31,8
115,116.91,121.25,8
112,116.81,121.15,8
115,116.78,121.09,8
113,116.70,121.01,8
113,116.63,120.93,8
113,116.55,120.85,8
113,116.48,120.77,8
113,116.41,120.70,8
114,116.37,120.63,8
114,116.32,120.56,8
113,116.25,120.49,8
113,116.19,120.41,8
114,116.14,120.35,8
115,116.12,120.29,8
114,116.08,120.23,8
113,116.02,120.16,8
115,116.00,120.11,8
115,115.98,120.06,8
115,115.96,120.01,8
116,115.96,119.97,8
115,115.94,119.92,8
116,115.94,119.88,8
117,115.96,119.85,8
117,115.98,119.82,8
117,116.00,119.79,8
116,116.00,119.75,8
117,116.02,119.73,8
117,116.04,119.70,8
117,116.06,119.67,8
117,116.08,119.65,8
117,116.10,119.62,8
119,116.16,119.61,8
118,116.19,119.60,8
118,116.23,119.58,8
117,116.24,119.55,8
117,116.26,119.53,8
117,116.27,119.50,8
117,116.29,119.48,8
117,116.30,119.45,8
117,116.32,119.43,8
118,116.35,119.42,8
118,116.38,119.40,8
119,116.44,119.40,8
118,116.47,119.38,8
118,116.50,119.37,8
118,116.53,119.36,8
118,116.56,119.34,8
119,116.61,119.34,8
118,116.63,119.33,8
118,116.66,119.31,8
118,116.69,119.30,8
119,116.73,119.30,8
119,116.78,119.29,8
117,116.78,119.27,8
118,116.81,119.26,8
119,116.85,119.25,8
119,116.90,119.25,8
120,116.96,119.26,8
119,117.00,119.26,8
120,117.06,119.26,8
119,117.10,119.26,8
119,117.14,119.26,8
119,117.17,119.26,8
120,117.23,119.26,8
119,117.26,119.26,8
119,117.30,119.26,8
120,117.35,119.27,8
120,117.41,119.27,8
120,117.46,119.28,8
120,117.51,119.29,8
120,117.56,119.30,8
121,117.63,119.31,8
121,117.69,119.33,8
120,117.74,119.34,8
121,117.81,119.35,8
120,117.85,119.36,8
121,117.91,119.38,8
120,117.95,119.38,8
120,118.00,119.39,8
119,118.02,119.38,8
120,118.06,119.39,8
119,118.07,119.39,8
119,118.09,119.38,8
120,118.13,119.39,8
119,118.15,119.38,8
119,118.17,119.38,8
119,118.18,119.38,8
119,118.20,119.37,8
120,118.23,119.38,8
119,118.25,119.38,8
119,118.26,119.37,8
119,118.28,119.37,8
119,118.29,119.36,8
119,118.31,119.36,8
117,118.28,119.34,8
118,118.28,119.32,8
119,118.29,119.32,8
119,118.30,119.32,8
118,118.30,119.30,8
119,118.31,119.30,8
119,118.33,119.30,8
118,118.32,119.29,8
119,118.33,119.28,8
119,118.35,119.28,8
121,118.40,119.30,8
120,118.43,119.30,8
120,118.46,119.31,8
119,118.47,119.31,8
120,118.50,119.31,8
119,118.51,119.31,8
119,118.52,119.31,8
120,118.55,119.32,8
120,118.58,119.32,8
119,118.59,119.32,8
119,118.60,119.32,8
120,118.63,119.32,8
120,118.65,119.33,8
120,118.68,119.34,8
119,118.69,119.33,8
119,118.69,119.33,8
119,118.70,119.33,8
121,118.75,119.34,8
119,118.75,119.34,8
121,118.80,119.36,8
121,118.84,119.37,8
120,118.86,119.38,8
121,118.91,119.39,8
120,118.93,119.40,8
121,118.97,119.42,8
122,119.03,119.44,8
121,119.07,119.46,8
121,119.11,119.47,8
121,119.15,119.49,8
121,119.18,119.50,8
123,119.26,119.54,8
121,119.29,119.55,8
121,119.33,119.57,8
121,119.36,119.58,8
121,119.39,119.60,8
121,119.43,119.61,8
121,119.46,119.62,8
121,119.49,119.64,8
120,119.50,119.64,8
120,119.51,119.65,8
119,119.50,119.64,8
120,119.51,119.64,8
122,119.56,119.67,8
120,119.57,119.67,8
121,119.60,119.68,8
121,119.62,119.70,8
120,119.63,119.70,8
121,119.66,119.71,8
120,119.67,119.71,8
121,119.69,119.73,8
120,119.70,119.73,8
121,119.73,119.74,8
121,119.75,119.76,8
121,119.78,119.77,8
121,119.80,119.78,8
120,119.80,119.78,8
121,119.83,119.79,8
121,119.85,119.81,8
120,119.85,119.81,8
121,119.88,119.82,8
121,119.90,119.83,8
120,119.90,119.83,8
121,119.92,119.85,8
121,119.95,119.86,8
122,119.99,119.88,8
120,119.99,119.88,8
120,119.99,119.88,8
121,120.01,119.89,8
120,120.01,119.89,8
120,120.01,119.89,8
120,120.01,119.90,8
120,120.01,119.90,8
121,120.03,119.91,8
120,120.03,119.91,8
121,120.05,119.92,8
121,120.06,119.93,8
121,120.08,119.94,8
121,120.10,119.95,8
121,120.12,119.96,8
121,120.14,119.97,8
121,120.15,119.98,8
123,120.21,120.01,8
121,120.23,120.02,8
121,120.24,120.03,8
121,120.26,120.04,8
121,120.27,120.05,8
120,120.27,120.05,8
120,120.26,120.05,8
121,120.28,120.06,8
121,120.29,120.07,8
121,120.31,120.08,8
122,120.34,120.10,8
120,120.33,120.10,8
121,120.35,120.11,8
121,120.36,120.12,8
121,120.37,120.12,8
121,120.38,120.13,8
122,120.42,120.15,8
121,120.43,120.16,8
121,120.44,120.17,8
121,120.45,120.18,8
121,120.46,120.18,8
124,120.53,120.22,8
121,120.54,120.23,8
121,120.55,120.24,8
122,120.58,120.26,8
123,120.63,120.28,8
123,120.68,120.31,8
123,120.72,120.34,8
124,120.79,120.37,8
125,120.87,120.42,8
125,120.95,120.47,8
125,121.04,120.51,8
124,121.09,120.55,8
124,121.15,120.58,8
125,121.23,120.63,8
125,121.31,120.67,8
125,121.38,120.71,8
125,121.45,120.76,8
126,121.54,120.81,8
127,121.65,120.87,8
127,121.76,120.93,8
127,121.86,120.99,8
127,121.97,121.05,8
128,122.09,121.12,8
128,122.21,121.19,8
127,122.30,121.25,8
128,122.42,121.32,8
129,122.55,121.39,8
129,122.68,121.47,8
129,122.80,121.54,8
130,122.95,121.63,8
129,123.07,121.70,8
131,123.23,121.80,8
131,123.38,121.89,8
130,123.51,121.97,8
130,123.64,122.05,8
129,123.75,122.12,8
132,123.92,122.22,8
131,124.06,122.30,8
133,124.24,122.41,8
131,124.37,122.50,8
132,124.52,122.59,8
133,124.69,122.70,8
135,124.90,122.82,8
133,125.06,122.92,8
134,125.24,123.03,8
133,125.40,123.13,8
134,125.57,123.24,8
133,125.72,123.34,8
133,125.86,123.43,8
133,126.00,123.53,8
133,126.14,123.63,8
135,126.32,123.74,8
134,126.48,123.84,8
133,126.61,123.93,8
135,126.77,124.04,8
135,126.94,124.15,8
135,127.10,124.26,8
135,127.26,124.37,8
137,127.45,124.50,8
137,127.64,124.62,8
137,127.83,124.74,8
137,128.01,124.87,8
137,128.19,124.99,8
139,128.41,125.13,8
140,128.64,125.28,8
143,128.93,125.45,8
143,129.21,125.63,8
143,129.49,125.80,8
143,129.76,125.98,8
143,130.02,126.15,8
145,130.32,126.33,8
145,130.61,126.52,8
145,130.90,126.71,8
148,131.24,126.92,8
148,131.58,127.13,8
147,131.89,127.33,8
149,132.23,127.54,8
149,132.57,127.76,8
149,132.89,127.97,8
149,133.22,128.18,8
149,133.53,128.39,8
151,133.88,128.62,8
151,134.22,128.84,8
151,134.56,129.06,8
150,134.87,129.27,8
151,135.19,129.49,8
151,135.51,129.70,8
149,135.78,129.90,8
150,136.06,130.10,8
149,136.32,130.29,8
150,136.59,130.48,8
151,136.88,130.69,8
151,137.16,130.89,8
151,137.44,131.09,8
152,137.73,131.30,8
153,138.04,131.52,8
154,138.36,131.74,8
155,138.69,131.98,8
155,139.02,132.21,8
154,139.32,132.42,8
154,139.61,132.64,8
154,139.90,132.85,8
155,140.20,133.08,8
155,140.49,133.29,8
157,140.82,133.53,8
157,141.15,133.77,8
157,141.47,134.00,8
157,141.78,134.23,8
159,142.12,134.48,8
159,142.46,134.72,8
160,142.81,134.97,8
159,143.13,135.21,8
160,143.47,135.46,8
160,143.80,135.71,8
160,144.12,135.95,8
159,144.42,136.18,8
161,144.75,136.43,8
161,145.08,136.68,8
161,145.40,136.92,8
161,145.71,137.16,8
161,146.02,137.40,8
163,146.35,137.65,8
162,146.67,137.90,8
163,146.99,138.15,8
162,147.29,138.39,8
165,147.65,138.65,8
167,148.04,138.94,8
169,148.45,139.24,8
168,148.85,139.52,8
169,149.25,139.82,8
171,149.68,140.13,8
172,150.13,140.45,8
175,150.63,140.80,8
171,151.04,141.10,8
173,151.47,141.42,8
173,151.90,141.73,8
173,152.33,142.05,8
174,152.76,142.36,8
175,153.21,142.69,8
179,153.72,143.05,8
181,154.27,143.43,8
181,154.80,143.81,8
185,155.41,144.22,8
185,156.00,144.63,8
187,156.62,145.05,8
185,157.18,145.45,8
187,157.78,145.87,8
188,158.39,146.29,8
190,159.02,146.73,8
189,159.62,147.15,8
189,160.21,147.57,8
191,160.82,148.00,8
189,161.38,148.41,8
189,161.94,148.82,8
189,162.48,149.22,8
189,163.01,149.62,8
189,163.53,150.01,8
189,164.04,150.40,8
189,164.54,150.79,8
189,165.03,151.17,8
189,165.51,151.55,8
188,165.96,151.91,8
190,166.44,152.29,8
192,166.95,152.69,8
190,167.41,153.06,8
191,167.88,153.44,8
191,168.34,153.82,8
191,168.80,154.19,8
191,169.24,154.56,8
191,169.68,154.92,8
192,170.12,155.29,8
191,170.54,155.65,8
191,170.95,156.00,8
191,171.35,156.35,8
191,171.74,156.70,8
190,172.11,157.03,8
191,172.49,157.37,8
192,172.88,157.72,8
192,173.26,158.06,8
192,173.63,158.40,8
195,174.06,158.77,8
195,174.48,159.13,8
196,174.91,159.50,8
193,175.27,159.83,8
197,175.71,160.20,8
200,176.19,160.60,8
202,176.71,161.02,8
203,177.23,161.44,8
203,177.75,161.85,8
203,178.25,162.26,8
204,178.77,162.68,8
207,179.33,163.12,8
207,179.89,163.56,8
207,180.43,164.00,8
209,181.00,164.45,8
210,181.58,164.90,8
210,182.15,165.35,8
211,182.73,165.81,8
209,183.25,166.24,8
209,183.77,166.67,8
209,184.27,167.09,8
209,184.77,167.51,8
209,185.25,167.93,8
209,185.73,168.34,8
210,186.21,168.75,8
208,186.65,169.15,8
211,187.13,169.57,8
211,187.61,169.98,8
213,188.12,170.41,8
211,188.58,170.82,8
211,189.03,171.22,8
211,189.46,171.62,8
213,189.94,172.03,8
211,190.36,172.42,8
211,190.77,172.80,8
212,191.19,173.20,8
213,191.63,173.59,8
212,192.04,173.98,8
213,192.46,174.37,8
213,192.87,174.76,8
214,193.29,175.15,8
213,193.68,175.53,8
215,194.11,175.92,8
219,194.61,176.35,8
221,195.14,176.80,8
219,195.61,177.22,8
220,196.10,177.65,8
220,196.58,178.07,8
221,197.07,178.50,8
222,197.57,178.94,8
221,198.04,179.36,8
221,198.49,179.77,8
221,198.94,180.19,8
222,199.41,180.60,8
222,199.86,181.02,8
224,200.34,181.45,8
223,200.79,181.86,8
223,201.24,182.27,8
224,201.69,182.69,8
224,202.14,183.10,8
224,202.58,183.51,8
223,202.98,183.91,8
221,203.35,184.28,8
222,203.72,184.66,8
223,204.10,185.04,8
221,204.44,185.40,8
221,204.77,185.76,8
221,205.10,186.11,8
221,205.42,186.46,8
221,205.73,186.80,8
221,206.03,187.14,8
221,206.33,187.48,8
222,206.65,187.83,8
221,206.93,188.16,8
221,207.21,188.49,8
225,207.57,188.85,8
226,207.94,189.22,8
226,208.30,189.59,8
225,208.63,189.95,8
225,208.96,190.30,8
225,209.28,190.64,8
225,209.60,190.99,8
224,209.88,191.32,8
224,210.17,191.64,8
223,210.42,191.96,8
223,210.67,192.27,8
224,210.94,192.59,8
224,211.20,192.90,8
223,211.44,193.20,8
223,211.67,193.50,8
222,211.88,193.78,8
221,212.06,194.06,8
221,212.24,194.33,8
221,212.41,194.59,8
221,212.58,194.86,8
221,212.75,195.12,8
221,212.92,195.38,8
220,213.06,195.62,8
220,213.20,195.87,8
219,213.31,196.10,8
219,213.43,196.33,8
221,213.58,196.57,8
218,213.67,196.79,8
219,213.77,197.01,8
220,213.90,197.24,8
218,213.98,197.45,8
217,214.04,197.64,8
217,214.10,197.84,8
217,214.16,198.03,8
218,214.24,198.23,8
217,214.29,198.42,8
216,214.32,198.59,8
215,214.34,198.76,8
216,214.37,198.93,8
215,214.38,199.09,8
215,214.40,199.25,8
215,214.41,199.41,8
214,214.40,199.55,8
215,214.41,199.71,8
215,214.42,199.86,8
213,214.40,199.99,8
214,214.39,200.13,8
213,214.36,200.26,8
213,214.33,200.39,8
213,214.31,200.51,8
212,214.26,200.63,8
212,214.21,200.74,8
212,214.17,200.85,8
212,214.13,200.97,8
211,214.06,201.07,8
211,214.00,201.17,8
210,213.92,201.25,8
209,213.82,201.33,8
210,213.75,201.42,8
210,213.67,201.50,8
209,213.58,201.58,8
210,213.51,201.66,8
209,213.42,201.74,8
209,213.33,201.81,8
208,213.22,201.87,8
209,213.14,201.94,8
209,213.06,202.01,8
208,212.95,202.07,8
208,212.86,202.13,8
208,212.76,202.19,8
208,212.66,202.25,8
207,212.55,202.30,8
207,212.44,202.34,8
207,212.33,202.39,8
206,212.20,202.43,8
207,212.10,202.47,8
207,212.00,202.52,8
205,211.86,202.54,8
207,211.76,202.59,8
205,211.63,202.61,8
205,211.49,202.63,8
205,211.36,202.66,8
206,211.26,202.69,8
205,211.13,202.71,8
205,211.01,202.74,8
205,210.89,202.76,8
205,210.77,202.78,8
205,210.65,202.80,8
204,210.52,202.82,8
205,210.41,202.84,8
204,210.28,202.85,8
202,210.12,202.84,8
203,209.98,202.84,8
203,209.84,202.84,8
202,209.68,202.84,8
201,209.51,202.82,8
201,209.34,202.80,8
201,209.17,202.78,8
201,209.01,202.76,8
200,208.83,202.74,8
200,208.65,202.71,8
199,208.46,202.67,8
200,208.29,202.64,8
199,208.10,202.61,8
199,207.92,202.57,8
199,207.74,202.54,8
198,207.55,202.49,8
198,207.35,202.45,8
197,207.15,202.39,8
197,206.94,202.34,8
197,206.75,202.28,8
196,206.53,202.22,8
196,206.32,202.16,8
196,206.11,202.10,8
195,205.89,202.03,8
196,205.69,201.97,8
196,205.50,201.91,8
195,205.29,201.84,8
195,205.08,201.77,8
195,204.88,201.70,8
197,204.72,201.65,8
194,204.51,201.58,8
193,204.28,201.49,8
193,204.05,201.41,8
193,203.83,201.32,8
193,203.62,201.24,8
193,203.40,201.16,8
192,203.18,201.07,8
192,202.95,200.98,8
192,202.73,200.89,8
192,202.52,200.80,8
191,202.29,200.70,8
191,202.06,200.60,8
190,201.82,200.50,8
190,201.59,200.39,8
190,201.35,200.29,8
189,201.11,200.17,8
189,200.86,200.06,8
189,200.63,199.95,8
189,200.39,199.84,8
190,200.19,199.74,8
188,199.94,199.63,8
189,199.72,199.52,8
188,199.49,199.41,9
188,199.26,199.29,9
187,199.01,199.17,9
187,198.77,199.05,9
187,198.54,198.93,9
188,198.33,198.82,9
186,198.08,198.69,9
187,197.86,198.57,9
185,197.60,198.44,9
185,197.35,198.30,9
185,197.10,198.17,9
185,196.86,198.04,9
184,196.60,197.90,9
184,196.35,197.76,9
185,196.13,197.63,9
185,195.90,197.50,9
184,195.66,197.37,9
183,195.41,197.23,9
183,195.16,197.08,9
183,194.92,196.94,9
183,194.68,196.80,9
183,194.45,196.66,9
183,194.22,196.53,9
182,193.97,196.38,9
182,193.74,196.24,9
182,193.50,196.10,9
181,193.25,195.95,9
182,193.03,195.81,9
182,192.80,195.67,9
181,192.57,195.52,9
181,192.34,195.38,9
180,192.09,195.22,9
180,191.85,195.07,9
180,191.61,194.92,9
179,191.36,194.76,9
179,191.11,194.60,9
179,190.87,194.45,9
179,190.63,194.29,9
179,190.40,194.14,9
177,190.13,193.97,9
177,189.87,193.80,9
177,189.61,193.63,9
177,189.36,193.46,9
177,189.11,193.30,9
177,188.87,193.14,9
176,188.61,192.96,9
177,188.38,192.81,9
177,188.15,192.65,9
176,187.91,192.48,9
177,187.69,192.33,9
175,187.44,192.15,9
176,187.21,191.99,9
176,186.99,191.83,9
175,186.75,191.66,9
175,186.51,191.50,9
175,186.28,191.33,9
175,186.05,191.17,9
175,185.83,191.01,9
175,185.62,190.85,9
173,185.36,190.67,9
174,185.14,190.50,9
173,184.89,190.33,9
174,184.68,190.16,9
173,184.44,189.99,9
173,184.21,189.82,9
173,183.99,189.65,9
173,183.77,189.49,9
173,183.55,189.32,9
173,183.34,189.16,9
173,183.14,189.00,9
171,182.89,188.82,9
171,182.66,188.64,9
172,182.44,188.47,9
171,182.21,188.30,9
172,182.01,188.13,9
171,181.79,187.96,9
172,181.59,187.80,9
172,181.40,187.65,9
171,181.19,187.48,9
171,180.99,187.31,9
171,180.79,187.15,9
170,180.57,186.98,9
171,180.38,186.82,9
170,180.18,186.65,9
170,179.97,186.49,9
169,179.75,186.31,9
169,179.54,186.14,9
167,179.29,185.95,9
169,179.08,185.78,9
168,178.86,185.60,9
168,178.64,185.42,9
168,178.43,185.25,9
169,178.24,185.09,9
168,178.04,184.92,9
167,177.82,184.74,9
167,177.60,184.56,9
167,177.39,184.38,9
167,177.18,184.21,9
167,176.98,184.04,9
167,176.78,183.87,9
166,176.56,183.69,9
165,176.33,183.50,9
165,176.10,183.32,9
165,175.88,183.13,9
165,175.66,182.95,9
165,175.45,182.77,9
165,175.24,182.59,9
165,175.04,182.42,9
165,174.84,182.24,9
166,174.66,182.08,9
165,174.47,181.91,9
165,174.28,181.74,9
164,174.07,181.56,9
165,173.89,181.40,9
164,173.69,181.22,9
164,173.50,181.05,9
165,173.33,180.89,9
164,173.14,180.72,9
165,172.98,180.57,9
163,172.78,180.39,9
165,172.62,180.24,9
163,172.43,180.06,9
164,172.26,179.90,9
164,172.10,179.74,9
164,171.93,179.59,9
163,171.76,179.42,9
167,171.66,179.30,9
163,171.49,179.13,9
163,171.32,178.97,9
161,171.11,178.79,9
163,170.95,178.63,9
163,170.79,178.48,9
163,170.63,178.32,9
162,170.46,178.16,9
161,170.27,177.99,9
161,170.09,177.82,9
161,169.91,177.65,9
161,169.73,177.48,9
161,169.55,177.32,9
160,169.36,177.15,9
159,169.15,176.96,9
162,169.01,176.82,9
160,168.83,176.65,9
161,168.67,176.49,9
159,168.48,176.32,9
161,168.33,176.16,9
160,168.17,176.00,9
160,168.00,175.84,9
159,167.82,175.67,9
159,167.65,175.51,9
160,167.49,175.35,9
160,167.34,175.20,9
160,167.20,175.05,9
159,167.03,174.88,9
159,166.87,174.73,9
159,166.71,174.57,9
159,166.56,174.41,9
159,166.41,174.26,9
160,166.28,174.12,9
159,166.13,173.97,9
159,165.99,173.82,9
157,165.81,173.65,9
157,165.64,173.48,9
157,165.46,173.32,9
159,165.33,173.17,9
158,165.19,173.02,9
157,165.02,172.86,9
157,164.86,172.70,9
157,164.71,172.55,9
157,164.55,172.39,9
157,164.40,172.24,9
157,164.25,172.08,9
157,164.11,171.93,9
157,163.97,171.78,9
157,163.83,171.64,9
157,163.69,171.49,9
157,163.56,171.34,9
157,163.42,171.20,9
157,163.30,171.06,9
157,163.17,170.92,9
157,163.05,170.78,9
158,162.95,170.65,9
157,162.83,170.52,9
156,162.69,170.37,9
157,162.58,170.24,9
155,162.43,170.08,9
156,162.30,169.94,9
155,162.15,169.79,9
156,162.03,169.66,9
156,161.91,169.52,9
156,161.79,169.38,9
155,161.65,169.24,9
156,161.54,169.11,9
155,161.41,168.97,9
155,161.28,168.83,9
155,161.16,168.69,9
156,161.05,168.56,9
155,160.93,168.43,9
155,160.81,168.29,9
155,160.70,168.16,9
155,160.58,168.03,9
155,160.47,167.90,9
155,160.36,167.77,9
154,160.23,167.63,9
154,160.11,167.49,9
155,160.01,167.37,9
153,159.87,167.23,9
153,159.73,167.08,9
152,159.58,166.93,9
153,159.44,166.79,9
153,159.31,166.66,9
153,159.19,166.52,9
154,159.08,166.39,9
154,158.98,166.27,9
152,158.84,166.13,9
153,158.73,166.00,9
152,158.59,165.86,9
151,158.44,165.71,9
152,158.31,165.57,9
151,158.17,165.42,9
151,158.02,165.28,9
151,157.88,165.14,9
151,157.74,165.00,9
151,157.61,164.86,9
151,157.48,164.72,9
149,157.31,164.56,9
149,157.14,164.40,9
150,157.00,164.26,9
150,156.86,164.12,9
150,156.72,163.98,9
149,156.57,163.83,9
149,156.42,163.68,9
149,156.27,163.53,9
149,156.12,163.39,9
149,155.98,163.24,9
150,155.86,163.11,9
149,155.72,162.97,9
149,155.59,162.83,9
149,155.46,162.69,9
149,155.33,162.55,9
147,155.16,162.40,9
149,155.04,162.26,9
148,154.90,162.12,9
148,154.76,161.98,9
147,154.60,161.83,9
149,154.49,161.70,9
147,154.34,161.56,9
146,154.17,161.40,9
148,154.05,161.27,9
147,153.91,161.12,9
145,153.73,160.96,9
147,153.60,160.82,9
148,153.49,160.69,9
147,153.36,160.56,9
147,153.23,160.42,9
146,153.08,160.28,9
145,152.92,160.12,9
147,152.80,159.99,9
145,152.65,159.84,9
146,152.52,159.71,9
145,152.36,159.56,9
145,152.22,159.41,9
147,152.11,159.29,9
145,151.97,159.15,9
145,151.83,159.00,9
145,151.69,158.86,9
145,151.56,158.73,9
145,151.43,158.59,9
145,151.30,158.45,9
145,151.18,158.32,9
144,151.03,158.17,9
145,150.91,158.04,9
144,150.77,157.90,9
143,150.62,157.75,9
144,150.48,157.62,9
146,150.40,157.50,9
144,150.27,157.36,9
145,150.16,157.24,9
143,150.02,157.10,9
145,149.92,156.98,9
143,149.78,156.84,9
143,149.64,156.70,9
142,149.49,156.55,9
143,149.36,156.42,9
143,149.23,156.28,9
143,149.11,156.15,9
143,148.99,156.02,9
142,148.85,155.88,9
141,148.69,155.73,9
142,148.56,155.59,9
143,148.45,155.47,9
139,148.26,155.30,9
142,148.13,155.17,9
142,148.01,155.04,9
142,147.89,154.91,9
141,147.75,154.77,9
141,147.62,154.63,9
141,147.48,154.49,9
141,147.35,154.36,9
141,147.23,154.23,9
142,147.12,154.10,9
141,147.00,153.97,9
141,146.88,153.84,9
141,146.76,153.71,9
141,146.65,153.59,9
141,146.53,153.46,9
141,146.42,153.34,9
140,146.30,153.20,9
140,146.17,153.07,9
141,146.07,152.95,9
139,145.92,152.81,9
141,145.83,152.69,9
139,145.69,152.56,9
140,145.58,152.43,9
140,145.46,152.31,9
139,145.34,152.17,9
139,145.21,152.04,9
141,145.12,151.93,9
140,145.02,151.81,9
141,144.94,151.70,9
139,144.82,151.58,9
139,144.71,151.45,9
140,144.61,151.34,9
139,144.50,151.21,9
139,144.39,151.09,9
138,144.26,150.96,9
137,144.12,150.82,9
138,143.99,150.69,9
138,143.87,150.56,9
137,143.74,150.43,9
137,143.60,150.29,9
137,143.47,150.16,9
139,143.38,150.05,9
137,143.25,149.92,9
138,143.15,149.80,9
137,143.03,149.67,9
137,142.90,149.55,9
137,142.79,149.42,9
137,142.67,149.30,9
137,142.56,149.17,9
137,142.45,149.05,9
137,142.34,148.93,9
136,142.21,148.80,9
137,142.11,148.68,9
136,141.98,148.56,9
136,141.86,148.43,9
136,141.75,148.31,9
135,141.61,148.17,9
135,141.48,148.04,9
136,141.37,147.92,9
135,141.24,147.79,9
136,141.14,147.67,9
135,141.02,147.55,9
135,140.90,147.42,9
135,140.78,147.30,9
135,140.66,147.18,9
135,140.55,147.05,9
134,140.42,146.92,9
135,140.31,146.80,9
134,140.18,146.68,9
133,140.04,146.54,9
133,139.90,146.40,9
133,139.76,146.27,9
133,139.63,146.14,9
135,139.53,146.03,9
133,139.40,145.90,9
135,139.31,145.79,9
133,139.19,145.66,9
133,139.06,145.53,9
133,138.94,145.41,9
133,138.82,145.28,9
134,138.73,145.17,9
133,138.61,145.05,9
133,138.50,144.93,9
133,138.39,144.81,9
133,138.28,144.69,9
133,138.18,144.57,9
133,138.07,144.46,9
133,137.97,144.34,9
133,137.87,144.23,9
132,137.76,144.11,9
133,137.66,144.00,9
133,137.57,143.89,9
133,137.48,143.78,9
133,137.39,143.67,9
133,137.30,143.56,9
133,137.21,143.46,9
133,137.13,143.35,9
133,137.05,143.25,9
133,136.96,143.15,9
133,136.89,143.05,9
132,136.79,142.93,9
133,136.71,142.84,9
133,136.64,142.74,9
133,136.57,142.64,9
133,136.49,142.54,9
132,136.40,142.44,9
133,136.34,142.34,9
133,136.27,142.25,9
133,136.20,142.16,9
133,136.14,142.07,9
133,136.08,141.98,9
132,136.00,141.88,9
133,135.94,141.79,9
133,135.88,141.70,9
132,135.80,141.60,9
133,135.74,141.52,9
132,135.67,141.42,9
132,135.60,141.33,9
132,135.52,141.23,9
131,135.43,141.13,9
132,135.36,141.04,9
131,135.28,140.94,9
132,135.21,140.85,9
131,135.13,140.75,9
131,135.04,140.65,9
131,134.96,140.56,9
131,134.88,140.46,9
129,134.77,140.35,9
130,134.67,140.24,9
130,134.58,140.14,9
131,134.51,140.05,9
130,134.42,139.95,9
130,134.33,139.85,9
133,134.30,139.78,9
131,134.24,139.69,9
131,134.17,139.61,9
129,134.07,139.50,9
131,134.01,139.42,9
131,133.95,139.33,9
131,133.89,139.25,9
132,133.85,139.18,9
132,133.81,139.10,9
131,133.76,139.02,9
131,133.70,138.94,9
132,133.67,138.87,9
131,133.61,138.79,9
131,133.56,138.72,9
132,133.53,138.65,9
131,133.48,138.57,9
128,133.37,138.47,9
131,133.32,138.39,9
131,133.28,138.32,9
132,133.25,138.26,9
131,133.21,138.18,9
131,133.16,138.11,9
131,133.12,138.04,9
131,133.08,137.97,9
131,133.03,137.90,9
131,132.99,137.83,9
131,132.95,137.76,9
130,132.89,137.68,9
131,132.86,137.62,9
132,132.84,137.56,9
130,132.78,137.49,9
131,132.75,137.42,9
129,132.67,137.34,9
131,132.64,137.27,9
132,132.63,137.22,9
131,132.59,137.16,9
131,132.56,137.10,9
131,132.53,137.04,9
131,132.50,136.98,9
130,132.45,136.91,9
129,132.38,136.83,9
130,132.33,136.76,9
129,132.27,136.68,9
131,132.24,136.62,9
131,132.22,136.57,9
130,132.17,136.50,9
130,132.13,136.44,9
131,132.11,136.38,9
131,132.08,136.33,9
131,132.06,136.28,9
131,132.04,136.22,9
132,132.04,136.18,9
131,132.02,136.13,9
131,132.00,136.08,9
131,131.98,136.03,9
133,132.00,136.00,9
130,131.96,135.94,9
129,131.90,135.87,9
131,131.88,135.82,9
129,131.82,135.75,9
131,131.81,135.70,9
132,131.81,135.67,9
132,131.82,135.63,9
133,131.84,135.60,9
132,131.84,135.57,9
131,131.83,135.52,9
133,131.85,135.50,9
133,131.87,135.47,9
133,131.89,135.45,9
132,131.90,135.41,9
132,131.90,135.38,9
132,131.90,135.34,9
133,131.92,135.32,9
131,131.90,135.28,9
132,131.91,135.24,9
132,131.91,135.21,9
132,131.91,135.18,9
131,131.89,135.14,9
132,131.89,135.11,9
131,131.88,135.07,9
133,131.90,135.05,9
132,131.90,135.01,9
131,131.88,134.97,9
132,131.89,134.94,9
132,131.89,134.92,9
132,131.89,134.89,9
132,131.89,134.86,9
132,131.89,134.83,9
132,131.90,134.80,9
132,131.90,134.77,9
132,131.90,134.75,9
132,131.90,134.72,9
132,131.90,134.69,9
133,131.93,134.67,9
132,131.93,134.65,9
133,131.95,134.63,9
132,131.95,134.60,9
132,131.95,134.58,9
133,131.97,134.56,9
133,131.99,134.55,9
133,132.01,134.53,9
133,132.03,134.52,9
133,132.05,134.50,9
133,132.07,134.49,9
133,132.09,134.47,9
133,132.11,134.46,9
133,132.13,134.44,9
133,132.14,134.43,9
133,132.16,134.41,9
133,132.18,134.40,9
134,132.21,134.39,9
133,132.23,134.38,9
133,132.24,134.37,9
133,132.26,134.35,9
132,132.25,134.33,9
132,132.25,134.31,9
133,132.26,134.29,9
132,132.26,134.27,9
132,132.25,134.25,9
132,132.25,134.23,9
131,132.22,134.19,9
133,132.24,134.18,9
133,132.25,134.17,9
133,132.27,134.16,9
133,132.28,134.15,9
132,132.28,134.12,9
133,132.29,134.11,9
135,132.35,134.12,9
133,132.36,134.11,9
133,132.37,134.10,9
133,132.39,134.09,9
133,132.40,134.08,9
132,132.39,134.06,9
133,132.40,134.05,9
132,132.39,134.03,9
133,132.41,134.02,9
133,132.42,134.01,9
133,132.43,134.00,9
133,132.44,133.99,9
133,132.45,133.98,9
134,132.48,133.98,9
133,132.49,133.97,9
133,132.50,133.96,9
133,132.51,133.95,9
133,132.52,133.94,9
134,132.55,133.94,9
135,132.60,133.95,9
135,132.65,133.96,9
134,132.68,133.96,9
135,132.72,133.97,9
134,132.75,133.97,9
135,132.79,133.98,9
135,132.84,133.99,9
135,132.88,134.00,9
135,132.92,134.01,9
137,133.01,134.04,9
135,133.04,134.05,9
136,133.10,134.07,9
135,133.14,134.08,9
137,133.22,134.11,9
135,133.25,134.12,9
136,133.31,134.14,9
135,133.34,134.15,9
136,133.40,134.16,9
136,133.45,134.18,9
136,133.50,134.20,9
135,133.53,134.21,9
135,133.56,134.22,9
133,133.55,134.20,9
135,133.58,134.21,9
135,133.61,134.22,9
134,133.61,134.22,9
135,133.64,134.23,9
135,133.67,134.23,9
133,133.65,134.22,9
134,133.66,134.22,9
133,133.65,134.21,9
133,133.64,134.19,9
133,133.62,134.18,9
135,133.65,134.19,9
135,133.68,134.20,9
136,133.72,134.22,9
135,133.75,134.22,9
135,133.77,134.23,9
135,133.80,134.24,9
133,133.78,134.23,9
133,133.77,134.22,9
135,133.79,134.22,9
135,133.82,134.23,9
133,133.80,134.22,9
134,133.80,134.22,9
135,133.83,134.22,9
133,133.81,134.21,9
133,133.79,134.20,9
135,133.82,134.21,9
134,133.82,134.21,9
135,133.85,134.21,9
136,133.89,134.23,9
135,133.91,134.24,9
136,133.95,134.26,9
136,133.99,134.27,9
135,134.01,134.28,9
133,133.99,134.27,9
135,134.01,134.28,9
138,134.09,134.31,9
135,134.11,134.32,9
135,134.13,134.33,9
135,134.15,134.33,9
136,134.18,134.35,9
135,134.20,134.36,9
136,134.24,134.37,9
136,134.27,134.39,10
135,134.29,134.40,10
136,134.32,134.41,11
136,134.35,134.43,11
134,134.35,134.42,12
134,134.34,134.42,12
134,134.33,134.42,13
135,134.35,134.42,13
136,134.38,134.44,14
135,134.39,134.44,14
136,134.42,134.46,15
136,134.46,134.47,15
134,134.45,134.47,16
135,134.46,134.47,16
135,134.47,134.48,17
134,134.46,134.47,17
135,134.47,134.48,18
135,134.48,134.48,18
137,134.53,134.51,19
137,134.58,134.53,19
138,134.65,134.57,20
139,134.74,134.61,20
139,134.82,134.66,20
138,134.88,134.69,20
139,134.97,134.73,20
138,135.03,134.77,20
141,135.15,134.83,20
142,135.28,134.90,20
142,135.42,134.97,20
142,135.55,135.04,20
143,135.70,135.12,20
142,135.83,135.19,20
141,135.93,135.25,20
142,136.05,135.32,20
142,136.17,135.38,20
142,136.29,135.45,20
143,136.42,135.52,20
143,136.55,135.60,20
143,136.68,135.67,20
143,136.81,135.75,20
143,136.93,135.82,20
143,137.05,135.89,20
144,137.19,135.97,20
143,137.31,136.04,20
145,137.46,136.13,20
142,137.55,136.19,20
143,137.66,136.26,20
143,137.77,136.33,20
143,137.87,136.39,20
143,137.97,136.46,20
143,138.08,136.52,20
145,138.21,136.61,20
144,138.33,136.68,20
145,138.46,136.77,20
144,138.57,136.84,20
143,138.66,136.90,20
143,138.75,136.96,20
144,138.85,137.03,20
143,138.94,137.09,20
144,139.04,137.16,20
145,139.16,137.24,20
144,139.25,137.31,20
144,139.35,137.37,20
143,139.42,137.43,20
143,139.49,137.49,20
144,139.58,137.55,20
144,139.67,137.61,20
147,139.82,137.71,20
148,139.98,137.81,20
146,140.10,137.89,20
148,140.26,137.99,20
148,140.42,138.09,20
149,140.59,138.20,20
149,140.76,138.31,20
148,140.90,138.41,20
148,141.04,138.50,20
152,141.26,138.64,20
152,141.48,138.77,20
152,141.69,138.91,20
153,141.91,139.05,20
153,142.13,139.19,20
153,142.35,139.32,20
153,142.57,139.46,20
151,142.73,139.58,20
153,142.94,139.71,20
155,143.18,139.86,20
155,143.42,140.01,20
155,143.65,140.16,20
156,143.90,140.32,20
155,144.12,140.47,20
154,144.32,140.60,20
155,144.53,140.75,20
156,144.76,140.90,20
156,144.98,141.05,20
156,145.20,141.20,20
156,145.42,141.35,20
157,145.65,141.51,20
157,145.88,141.66,20
157,146.10,141.81,20
157,146.32,141.97,20
158,146.55,142.13,20
157,146.76,142.28,20
157,146.97,142.42,20
156,147.15,142.56,20
158,147.36,142.71,20
160,147.62,142.89,20
159,147.84,143.05,20
159,148.07,143.21,20
160,148.31,143.37,20
160,148.54,143.54,20
162,148.81,143.73,20
160,149.03,143.89,20
161,149.27,144.06,20
159,149.47,144.21,20
160,149.68,144.37,20
159,149.86,144.51,20
161,150.09,144.68,20
161,150.30,144.84,20
160,150.50,144.99,20
161,150.71,145.15,20
161,150.91,145.31,20
161,151.12,145.47,20
160,151.29,145.61,20
160,151.47,145.76,20
160,151.64,145.90,20
160,151.81,146.04,20
160,151.97,146.18,20
161,152.15,146.33,20
161,152.33,146.48,20
163,152.54,146.64,20
161,152.71,146.78,20
162,152.90,146.94,20
162,153.08,147.09,20
163,153.28,147.25,20
163,153.47,147.40,20
163,153.66,147.56,20
163,153.85,147.71,20
166,154.09,147.90,20
166,154.33,148.08,20
165,154.54,148.25,20
167,154.79,148.43,20
168,155.06,148.63,20
168,155.32,148.82,20
170,155.61,149.04,20
169,155.88,149.24,20
171,156.18,149.45,20
172,156.50,149.68,20
173,156.83,149.91,20
172,157.13,150.13,20
173,157.45,150.36,20
174,157.78,150.60,20
175,158.12,150.84,20
174,158.44,151.07,20
177,158.81,151.33,20
178,159.19,151.60,20
179,159.59,151.87,20
179,159.98,152.14,20
180,160.38,152.42,20
183,160.83,152.73,20
183,161.28,153.03,20
183,161.71,153.33,20
183,162.14,153.63,20
187,162.63,153.96,20
187,163.12,154.29,20
188,163.62,154.63,20
185,164.05,154.93,20
187,164.50,155.25,20
188,164.97,155.58,20
187,165.41,155.90,20
189,165.89,156.23,20
190,166.37,156.56,20
189,166.82,156.89,20
189,167.27,157.21,20
188,167.68,157.52,20
190,168.13,157.84,20
192,168.60,158.18,20
189,169.01,158.49,20
192,169.47,158.83,20
193,169.94,159.17,20
192,170.38,159.50,20
192,170.82,159.82,20
191,171.22,160.13,20
193,171.65,160.46,20
194,172.10,160.80,20
193,172.52,161.12,20
195,172.97,161.46,20
196,173.43,161.80,20
197,173.90,162.16,20
195,174.32,162.48,20
197,174.78,162.83,20
199,175.26,163.19,20
197,175.70,163.53,20
198,176.14,163.87,20
199,176.60,164.23,20
201,177.09,164.59,20
201,177.57,164.96,20
199,177.99,165.30,20
201,178.45,165.65,20
201,178.91,166.01,20
205,179.43,166.40,20
203,179.90,166.76,20
202,180.34,167.12,20
203,180.79,167.48,20
204,181.26,167.84,20
203,181.69,168.19,20
203,182.12,168.54,20
203,182.54,168.88,20
203,182.95,169.23,20
204,183.37,169.57,20
205,183.80,169.93,20
206,184.24,170.29,20
206,184.68,170.65,20
205,185.09,170.99,20
206,185.50,171.34,20
207,185.93,171.70,20
208,186.37,172.06,20
209,186.83,172.43,20
208,187.25,172.78,20
209,187.69,173.15,20
211,188.15,173.52,20
212,188.63,173.91,20
211,189.08,174.28,20
213,189.55,174.67,20
214,190.04,175.06,20
215,190.54,175.46,20
215,191.03,175.86,20
214,191.49,176.24,20
215,191.96,176.62,20
215,192.42,177.01,20
216,192.89,177.40,20
215,193.34,177.77,20
215,193.77,178.15,20
215,194.19,178.52,20
214,194.59,178.87,20
215,195.00,179.23,20
215,195.40,179.59,20
214,195.77,179.93,20
214,196.13,180.27,20
214,196.49,180.61,20
214,196.84,180.95,20
213,197.17,181.27,20
213,197.48,181.58,20
213,197.79,181.90,20
213,198.10,182.21,20
211,198.35,182.50,20
213,198.65,182.80,20
211,198.89,183.08,20
212,199.16,183.37,20
213,199.43,183.67,20
212,199.69,183.95,20
213,199.95,184.24,20
213,200.21,184.53,20
212,200.45,184.80,20
213,200.70,185.09,20
214,200.97,185.38,20
213,201.21,185.65,20
214,201.46,185.94,20
214,201.71,186.22,20
216,202.00,186.51,20
216,202.28,186.81,20
214,202.51,187.08,20
214,202.74,187.35,20
215,202.99,187.63,20
214,203.21,187.89,20
214,203.42,188.15,20
214,203.64,188.41,20
214,203.84,188.67,20
214,204.05,188.92,20
212,204.20,189.15,20
211,204.34,189.37,20
212,204.49,189.59,20
211,204.62,189.81,20
212,204.77,190.03,20
212,204.92,190.25,20
211,205.04,190.46,20
211,205.16,190.66,20
210,205.25,190.86,20
210,205.35,191.05,20
210,205.44,191.24,20
209,205.51,191.42,20
209,205.58,191.59,20
209,205.65,191.77,20
208,205.70,191.93,20
208,205.74,192.09,20
207,205.77,192.24,20
206,205.77,192.37,20
206,205.78,192.51,20
206,205.78,192.65,20
205,205.77,192.77,20
205,205.75,192.89,20
205,205.74,193.01,20
205,205.72,193.13,20
205,205.71,193.25,20
205,205.69,193.37,20
205,205.68,193.49,20
204,205.65,193.59,20
204,205.61,193.69,20
204,205.58,193.80,20
203,205.53,193.89,20
203,205.48,193.98,20
202,205.41,194.06,20
202,205.34,194.14,20
202,205.27,194.22,20
202,205.21,194.30,20
200,205.10,194.35,20
201,205.02,194.42,20
201,204.94,194.49,20
201,204.86,194.55,20
201,204.79,194.62,20
201,204.71,194.68,20
200,204.62,194.73,20
200,204.52,194.79,20
200,204.43,194.84,20
200,204.34,194.89,20
201,204.28,194.95,20
200,204.19,195.00,20
200,204.11,195.05,20
199,204.01,195.09,20
199,203.91,195.13,20
199,203.81,195.17,20
199,203.71,195.21,20
199,203.62,195.24,20
200,203.55,195.29,20
200,203.47,195.34,20
198,203.36,195.37,20
197,203.24,195.38,20
197,203.11,195.40,20
197,202.99,195.41,20
197,202.87,195.43,20
196,202.73,195.44,20
197,202.62,195.45,20
197,202.51,195.47,20
194,202.34,195.45,20
195,202.19,195.45,20
195,202.05,195.44,20
195,201.90,195.44,20
194,201.75,195.42,20
192,201.55,195.39,20
195,201.42,195.39,20
193,201.25,195.36,20
192,201.07,195.33,20
192,200.89,195.30,20
193,200.73,195.27,20
192,200.55,195.24,20
192,200.38,195.21,20
191,200.19,195.17,20
193,200.05,195.14,20
192,199.89,195.11,20
190,199.69,195.06,20
190,199.50,195.01,20
190,199.31,194.96,20
191,199.14,194.92,20
189,198.94,194.86,20
190,198.76,194.81,20
191,198.61,194.77,20
190,198.43,194.73,20
188,198.22,194.66,20
187,198.00,194.58,20
188,197.80,194.52,20
188,197.60,194.45,20
188,197.41,194.39,20
188,197.22,194.32,20
188,197.04,194.26,20
188,196.86,194.20,20
186,196.64,194.12,20
187,196.45,194.04,20
187,196.26,193.97,20
187,196.07,193.90,20
185,195.85,193.82,20
186,195.66,193.74,20
186,195.46,193.66,20
187,195.29,193.59,20
185,195.09,193.51,20
185,194.89,193.42,20
186,194.71,193.35,20
185,194.51,193.26,20
184,194.30,193.17,20
184,194.10,193.08,20
184,193.90,192.99,20
185,193.72,192.91,20
182,193.48,192.80,20
183,193.27,192.70,20
183,193.07,192.61,20
183,192.87,192.51,20
182,192.65,192.40,20
185,192.50,192.33,20
181,192.27,192.22,21
183,192.08,192.13,21
179,191.82,191.99,21
179,191.56,191.86,21
181,191.35,191.76,21
179,191.11,191.63,21
180,190.88,191.51,21
180,190.67,191.40,21
181,190.47,191.29,21
181,190.28,191.19,21
179,190.06,191.07,21
179,189.84,190.95,21
179,189.62,190.83,21
178,189.39,190.70,21
178,189.16,190.57,21
178,188.94,190.45,21
177,188.70,190.31,21
177,188.46,190.18,21
178,188.25,190.06,21
177,188.03,189.93,21
177,187.81,189.80,21
176,187.57,189.66,21
177,187.36,189.53,21
176,187.13,189.40,21
175,186.89,189.25,21
176,186.67,189.12,21
175,186.44,188.98,21
175,186.21,188.84,21
175,185.99,188.70,21
174,185.75,188.55,21
175,185.53,188.42,21
174,185.30,188.27,21
174,185.08,188.13,21
174,184.85,187.99,21
174,184.64,187.85,21
174,184.42,187.71,21
174,184.22,187.58,21
174,184.01,187.44,21
174,183.81,187.30,21
174,183.61,187.17,21
173,183.40,187.03,21
173,183.19,186.89,21
172,182.97,186.74,21
173,182.77,186.60,21
173,182.58,186.47,21
173,182.38,186.33,21
173,182.20,186.20,21
173,182.01,186.07,21
172,181.81,185.93,21
173,181.64,185.80,21
171,181.42,185.65,21
171,181.21,185.50,21
171,181.01,185.36,21
171,180.81,185.21,21
171,180.61,185.07,21
171,180.42,184.93,21
171,180.23,184.79,21
171,180.05,184.65,21
171,179.87,184.52,21
171,179.69,184.38,21
171,179.52,184.25,21
171,179.35,184.12,21
171,179.18,183.99,21
171,179.02,183.86,21
171,178.86,183.73,21
171,178.70,183.60,21
170,178.52,183.46,21
171,178.37,183.34,21
171,178.23,183.22,21
170,178.06,183.08,21
170,177.90,182.95,21
170,177.74,182.82,21
169,177.57,182.68,21
169,177.40,182.55,21
169,177.23,182.41,21
169,177.06,182.28,21
169,176.90,182.15,21
168,176.72,182.00,21
168,176.55,181.86,21
168,176.38,181.73,21
167,176.19,181.58,21
167,176.01,181.43,21
167,175.83,181.29,21
167,175.65,181.15,21
167,175.48,181.00,21
167,175.31,180.86,21
167,175.14,180.73,21
167,174.98,180.59,21
166,174.80,180.44,21
166,174.62,180.30,21
166,174.45,180.15,21
165,174.26,180.00,21
165,174.08,179.85,21
165,173.90,179.70,21
166,173.74,179.57,21
166,173.58,179.43,21
164,173.39,179.28,21
164,173.20,179.12,21
165,173.04,178.98,21
164,172.86,178.83,21
164,172.68,178.69,21
163,172.49,178.53,21
164,172.32,178.38,21
164,172.15,178.24,21
161,171.93,178.07,21
163,171.75,177.92,21
163,171.58,177.77,21
163,171.40,177.62,21
163,171.24,177.47,21
163,171.07,177.33,21
163,170.91,177.19,21
163,170.75,177.04,21
163,170.60,176.90,21
163,170.44,176.76,21
163,170.30,176.63,21
162,170.13,176.48,21
162,169.97,176.34,21
163,169.83,176.20,21
163,169.69,176.07,21
163,169.56,175.94,21
162,169.41,175.80,21
163,169.28,175.67,21
163,169.15,175.55,21
162,169.01,175.41,21
162,168.87,175.28,21
161,168.71,175.13,21
162,168.58,175.00,21
161,168.43,174.86,21
164,168.34,174.75,21
161,168.19,174.62,21
162,168.07,174.49,21
162,167.95,174.36,21
162,167.83,174.24,21
159,167.65,174.09,21
162,167.54,173.97,21
161,167.41,173.84,21
162,167.30,173.72,21
161,167.17,173.59,21
161,167.05,173.47,21
160,166.91,173.33,21
161,166.79,173.21,21
161,166.67,173.09,21
161,166.56,172.97,21
162,166.47,172.86,21
160,166.34,172.73,21
160,166.21,172.60,21
160,166.09,172.47,21
160,165.97,172.35,21
160,165.85,172.23,21
159,165.71,172.09,21
160,165.60,171.97,21
159,165.46,171.84,21
160,165.36,171.72,21
159,165.23,171.60,21
160,165.12,171.48,21
159,165.00,171.36,21
159,164.88,171.23,21
159,164.76,171.11,21
160,164.67,171.00,21
159,164.55,170.88,21
159,164.44,170.76,21
159,164.33,170.64,21
159,164.23,170.53,21
159,164.12,170.41,21
159,164.02,170.30,21
159,163.92,170.18,21
160,163.84,170.08,21
159,163.75,169.97,21
158,163.63,169.85,21
158,163.52,169.73,21
159,163.43,169.63,21
158,163.32,169.51,21
157,163.19,169.38,21
157,163.07,169.26,21
156,162.93,169.13,21
158,162.83,169.02,21
158,162.73,168.91,21
157,162.62,168.79,21
158,162.53,168.68,21
158,162.43,168.57,21
157,162.33,168.46,21
157,162.22,168.34,21
158,162.14,168.24,21
158,162.05,168.14,21
157,161.95,168.03,21
156,161.83,167.91,21
157,161.74,167.80,21
155,161.60,167.67,21
157,161.51,167.56,21
157,161.42,167.46,21
158,161.35,167.36,21
157,161.26,167.26,21
157,161.18,167.16,21
157,161.09,167.05,21
158,161.03,166.96,21
155,160.91,166.84,21
156,160.81,166.74,21
156,160.72,166.63,21
156,160.62,166.52,21
157,160.55,166.43,21
156,160.46,166.32,21
156,160.37,166.22,21
155,160.26,166.11,21
157,160.20,166.02,21
155,160.09,165.91,21
156,160.01,165.81,21
157,159.95,165.72,21
156,159.87,165.62,21
156,159.80,165.52,21
155,159.70,165.42,21
155,159.61,165.32,21
155,159.51,165.21,21
155,159.42,165.11,21
155,159.33,165.01,21
156,159.27,164.92,21
156,159.20,164.83,21
154,159.10,164.72,21
154,159.00,164.61,21
155,158.92,164.52,21
155,158.84,164.42,21
160,158.86,164.38,21
154,158.76,164.27,21
156,158.71,164.19,21
155,158.63,164.10,21
154,158.54,164.00,21
154,158.45,163.90,21
155,158.38,163.81,21
156,158.33,163.73,21
154,158.25,163.63,21
154,158.16,163.54,21
155,158.10,163.45,21
153,158.00,163.35,21
154,157.92,163.26,21
154,157.84,163.16,21
154,157.76,163.07,21
154,157.69,162.98,21
154,157.61,162.89,21
153,157.52,162.79,21
154,157.45,162.70,21
156,157.42,162.64,21
155,157.37,162.56,21
154,157.31,162.47,21
155,157.26,162.40,21
154,157.19,162.32,21
154,157.13,162.23,21
154,157.07,162.15,21
156,157.05,162.09,21
156,157.03,162.03,21
154,156.97,161.95,21
154,156.91,161.87,21
154,156.85,161.79,21
154,156.79,161.71,21
153,156.72,161.62,21
153,156.64,161.54,21
154,156.59,161.46,21
151,156.48,161.36,21
153,156.41,161.27,21
152,156.32,161.18,21
154,156.27,161.11,21
153,156.21,161.03,21
153,156.14,160.95,21
153,156.08,160.87,21
154,156.04,160.80,21
153,155.98,160.72,21
153,155.92,160.65,21
152,155.84,160.56,21
153,155.78,160.48,21
153,155.73,160.41,21
153,155.67,160.33,21
153,155.62,160.26,21
153,155.57,160.19,21
153,155.52,160.12,21
154,155.49,160.06,21
153,155.44,159.98,21
153,155.39,159.91,21
152,155.32,159.84,21
153,155.27,159.77,21
153,155.23,159.70,21
153,155.18,159.63,21
154,155.16,159.58,21
153,155.12,159.51,21
153,155.07,159.45,21
154,155.05,159.39,21
153,155.01,159.33,21
153,154.97,159.26,21
153,154.93,159.20,21
154,154.91,159.15,21
154,154.89,159.10,21
153,154.86,159.04,21
152,154.80,158.97,21
154,154.78,158.92,21
153,154.75,158.86,21
153,154.71,158.80,21
152,154.66,158.73,21
153,154.63,158.67,21
153,154.59,158.62,21
152,154.54,158.55,21
152,154.49,158.49,21
153,154.46,158.43,21
153,154.43,158.38,21
152,154.38,158.31,21
152,154.33,158.25,21
152,154.29,158.19,21
153,154.26,158.13,21
153,154.24,158.08,21
152,154.19,158.02,21
153,154.17,157.97,21
152,154.13,157.91,21
152,154.08,157.85,21
152,154.04,157.80,21
152,154.00,157.74,21
153,153.98,157.69,21
152,153.94,157.63,21
152,153.90,157.58,21
152,153.86,157.52,21
152,153.83,157.47,21
153,153.81,157.42,21
152,153.77,157.37,21
152,153.74,157.31,21
152,153.70,157.26,21
151,153.65,157.20,21
152,153.62,157.15,21
152,153.58,157.09,21
152,153.55,157.04,21
152,153.52,156.99,21
151,153.47,156.93,21
152,153.44,156.88,21
153,153.43,156.84,21
151,153.38,156.79,21
151,153.34,156.73,21
152,153.31,156.68,21
151,153.26,156.62,21
151,153.22,156.57,21
151,153.17,156.51,21
151,153.13,156.46,21
151,153.09,156.40,21
151,153.05,156.35,21
151,153.01,156.29,21
151,152.97,156.24,21
151,152.93,156.19,21
150,152.87,156.13,21
150,152.81,156.07,21
151,152.77,156.02,21
151,152.74,155.97,21
150,152.68,155.91,21
150,152.63,155.85,21
150,152.58,155.79,21
150,152.53,155.73,21
150,152.48,155.67,21
149,152.41,155.61,21
150,152.36,155.55,21
150,152.31,155.49,21
