Teste de posicionamento 1(EMG ao centro do bíceps (Vermelho A, Verde B) + Ref no pulso) - 19/10/2024 - teste7 - 5 contrações
long frequencia = 1000;                 //frequência de aquisição do sinal, neste caso, 1000 sinais por segundo
float fator1 = 0.02, fator2 = 0.01;
float incerteza = 0.13;
float pico_basal = 130; // Mínimo para ser considerado um pico de contração
int filtro_horizontal=200000; //intervalo de 200ms valores não pode ter mais de 1 contração

Biceps_D,mediaMovel_1,mediaMovel_2,Contracao
114,2.28,1.14,0
114,4.51,2.27,0
114,6.70,3.39,0
115,8.87,4.50,0
114,10.97,5.60,0
114,13.03,6.68,0
116,15.09,7.77,0
113,17.05,8.83,0
114,18.99,9.88,0
115,20.91,10.93,0
113,22.75,11.95,0
114,24.58,12.97,0
113,26.35,13.97,0
111,28.04,14.94,0
113,29.74,15.92,0
113,31.40,16.89,0
113,33.03,17.85,0
113,34.63,18.81,0
113,36.20,19.75,0
113,37.74,20.68,0
111,39.20,21.58,0
113,40.68,22.50,0
113,42.12,23.40,0
113,43.54,24.30,0
113,44.93,25.19,0
113,46.29,26.06,0
112,47.61,26.92,0
113,48.91,27.78,0
113,50.20,28.64,0
112,51.43,29.47,0
113,52.66,30.30,0
112,53.85,31.12,0
113,55.03,31.94,0
113,56.19,32.75,0
111,57.29,33.53,0
111,58.36,34.31,0
111,59.42,35.07,0
112,60.47,35.84,0
111,61.48,36.60,0
112,62.49,37.35,0
111,63.46,38.09,0
112,64.43,38.83,0
111,65.36,39.55,0
111,66.27,40.26,0
113,67.21,40.99,0
111,68.08,41.69,0
113,68.98,42.40,0
112,69.84,43.10,0
111,70.67,43.78,0
111,71.47,44.45,0
111,72.26,45.11,0
111,73.04,45.77,0
111,73.80,46.43,0
111,74.54,47.07,0
111,75.27,47.71,0
111,75.99,48.34,0
111,76.69,48.97,0
111,77.37,49.59,0
111,78.04,50.20,0
111,78.70,50.81,0
111,79.35,51.41,0
111,79.98,52.01,0
112,80.62,52.61,0
111,81.23,53.19,0
111,81.83,53.77,0
111,82.41,54.34,0
109,82.94,54.89,0
109,83.46,55.43,0
109,83.97,55.97,0
109,84.47,56.50,0
109,84.96,57.02,0
110,85.46,57.55,0
110,85.96,58.08,0
110,86.44,58.60,0
110,86.91,59.11,0
109,87.35,59.61,0
110,87.80,60.11,0
109,88.23,60.60,0
110,88.66,61.10,0
111,89.11,61.60,0
111,89.55,62.09,0
110,89.96,62.57,0
110,90.36,63.04,0
109,90.73,63.50,0
110,91.11,63.97,0
109,91.47,64.42,0
109,91.82,64.86,0
109,92.17,65.31,0
110,92.52,65.75,0
108,92.83,66.17,0
109,93.16,66.60,0
110,93.49,67.04,0
109,93.80,67.46,0
109,94.11,67.87,0
109,94.40,68.28,0
109,94.70,68.69,0
109,94.98,69.09,0
109,95.26,69.49,0
109,95.54,69.89,0
109,95.81,70.28,0
109,96.07,70.67,0
108,96.31,71.04,0
109,96.56,71.42,0
109,96.81,71.79,0
110,97.08,72.18,0
109,97.31,72.54,0
108,97.53,72.90,0
108,97.74,73.25,0
108,97.94,73.60,0
109,98.16,73.95,0
108,98.36,74.29,0
108,98.55,74.63,0
108,98.74,74.96,0
109,98.95,75.30,0
108,99.13,75.63,0
108,99.31,75.95,0
108,99.48,76.27,0
108,99.65,76.59,0
108,99.82,76.91,0
108,99.98,77.22,0
107,100.12,77.51,0
107,100.26,77.81,0
109,100.43,78.12,0
106,100.55,78.40,0
108,100.69,78.70,0
106,100.80,78.97,0
107,100.92,79.25,0
106,101.03,79.52,0
107,101.15,79.79,0
107,101.26,80.06,0
106,101.36,80.32,0
106,101.45,80.58,0
110,101.62,80.87,0
107,101.73,81.14,0
106,101.81,81.38,0
106,101.90,81.63,0
106,101.98,81.87,0
106,102.06,82.12,0
105,102.12,82.34,0
106,102.20,82.58,0
106,102.27,82.81,0
106,102.35,83.05,0
105,102.40,83.27,0
108,102.51,83.51,0
106,102.58,83.74,0
106,102.65,83.96,0
107,102.74,84.19,0
106,102.80,84.41,0
106,102.87,84.63,0
105,102.91,84.83,0
106,102.97,85.04,0
106,103.03,85.25,0
106,103.09,85.46,0
106,103.15,85.66,0
106,103.21,85.87,0
106,103.26,86.07,0
105,103.30,86.26,0
106,103.35,86.45,0
106,103.40,86.65,0
106,103.46,86.84,0
105,103.49,87.03,0
105,103.52,87.21,0
104,103.53,87.37,0
105,103.56,87.55,0
104,103.57,87.71,0
104,103.57,87.88,0
104,103.58,88.04,0
104,103.59,88.20,0
106,103.64,88.38,0
104,103.65,88.53,0
105,103.67,88.70,0
104,103.68,88.85,0
105,103.71,89.01,0
104,103.71,89.16,0
104,103.72,89.31,0
105,103.74,89.47,0
104,103.75,89.61,0
104,103.75,89.76,0
104,103.76,89.90,0
104,103.76,90.04,0
104,103.77,90.18,0
104,103.77,90.32,0
102,103.74,90.43,0
104,103.74,90.57,0
104,103.75,90.70,0
103,103.73,90.83,0
105,103.76,90.97,0
104,103.76,91.10,0
104,103.77,91.23,0
102,103.73,91.34,0
104,103.74,91.46,0
103,103.72,91.58,0
104,103.73,91.70,0
104,103.73,91.82,0
103,103.72,91.94,0
103,103.70,92.05,0
103,103.69,92.16,0
102,103.66,92.26,0
102,103.62,92.35,0
103,103.61,92.46,0
102,103.58,92.55,0
102,103.55,92.65,0
104,103.56,92.76,0
104,103.57,92.87,0
103,103.55,92.98,0
102,103.52,93.07,0
103,103.51,93.17,0
104,103.52,93.27,0
104,103.53,93.38,0
102,103.50,93.47,0
103,103.49,93.56,0
103,103.48,93.66,0
104,103.49,93.76,0
102,103.46,93.84,0
103,103.45,93.93,0
102,103.42,94.02,0
102,103.40,94.09,0
103,103.39,94.18,0
103,103.38,94.27,0
102,103.35,94.35,0
104,103.36,94.45,0
102,103.34,94.52,0
102,103.31,94.60,0
102,103.28,94.67,0
102,103.26,94.74,0
101,103.21,94.81,0
102,103.19,94.88,0
102,103.17,94.95,0
102,103.14,95.02,0
102,103.12,95.09,0
104,103.14,95.18,0
102,103.11,95.25,0
101,103.07,95.30,0
102,103.05,95.37,0
102,103.03,95.44,0
104,103.05,95.52,0
102,103.03,95.59,0
101,102.99,95.64,0
101,102.95,95.70,0
101,102.91,95.75,0
102,102.89,95.81,0
101,102.85,95.86,0
102,102.84,95.92,0
102,102.82,95.99,0
102,102.80,96.05,0
102,102.79,96.11,0
103,102.79,96.17,0
98,102.70,96.19,0
102,102.68,96.25,0
103,102.69,96.32,0
103,102.69,96.38,0
104,102.72,96.46,0
102,102.71,96.52,0
103,102.71,96.58,0
102,102.70,96.64,0
103,102.70,96.70,0
103,102.71,96.76,0
103,102.72,96.82,0
102,102.70,96.88,0
102,102.69,96.93,0
102,102.67,96.98,0
102,102.66,97.03,0
102,102.65,97.08,0
102,102.63,97.13,0
102,102.62,97.18,0
104,102.65,97.24,0
104,102.68,97.31,0
103,102.68,97.37,0
103,102.69,97.42,0
102,102.67,97.47,0
102,102.66,97.52,0
102,102.65,97.56,0
101,102.61,97.60,0
102,102.60,97.64,0
101,102.57,97.67,0
102,102.56,97.72,0
102,102.55,97.76,0
102,102.54,97.80,0
102,102.53,97.84,0
102,102.52,97.88,0
102,102.51,97.93,0
102,102.50,97.97,0
103,102.51,98.02,0
103,102.52,98.07,0
102,102.50,98.11,0
103,102.51,98.16,0
102,102.50,98.19,0
103,102.51,98.24,0
106,102.58,98.32,0
102,102.57,98.36,0
102,102.56,98.39,0
104,102.59,98.45,0
104,102.62,98.50,0
104,102.65,98.56,0
104,102.67,98.61,0
104,102.70,98.67,0
106,102.77,98.74,0
104,102.79,98.79,0
104,102.81,98.85,0
104,102.84,98.90,0
101,102.80,98.92,0
104,102.83,98.97,0
104,102.85,99.02,0
104,102.87,99.07,0
103,102.87,99.11,0
104,102.90,99.16,0
102,102.88,99.19,0
103,102.88,99.22,0
103,102.88,99.26,0
103,102.89,99.30,0
104,102.91,99.35,0
103,102.91,99.38,0
104,102.93,99.43,0
104,102.95,99.47,0
104,102.97,99.52,0
106,103.03,99.58,0
104,103.05,99.63,0
104,103.07,99.67,0
102,103.05,99.70,0
104,103.07,99.74,0
103,103.07,99.77,0
103,103.07,99.80,0
104,103.09,99.85,0
103,103.08,99.88,0
102,103.06,99.90,0
104,103.08,99.94,0
103,103.08,99.97,0
104,103.10,100.01,0
104,103.12,100.05,0
104,103.13,100.09,0
104,103.15,100.13,0
105,103.19,100.18,0
104,103.20,100.22,0
104,103.22,100.25,0
104,103.24,100.29,0
106,103.29,100.35,0
106,103.35,100.40,0
105,103.38,100.45,0
109,103.49,100.54,0
105,103.52,100.58,0
107,103.59,100.64,0
106,103.64,100.70,0
106,103.69,100.75,0
106,103.73,100.80,0
107,103.80,100.87,0
105,103.82,100.91,0
107,103.89,100.97,0
106,103.93,101.02,0
108,104.01,101.09,0
107,104.07,101.15,0
108,104.15,101.22,0
107,104.20,101.27,0
107,104.26,101.33,0
107,104.32,101.39,0
104,104.31,101.41,0
107,104.36,101.47,0
107,104.42,101.52,0
108,104.49,101.59,0
108,104.56,101.65,0
108,104.63,101.72,0
107,104.67,101.77,0
108,104.74,101.83,0
107,104.79,101.88,0
109,104.87,101.96,0
108,104.93,102.02,0
108,104.99,102.08,0
109,105.07,102.14,0
109,105.15,102.21,0
109,105.23,102.28,0
108,105.28,102.34,0
108,105.34,102.39,0
107,105.37,102.44,0
108,105.43,102.50,0
107,105.46,102.54,0
107,105.49,102.59,0
107,105.52,102.63,0
108,105.57,102.68,0
107,105.60,102.73,0
108,105.64,102.78,0
107,105.67,102.82,0
108,105.72,102.87,0
107,105.74,102.92,0
108,105.79,102.97,0
107,105.81,103.01,0
108,105.86,103.06,0
108,105.90,103.11,0
109,105.96,103.16,0
108,106.00,103.21,0
109,106.06,103.27,0
109,106.12,103.33,0
109,106.18,103.38,0
110,106.25,103.45,0
109,106.31,103.51,0
112,106.42,103.59,0
109,106.48,103.65,0
109,106.53,103.70,0
109,106.58,103.75,0
109,106.62,103.80,0
110,106.69,103.87,0
111,106.78,103.94,0
111,106.86,104.01,0
112,106.96,104.09,0
111,107.05,104.16,0
111,107.12,104.23,0
109,107.16,104.27,0
111,107.24,104.34,0
111,107.31,104.41,0
111,107.39,104.47,0
111,107.46,104.54,0
111,107.53,104.60,0
111,107.60,104.67,0
111,107.67,104.73,0
111,107.73,104.79,0
111,107.80,104.86,0
111,107.86,104.92,0
111,107.93,104.98,0
111,107.99,105.04,0
111,108.05,105.10,0
112,108.13,105.17,0
111,108.18,105.22,0
111,108.24,105.28,0
111,108.30,105.34,0
111,108.35,105.40,0
111,108.40,105.45,0
111,108.46,105.51,0
111,108.51,105.56,0
111,108.56,105.62,0
112,108.63,105.68,0
113,108.71,105.75,0
111,108.76,105.81,0
111,108.80,105.86,0
113,108.89,105.93,0
112,108.95,105.99,0
113,109.03,106.06,0
112,109.09,106.12,0
113,109.17,106.19,0
112,109.22,106.25,0
113,109.30,106.31,0
113,109.37,106.38,0
113,109.45,106.45,0
112,109.50,106.50,0
113,109.57,106.57,0
113,109.64,106.63,0
113,109.70,106.70,0
113,109.77,106.76,0
113,109.83,106.82,0
113,109.90,106.88,0
114,109.98,106.95,0
115,110.08,107.04,0
115,110.18,107.11,0
116,110.29,107.20,0
115,110.39,107.28,0
115,110.48,107.36,0
115,110.57,107.44,0
116,110.68,107.52,0
116,110.79,107.61,0
116,110.89,107.69,0
117,111.01,107.78,0
117,111.13,107.87,0
117,111.25,107.97,0
117,111.37,108.06,0
118,111.50,108.16,0
117,111.61,108.24,0
117,111.72,108.33,0
117,111.82,108.42,0
119,111.96,108.52,0
118,112.09,108.62,0
119,112.22,108.72,0
117,112.32,108.81,0
118,112.43,108.90,0
118,112.54,108.99,0
119,112.67,109.09,0
119,112.80,109.19,0
119,112.92,109.29,0
119,113.05,109.38,0
119,113.16,109.48,0
120,113.30,109.58,0
121,113.46,109.70,0
120,113.59,109.80,0
123,113.77,109.93,0
123,113.96,110.06,0
123,114.14,110.19,0
125,114.36,110.34,0
125,114.57,110.49,0
125,114.78,110.63,0
125,114.98,110.78,0
126,115.20,110.93,0
128,115.46,111.10,0
129,115.73,111.28,0
127,115.96,111.44,0
128,116.20,111.60,0
127,116.41,111.76,0
128,116.64,111.92,0
128,116.87,112.08,0
129,117.11,112.25,0
128,117.33,112.41,0
128,117.54,112.56,0
128,117.75,112.72,0
129,117.98,112.88,0
129,118.20,113.04,0
131,118.46,113.22,0
130,118.69,113.39,0
131,118.93,113.56,0
128,119.11,113.71,0
131,119.35,113.88,0
133,119.62,114.07,0
133,119.89,114.26,0
133,120.15,114.45,0
133,120.41,114.63,0
134,120.68,114.83,0
134,120.95,115.02,0
135,121.23,115.22,0
137,121.55,115.44,0
138,121.87,115.66,0
137,122.18,115.88,0
137,122.47,116.09,0
139,122.80,116.32,0
138,123.11,116.53,0
138,123.41,116.75,0
138,123.70,116.96,0
139,124.00,117.18,0
137,124.26,117.38,0
139,124.56,117.60,0
137,124.81,117.79,0
139,125.09,118.00,0
139,125.37,118.21,0
140,125.66,118.43,0
139,125.93,118.64,0
141,126.23,118.86,0
141,126.53,119.08,0
140,126.80,119.29,0
140,127.06,119.50,0
139,127.30,119.69,0
143,127.61,119.92,0
141,127.88,120.14,0
141,128.14,120.34,0
143,128.44,120.57,0
147,128.81,120.84,0
145,129.13,121.08,0
145,129.45,121.32,0
145,129.76,121.55,0
147,130.11,121.81,0
150,130.51,122.09,0
146,130.82,122.33,0
148,131.16,122.58,0
149,131.52,122.85,0
149,131.87,123.11,0
151,132.25,123.39,0
149,132.58,123.65,0
150,132.93,123.91,0
152,133.31,124.19,0
151,133.67,124.46,0
153,134.05,124.74,0
155,134.47,125.05,0
156,134.90,125.36,0
155,135.30,125.65,0
155,135.70,125.95,0
156,136.10,126.25,0
158,136.54,126.56,0
158,136.97,126.88,0
159,137.41,127.20,0
159,137.84,127.52,0
158,138.25,127.82,0
157,138.62,128.11,0
159,139.03,128.42,0
159,139.43,128.73,0
159,139.82,129.03,0
160,140.22,129.34,0
160,140.62,129.65,0
161,141.03,129.96,0
159,141.39,130.25,0
161,141.78,130.56,0
160,142.14,130.85,0
161,142.52,131.15,0
162,142.91,131.46,0
162,143.29,131.77,0
161,143.65,132.06,0
162,144.01,132.36,0
161,144.35,132.65,0
164,144.75,132.96,0
165,145.15,133.28,0
165,145.55,133.60,0
165,145.94,133.91,0
165,146.32,134.22,0
166,146.71,134.54,0
167,147.12,134.87,0
165,147.48,135.17,0
165,147.83,135.46,0
166,148.19,135.77,0
167,148.57,136.08,0
169,148.97,136.41,0
167,149.33,136.72,0
169,149.73,137.04,0
169,150.11,137.36,0
168,150.47,137.67,0
169,150.84,137.98,0
169,151.21,138.29,0
168,151.54,138.59,0
169,151.89,138.89,0
169,152.23,139.19,0
171,152.61,139.51,0
173,153.02,139.85,0
173,153.42,140.18,0
173,153.81,140.50,0
173,154.19,140.83,0
174,154.59,141.16,0
173,154.96,141.48,0
174,155.34,141.81,0
173,155.69,142.12,0
175,156.08,142.45,0
175,156.45,142.77,0
175,156.83,143.09,0
175,157.19,143.41,0
176,157.56,143.74,0
177,157.95,144.07,0
178,158.35,144.41,0
177,158.73,144.74,0
177,159.09,145.06,0
177,159.45,145.38,0
177,159.80,145.69,0
178,160.17,146.02,0
180,160.56,146.36,0
180,160.95,146.69,0
180,161.33,147.03,0
182,161.75,147.38,0
181,162.13,147.71,0
181,162.51,148.05,0
181,162.88,148.38,0
180,163.22,148.69,0
181,163.58,149.01,0
179,163.88,149.31,0
180,164.21,149.62,0
179,164.50,149.92,0
180,164.81,150.22,0
181,165.14,150.52,0
181,165.45,150.83,0
183,165.80,151.15,0
181,166.11,151.45,0
181,166.41,151.74,0
183,166.74,152.06,0
183,167.06,152.37,0
184,167.40,152.68,0
184,167.73,153.00,0
183,168.04,153.30,0
185,168.38,153.61,0
185,168.71,153.93,0
185,169.04,154.24,0
186,169.38,154.56,0
185,169.69,154.86,0
186,170.01,155.17,0
185,170.31,155.47,0
187,170.65,155.78,0
187,170.98,156.10,0
187,171.30,156.41,0
188,171.63,156.72,0
187,171.94,157.02,0
189,172.28,157.34,0
188,172.59,157.65,0
189,172.92,157.96,0
188,173.22,158.26,0
189,173.54,158.57,0
189,173.85,158.88,0
191,174.19,159.20,0
191,174.53,159.52,0
191,174.86,159.83,0
191,175.18,160.14,0
192,175.52,160.46,0
193,175.87,160.79,0
193,176.21,161.11,0
193,176.54,161.43,0
193,176.87,161.74,0
193,177.20,162.06,0
192,177.49,162.36,0
193,177.80,162.66,0
193,178.11,162.96,0
193,178.40,163.27,0
193,178.70,163.56,0
193,178.98,163.86,0
193,179.26,164.15,0
195,179.58,164.46,0
193,179.85,164.74,0
193,180.11,165.02,0
194,180.39,165.31,0
193,180.64,165.59,0
194,180.91,165.88,0
194,181.17,166.16,0
193,181.40,166.43,0
193,181.64,166.69,0
193,181.86,166.95,0
192,182.07,167.20,0
192,182.26,167.45,0
191,182.44,167.69,0
192,182.63,167.93,0
192,182.82,168.17,0
191,182.98,168.40,0
191,183.14,168.63,0
191,183.30,168.85,0
191,183.45,169.07,0
190,183.58,169.28,0
191,183.73,169.50,0
190,183.86,169.70,0
191,184.00,169.92,0
190,184.12,170.12,0
189,184.22,170.31,0
189,184.31,170.49,0
189,184.41,170.68,0
189,184.50,170.86,0
190,184.61,171.05,0
189,184.70,171.23,0
188,184.76,171.40,0
187,184.81,171.56,0
189,184.89,171.73,0
187,184.93,171.88,0
188,185.00,172.04,0
187,185.04,172.19,0
187,185.07,172.34,0
187,185.11,172.49,0
186,185.13,172.62,0
186,185.15,172.76,0
185,185.15,172.88,0
185,185.14,173.00,0
185,185.14,173.12,0
185,185.14,173.24,0
184,185.11,173.35,0
184,185.09,173.45,0
184,185.07,173.56,0
184,185.05,173.66,0
183,185.01,173.76,0
183,184.97,173.85,0
183,184.93,173.94,0
183,184.89,174.03,0
181,184.81,174.10,0
182,184.76,174.18,0
182,184.70,174.26,0
181,184.63,174.33,0
181,184.55,174.39,0
181,184.48,174.46,0
181,184.41,174.52,0
180,184.33,174.58,0
181,184.26,174.64,0
181,184.19,174.71,0
180,184.11,174.76,0
180,184.03,174.81,0
181,183.97,174.87,0
181,183.91,174.93,0
181,183.85,175.00,0
180,183.77,175.05,0
179,183.68,175.08,0
180,183.60,175.13,0
179,183.51,175.17,0
180,183.44,175.22,0
180,183.37,175.27,0
179,183.28,175.31,0
178,183.18,175.33,0
177,183.06,175.35,0
177,182.93,175.37,0
177,182.82,175.38,0
177,182.70,175.40,0
177,182.59,175.41,0
177,182.47,175.43,0
176,182.34,175.44,0
176,182.22,175.44,0
177,182.11,175.46,0
175,181.97,175.45,0
175,181.83,175.45,0
175,181.69,175.44,0
175,181.56,175.44,0
174,181.41,175.43,0
175,181.28,175.42,0
174,181.14,175.41,0
173,180.97,175.38,0
175,180.85,175.38,0
173,180.70,175.35,0
173,180.54,175.33,0
173,180.39,175.31,0
173,180.24,175.29,0
173,180.10,175.26,0
173,179.96,175.24,0
172,179.80,175.21,0
172,179.64,175.18,0
172,179.49,175.14,0
171,179.32,175.10,0
172,179.17,175.07,0
171,179.01,175.03,0
171,178.85,174.99,0
175,178.77,174.99,0
171,178.62,174.95,0
169,178.42,174.89,0
170,178.26,174.84,0
170,178.09,174.79,0
169,177.91,174.74,0
169,177.73,174.68,0
167,177.52,174.60,0
168,177.33,174.54,0
170,177.18,174.49,0
169,177.02,174.43,0
168,176.84,174.37,0
168,176.66,174.31,0
169,176.51,174.25,0
168,176.34,174.19,0
167,176.15,174.12,0
167,175.97,174.05,0
167,175.79,173.98,0
167,175.61,173.91,0
167,175.44,173.84,0
167,175.27,173.77,0
167,175.10,173.70,0
166,174.92,173.63,0
165,174.72,173.54,0
166,174.55,173.46,0
165,174.36,173.38,0
166,174.19,173.31,0
165,174.01,173.22,0
165,173.83,173.14,0
165,173.65,173.06,0
163,173.44,172.96,0
164,173.25,172.87,0
164,173.06,172.78,0
163,172.86,172.68,0
163,172.67,172.59,1
164,172.49,172.50,1
163,172.30,172.40,2
163,172.12,172.31,2
162,171.91,172.21,2
162,171.72,172.11,2
162,171.52,172.00,2
163,171.35,171.91,2
161,171.14,171.81,2
161,170.94,171.70,2
161,170.74,171.59,2
160,170.53,171.47,2
161,170.34,171.37,2
160,170.13,171.26,2
161,169.95,171.15,2
160,169.75,171.04,2
160,169.55,170.93,2
160,169.36,170.82,2
160,169.18,170.71,2
159,168.97,170.60,2
159,168.77,170.48,2
159,168.58,170.37,2
159,168.39,170.25,2
158,168.18,170.13,2
160,168.01,170.03,2
157,167.79,169.90,2
157,167.58,169.77,2
157,167.37,169.64,2
157,167.16,169.52,2
157,166.96,169.39,2
157,166.76,169.27,2
157,166.56,169.14,2
157,166.37,169.02,2
157,166.18,168.90,2
155,165.96,168.76,2
156,165.76,168.64,2
155,165.55,168.50,2
156,165.35,168.37,2
155,165.15,168.24,2
155,164.94,168.11,2
155,164.75,167.98,2
156,164.57,167.86,2
155,164.38,167.73,2
155,164.19,167.60,2
155,164.01,167.47,2
156,163.85,167.36,2
154,163.65,167.23,2
154,163.46,167.09,2
154,163.27,166.96,2
153,163.06,166.82,2
154,162.88,166.70,2
154,162.70,166.57,2
153,162.51,166.43,2
153,162.32,166.30,2
153,162.13,166.17,2
153,161.95,166.03,2
153,161.77,165.90,2
152,161.58,165.76,2
152,161.38,165.63,2
152,161.20,165.49,2
152,161.01,165.36,2
152,160.83,165.22,2
153,160.68,165.10,2
152,160.50,164.97,2
151,160.31,164.83,2
151,160.13,164.69,2
151,159.94,164.55,2
150,159.74,164.41,2
150,159.55,164.26,2
149,159.34,164.11,2
150,159.15,163.97,2
149,158.95,163.82,2
149,158.75,163.67,2
151,158.60,163.55,2
149,158.40,163.40,2
149,158.22,163.26,2
147,157.99,163.09,2
151,157.85,162.97,2
149,157.67,162.83,2
150,157.52,162.71,2
149,157.35,162.57,2
149,157.18,162.43,2
149,157.02,162.30,2
149,156.86,162.17,2
148,156.68,162.02,2
149,156.53,161.89,2
148,156.36,161.75,2
148,156.19,161.62,2
149,156.05,161.49,2
147,155.87,161.35,2
147,155.69,161.20,2
148,155.53,161.07,2
148,155.38,160.94,2
147,155.22,160.80,2
149,155.09,160.68,2
147,154.93,160.55,2
148,154.79,160.42,2
148,154.66,160.30,2
147,154.50,160.16,2
146,154.33,160.02,2
146,154.17,159.88,2
147,154.02,159.75,2
146,153.86,159.61,2
145,153.69,159.47,2
146,153.53,159.33,2
147,153.40,159.21,2
146,153.25,159.08,2
146,153.11,158.95,2
145,152.95,158.81,2
146,152.81,158.68,2
145,152.65,158.54,2
147,152.54,158.43,2
145,152.39,158.29,2
145,152.24,158.16,2
145,152.09,158.03,2
148,152.01,157.93,2
144,151.85,157.79,2
144,151.70,157.65,2
144,151.54,157.51,2
143,151.37,157.37,2
143,151.20,157.23,2
143,151.04,157.08,2
143,150.88,156.94,2
143,150.72,156.80,2
143,150.57,156.67,2
143,150.41,156.53,2
143,150.27,156.39,2
142,150.10,156.25,2
143,149.96,156.12,2
143,149.82,155.99,2
142,149.66,155.85,2
141,149.49,155.70,2
143,149.36,155.57,2
141,149.19,155.42,2
143,149.07,155.30,2
141,148.91,155.16,2
141,148.75,155.02,2
141,148.59,154.88,2
141,148.44,154.74,2
142,148.31,154.61,2
141,148.17,154.47,2
141,148.02,154.34,2
139,147.84,154.19,2
139,147.67,154.03,2
139,147.49,153.88,2
140,147.34,153.74,2
140,147.20,153.61,2
139,147.03,153.46,2
139,146.87,153.32,2
140,146.74,153.18,2
139,146.58,153.04,2
139,146.43,152.90,2
139,146.28,152.76,2
139,146.13,152.62,2
139,145.99,152.49,2
139,145.85,152.35,2
138,145.70,152.21,2
138,145.54,152.07,2
137,145.37,151.92,2
137,145.20,151.77,2
137,145.04,151.62,2
137,144.88,151.47,2
137,144.72,151.33,2
137,144.57,151.19,2
139,144.45,151.06,2
137,144.31,150.92,2
137,144.16,150.78,2
137,144.02,150.65,2
137,143.88,150.51,2
137,143.74,150.37,2
137,143.60,150.24,2
137,143.47,150.11,2
136,143.32,149.97,2
136,143.18,149.83,2
136,143.03,149.69,2
135,142.87,149.54,2
135,142.71,149.40,2
135,142.56,149.25,2
135,142.41,149.11,2
135,142.26,148.97,2
135,142.12,148.83,2
136,141.99,148.70,2
135,141.85,148.56,2
135,141.72,148.43,2
133,141.54,148.27,2
133,141.37,148.12,2
135,141.24,147.99,2
134,141.10,147.85,2
134,140.96,147.71,2
134,140.82,147.58,2
133,140.66,147.43,2
133,140.51,147.29,2
133,140.36,147.14,2
134,140.23,147.01,2
134,140.11,146.88,2
133,139.96,146.74,2
133,139.82,146.60,2
133,139.69,146.47,2
134,139.57,146.34,2
133,139.44,146.21,2
133,139.31,146.08,2
133,139.19,145.95,2
133,139.06,145.82,2
134,138.96,145.70,2
133,138.84,145.57,2
133,138.73,145.45,2
132,138.59,145.31,2
133,138.48,145.19,2
132,138.35,145.06,2
131,138.20,144.92,2
132,138.08,144.79,2
133,137.98,144.67,2
131,137.84,144.53,2
132,137.72,144.41,2
132,137.61,144.28,2
133,137.52,144.17,2
132,137.40,144.05,2
131,137.28,143.92,2
132,137.17,143.80,2
132,137.07,143.68,2
131,136.95,143.55,2
131,136.83,143.43,2
131,136.71,143.31,2
131,136.60,143.18,2
131,136.48,143.06,2
129,136.34,142.92,2
131,136.23,142.80,2
130,136.10,142.67,2
130,135.98,142.55,2
129,135.84,142.41,2
131,135.75,142.30,2
130,135.63,142.17,2
129,135.50,142.04,2
129,135.37,141.91,2
129,135.24,141.78,2
130,135.14,141.66,2
129,135.01,141.54,2
130,134.91,141.42,2
129,134.79,141.30,2
129,134.68,141.17,2
129,134.57,141.05,2
130,134.47,140.94,2
129,134.36,140.82,2
130,134.28,140.71,2
129,134.17,140.60,2
129,134.07,140.48,2
130,133.99,140.38,2
129,133.89,140.26,2
127,133.75,140.13,2
128,133.63,140.01,2
128,133.52,139.89,2
129,133.43,139.78,2
128,133.32,139.66,2
128,133.22,139.55,2
128,133.11,139.43,2
128,133.01,139.32,2
127,132.89,139.19,2
128,132.79,139.08,2
127,132.68,138.96,2
127,132.56,138.84,2
127,132.45,138.72,2
127,132.34,138.60,2
127,132.24,138.49,2
127,132.13,138.37,2
127,132.03,138.26,2
127,131.93,138.15,2
127,131.83,138.04,2
127,131.73,137.93,2
127,131.64,137.82,2
126,131.52,137.70,2
127,131.43,137.59,2
126,131.33,137.48,2
125,131.20,137.35,2
125,131.08,137.23,2
125,130.95,137.11,2
126,130.85,136.99,2
125,130.74,136.87,2
125,130.62,136.76,2
125,130.51,136.64,2
125,130.40,136.52,2
123,130.25,136.39,2
125,130.15,136.27,2
125,130.04,136.16,2
125,129.94,136.05,2
123,129.80,135.92,2
125,129.71,135.81,2
124,129.59,135.69,2
124,129.48,135.57,2
125,129.39,135.47,2
125,129.30,135.36,2
125,129.22,135.26,2
125,129.13,135.16,2
124,129.03,135.05,2
124,128.93,134.93,2
125,128.85,134.84,2
123,128.74,134.72,2
125,128.66,134.62,2
123,128.55,134.50,2
124,128.46,134.40,2
123,128.35,134.28,2
124,128.26,134.18,2
123,128.16,134.07,2
125,128.09,133.98,2
123,127.99,133.87,2
123,127.89,133.76,2
123,127.79,133.65,2
123,127.70,133.55,2
123,127.60,133.44,2
123,127.51,133.34,2
123,127.42,133.23,2
123,127.33,133.13,2
121,127.21,133.01,2
123,127.12,132.91,2
124,127.06,132.82,2
123,126.98,132.72,2
123,126.90,132.63,2
122,126.80,132.52,2
121,126.68,132.40,2
121,126.57,132.29,2
123,126.50,132.20,2
121,126.39,132.08,2
121,126.28,131.97,2
121,126.18,131.86,2
121,126.07,131.76,2
121,125.97,131.65,2
121,125.87,131.54,2
121,125.77,131.44,2
121,125.68,131.33,2
121,125.58,131.23,2
121,125.49,131.13,2
121,125.40,131.02,2
120,125.30,130.91,2
120,125.19,130.81,2
120,125.09,130.70,2
121,125.00,130.60,2
120,124.90,130.49,2
120,124.81,130.39,2
120,124.71,130.29,2
120,124.62,130.18,2
120,124.52,130.08,2
119,124.41,129.97,2
119,124.30,129.86,2
119,124.20,129.75,2
120,124.11,129.65,2
119,124.01,129.55,2
120,123.93,129.45,2
119,123.83,129.35,2
119,123.74,129.24,2
119,123.64,129.14,2
119,123.55,129.04,2
119,123.46,128.94,2
120,123.39,128.85,2
117,123.26,128.73,2
119,123.18,128.63,2
120,123.11,128.55,2
119,123.03,128.45,2
119,122.95,128.36,2
119,122.87,128.26,2
118,122.77,128.16,2
118,122.68,128.06,2
119,122.60,127.97,2
118,122.51,127.87,2
118,122.42,127.77,2
118,122.33,127.67,2
117,122.23,127.57,2
117,122.12,127.46,2
117,122.02,127.36,2
117,121.92,127.25,2
117,121.82,127.15,2
117,121.72,127.05,2
117,121.63,126.95,2
115,121.50,126.83,2
117,121.41,126.73,2
117,121.32,126.63,2
117,121.23,126.54,2
117,121.15,126.44,2
117,121.07,126.35,2
117,120.98,126.25,2
117,120.90,126.16,2
116,120.81,126.06,2
116,120.71,125.96,2
116,120.62,125.86,2
115,120.50,125.75,2
117,120.43,125.66,2
115,120.32,125.56,2
116,120.24,125.46,2
116,120.15,125.37,2
116,120.07,125.27,2
115,119.97,125.17,2
116,119.89,125.08,2
115,119.79,124.98,2
115,119.70,124.88,2
115,119.60,124.78,2
115,119.51,124.68,2
115,119.42,124.58,2
115,119.33,124.49,2
115,119.24,124.39,2
114,119.14,124.29,2
113,119.02,124.18,2
113,118.90,124.07,2
113,118.78,123.95,2
113,118.66,123.85,2
113,118.55,123.74,2
113,118.44,123.63,2
115,118.37,123.54,2
113,118.26,123.44,2
115,118.20,123.35,2
113,118.09,123.25,2
113,117.99,123.15,2
113,117.89,123.05,2
113,117.79,122.95,2
111,117.66,122.83,2
113,117.57,122.73,2
116,117.53,122.66,2
112,117.42,122.55,2
113,117.33,122.46,2
113,117.25,122.36,2
113,117.16,122.27,2
113,117.08,122.18,2
111,116.96,122.07,2
112,116.86,121.96,2
113,116.78,121.88,2
112,116.69,121.78,2
112,116.59,121.68,2
111,116.48,121.57,2
111,116.37,121.47,2
111,116.26,121.36,2
111,116.16,121.26,2
111,116.06,121.16,2
108,115.89,121.02,2
111,115.80,120.92,2
111,115.70,120.82,2
111,115.61,120.73,2
111,115.51,120.63,2
111,115.42,120.53,2
111,115.34,120.44,2
111,115.25,120.34,2
110,115.14,120.24,2
112,115.08,120.16,2
111,115.00,120.07,2
111,114.92,119.97,2
109,114.80,119.87,2
110,114.70,119.77,2
111,114.63,119.68,2
110,114.54,119.58,2
109,114.43,119.48,2
109,114.32,119.37,2
109,114.21,119.27,2
109,114.11,119.17,2
109,114.01,119.06,2
109,113.91,118.96,2
109,113.81,118.86,2
109,113.71,118.76,2
109,113.62,118.67,2
109,113.53,118.57,2
109,113.43,118.47,2
108,113.33,118.37,2
109,113.24,118.28,2
109,113.15,118.18,2
109,113.07,118.09,2
108,112.97,117.99,2
108,112.87,117.89,2
109,112.79,117.80,2
107,112.68,117.69,2
108,112.58,117.60,2
107,112.47,117.49,2
108,112.38,117.40,2
108,112.30,117.30,2
111,112.27,117.24,2
107,112.16,117.14,2
109,112.10,117.06,2
109,112.04,116.97,2
108,111.96,116.88,2
107,111.86,116.79,2
107,111.76,116.69,2
107,111.67,116.59,2
109,111.61,116.52,2
107,111.52,116.42,2
107,111.43,116.33,2
107,111.34,116.23,2
107,111.25,116.14,2
108,111.19,116.06,2
107,111.11,115.97,2
107,111.02,115.88,2
107,110.94,115.79,2
108,110.88,115.71,2
107,110.81,115.62,2
108,110.75,115.55,2
106,110.66,115.45,2
107,110.58,115.37,2
107,110.51,115.28,2
107,110.44,115.20,2
106,110.35,115.11,2
107,110.28,115.03,2
107,110.22,114.95,2
107,110.15,114.87,2
107,110.09,114.79,2
106,110.01,114.70,2
106,109.93,114.62,2
106,109.85,114.53,2
105,109.75,114.43,2
106,109.68,114.35,2
105,109.59,114.26,2
105,109.49,114.16,2
107,109.44,114.09,2
105,109.35,114.00,2
105,109.27,113.91,2
106,109.20,113.83,2
106,109.14,113.75,2
106,109.08,113.68,2
107,109.03,113.61,2
105,108.95,113.52,2
107,108.91,113.46,2
107,108.88,113.39,2
107,108.84,113.33,2
107,108.80,113.27,2
107,108.77,113.20,2
107,108.73,113.14,2
107,108.70,113.08,2
105,108.62,113.00,2
106,108.57,112.93,2
106,108.52,112.86,2
105,108.45,112.78,2
107,108.42,112.72,2
105,108.35,112.65,2
107,108.32,112.59,2
105,108.26,112.51,2
105,108.19,112.44,2
105,108.13,112.36,2
105,108.07,112.29,2
106,108.02,112.23,2
105,107.96,112.16,2
105,107.90,112.08,2
105,107.85,112.01,2
105,107.79,111.94,2
105,107.73,111.87,2
105,107.68,111.81,2
105,107.63,111.74,2
105,107.57,111.67,2
105,107.52,111.60,2
107,107.51,111.56,2
105,107.46,111.49,2
107,107.45,111.45,2
105,107.40,111.38,2
105,107.35,111.32,2
105,107.31,111.26,2
105,107.26,111.19,2
107,107.26,111.15,2
105,107.21,111.09,2
105,107.17,111.03,2
105,107.12,110.97,2
105,107.08,110.91,2
105,107.04,110.85,2
106,107.02,110.80,2
105,106.98,110.74,2
105,106.94,110.69,2
105,106.90,110.63,2
107,106.90,110.59,2
105,106.86,110.54,2
107,106.87,110.50,2
105,106.83,110.45,2
106,106.81,110.40,2
108,106.84,110.38,2
106,106.82,110.33,2
105,106.78,110.28,2
105,106.75,110.23,2
105,106.71,110.18,2
105,106.68,110.12,2
105,106.64,110.07,2
105,106.61,110.02,2
106,106.60,109.98,2
105,106.57,109.93,2
105,106.54,109.88,2
105,106.51,109.83,2
107,106.52,109.80,2
105,106.49,109.76,2
105,106.46,109.71,2
105,106.43,109.66,2
104,106.38,109.61,2
105,106.35,109.56,2
106,106.34,109.52,2
105,106.32,109.48,2
105,106.29,109.43,2
105,106.26,109.39,2
105,106.24,109.35,2
105,106.21,109.30,2
105,106.19,109.26,2
106,106.19,109.23,2
105,106.16,109.18,2
105,106.14,109.14,2
105,106.12,109.10,2
105,106.09,109.06,2
105,106.07,109.02,2
105,106.05,108.98,2
105,106.03,108.94,2
106,106.03,108.91,2
105,106.01,108.87,2
105,105.99,108.83,2
105,105.97,108.79,2
105,105.95,108.76,2
105,105.93,108.72,2
105,105.91,108.68,2
105,105.89,108.64,2
105,105.88,108.61,2
105,105.86,108.57,2
105,105.84,108.54,2
105,105.82,108.50,2
105,105.81,108.47,2
105,105.79,108.43,2
105,105.78,108.40,2
105,105.76,108.36,2
105,105.74,108.33,2
106,105.75,108.31,2
105,105.73,108.27,2
105,105.72,108.24,2
105,105.71,108.21,2
105,105.69,108.18,2
109,105.76,108.18,2
105,105.74,108.15,2
105,105.73,108.12,2
105,105.71,108.09,2
105,105.70,108.06,2
105,105.69,108.03,2
105,105.67,108.00,2
105,105.66,107.97,2
105,105.64,107.94,2
105,105.63,107.91,2
105,105.62,107.88,2
106,105.63,107.86,2
108,105.67,107.86,2
107,105.70,107.85,2
107,105.73,107.85,2
107,105.75,107.84,2
107,105.78,107.83,2
108,105.82,107.83,2
108,105.87,107.83,2
108,105.91,107.83,2
107,105.93,107.83,2
107,105.95,107.82,2
107,105.97,107.81,2
108,106.01,107.81,2
108,106.05,107.81,2
108,106.09,107.81,2
107,106.11,107.81,2
108,106.15,107.81,2
107,106.16,107.80,2
109,106.22,107.81,2
108,106.26,107.81,2
108,106.29,107.82,2
109,106.35,107.83,2
109,106.40,107.84,2
109,106.45,107.85,2
109,106.50,107.86,2
109,106.55,107.87,2
108,106.58,107.88,2
109,106.63,107.89,2
109,106.68,107.90,2
109,106.72,107.91,2
108,106.75,107.91,2
109,106.79,107.92,2
107,106.80,107.91,2
109,106.84,107.92,2
109,106.89,107.93,2
109,106.93,107.94,2
109,106.97,107.95,2
109,107.01,107.96,2
109,107.05,107.97,2
109,107.09,107.99,2
109,107.13,108.00,2
109,107.16,108.01,2
109,107.20,108.02,2
108,107.22,108.02,2
109,107.25,108.02,2
109,107.29,108.03,2
109,107.32,108.04,2
109,107.36,108.05,2
109,107.39,108.06,2
109,107.42,108.07,2
109,107.45,108.08,2
108,107.46,108.08,2
108,107.47,108.08,2
109,107.50,108.09,2
109,107.53,108.10,2
110,107.58,108.12,2
109,107.61,108.13,2
109,107.64,108.14,2
109,107.67,108.14,2
109,107.69,108.15,2
109,107.72,108.16,2
109,107.75,108.17,2
109,107.77,108.18,2
109,107.79,108.19,2
108,107.80,108.18,2
109,107.82,108.19,2
109,107.85,108.20,2
111,107.91,108.23,2
109,107.93,108.24,2
109,107.95,108.24,2
109,107.97,108.25,2
111,108.03,108.28,2
109,108.05,108.29,2
110,108.09,108.30,2
109,108.11,108.31,2
109,108.13,108.32,2
109,108.15,108.32,2
109,108.16,108.33,2
110,108.20,108.35,2
111,108.26,108.37,2
109,108.27,108.38,2
110,108.31,108.40,2
111,108.36,108.42,2
110,108.39,108.44,2
109,108.40,108.44,2
109,108.42,108.45,2
110,108.45,108.46,2
111,108.50,108.49,2
110,108.53,108.51,2
110,108.56,108.52,2
111,108.61,108.54,2
109,108.61,108.55,2
110,108.64,108.56,2
111,108.69,108.59,2
111,108.74,108.61,2
111,108.78,108.64,2
111,108.83,108.66,2
111,108.87,108.68,2
111,108.91,108.71,2
110,108.93,108.72,2
111,108.97,108.74,2
111,109.02,108.76,2
111,109.05,108.79,2
111,109.09,108.81,2
111,109.13,108.83,2
111,109.17,108.85,2
110,109.19,108.86,2
110,109.20,108.88,2
111,109.24,108.90,2
111,109.27,108.92,2
109,109.27,108.92,2
110,109.28,108.93,2
111,109.32,108.95,2
111,109.35,108.97,2
109,109.34,108.97,2
110,109.36,108.98,2
111,109.39,109.00,2
111,109.42,109.02,2
110,109.43,109.03,2
111,109.46,109.05,2
111,109.50,109.07,2
111,109.53,109.09,2
111,109.56,109.11,2
111,109.58,109.13,2
111,109.61,109.15,2
111,109.64,109.17,2
111,109.67,109.18,2
111,109.69,109.20,2
111,109.72,109.22,2
111,109.75,109.24,2
111,109.77,109.26,2
113,109.84,109.29,2
112,109.88,109.32,2
111,109.90,109.34,2
113,109.96,109.37,2
114,110.04,109.42,2
116,110.16,109.49,2
117,110.30,109.56,2
115,110.39,109.61,2
115,110.49,109.67,2
117,110.62,109.74,2
119,110.78,109.83,2
120,110.97,109.94,2
120,111.15,110.04,2
120,111.33,110.14,2
120,111.50,110.23,2
121,111.69,110.34,2
121,111.88,110.45,2
124,112.12,110.58,2
121,112.30,110.69,2
122,112.49,110.80,2
121,112.66,110.90,2
121,112.83,111.00,2
121,112.99,111.10,2
122,113.17,111.21,2
121,113.33,111.31,2
123,113.52,111.43,2
122,113.69,111.53,2
123,113.88,111.65,2
123,114.06,111.76,2
123,114.24,111.87,2
124,114.43,112.00,2
124,114.62,112.12,2
125,114.83,112.24,2
123,115.00,112.35,2
125,115.20,112.48,2
124,115.37,112.59,2
124,115.54,112.71,2
125,115.73,112.83,2
126,115.94,112.96,2
125,116.12,113.08,2
125,116.30,113.20,2
125,116.47,113.32,2
127,116.68,113.46,2
127,116.89,113.59,2
129,117.13,113.75,2
129,117.37,113.90,2
130,117.62,114.06,2
131,117.89,114.23,2
131,118.15,114.40,2
131,118.41,114.56,2
131,118.66,114.73,2
134,118.97,114.92,2
133,119.25,115.10,2
133,119.52,115.28,2
134,119.81,115.47,2
136,120.14,115.67,2
134,120.41,115.86,2
135,120.70,116.05,2
133,120.95,116.22,2
135,121.23,116.40,2
135,121.51,116.59,2
134,121.76,116.76,2
133,121.98,116.93,2
135,122.24,117.11,2
135,122.50,117.29,2
136,122.77,117.47,2
137,123.05,117.67,2
137,123.33,117.86,2
136,123.58,118.04,2
137,123.85,118.23,2
139,124.16,118.44,2
138,124.43,118.64,2
139,124.72,118.84,2
139,125.01,119.04,2
141,125.33,119.26,2
141,125.64,119.48,2
142,125.97,119.70,2
142,126.29,119.93,2
142,126.60,120.15,2
141,126.89,120.36,2
141,127.17,120.56,2
145,127.53,120.81,2
145,127.88,121.05,2
145,128.22,121.29,2
146,128.58,121.54,2
146,128.93,121.78,2
147,129.29,122.03,2
149,129.68,122.30,2
147,130.03,122.55,2
151,130.45,122.83,2
149,130.82,123.10,2
150,131.20,123.36,2
150,131.58,123.63,2
151,131.97,123.90,2
152,132.37,124.19,2
152,132.76,124.46,2
152,133.15,124.74,2
152,133.52,125.01,2
153,133.91,125.29,2
153,134.29,125.57,2
155,134.71,125.86,2
158,135.17,126.18,2
155,135.57,126.47,2
155,135.96,126.76,2
157,136.38,127.06,2
155,136.75,127.34,2
155,137.12,127.62,2
156,137.49,127.90,2
158,137.90,128.20,2
158,138.31,128.50,2
158,138.70,128.79,2
157,139.07,129.08,2
158,139.45,129.37,2
159,139.84,129.66,2
160,140.24,129.96,2
160,140.63,130.27,2
160,141.02,130.56,2
161,141.42,130.87,2
161,141.81,131.17,2
161,142.20,131.47,2
163,142.61,131.78,2
164,143.04,132.10,2
164,143.46,132.42,2
163,143.85,132.73,2
163,144.23,133.03,2
164,144.63,133.34,2
164,145.02,133.65,2
165,145.42,133.96,2
165,145.81,134.27,2
165,146.19,134.58,2
166,146.59,134.89,2
165,146.96,135.19,2
167,147.36,135.51,2
168,147.77,135.84,2
168,148.17,136.16,2
167,148.55,136.47,2
169,148.96,136.79,2
171,149.40,137.13,2
173,149.87,137.49,2
175,150.38,137.87,2
175,150.87,138.24,2
177,151.39,138.63,2
179,151.94,139.03,2
179,152.48,139.43,2
180,153.03,139.84,2
181,153.59,140.25,2
183,154.18,140.68,2
184,154.78,141.11,2
183,155.34,141.53,2
185,155.94,141.96,2
187,156.56,142.41,2
189,157.21,142.88,2
188,157.82,143.33,2
191,158.49,143.81,2
193,159.18,144.30,2
193,159.85,144.79,2
191,160.47,145.25,2
192,161.11,145.72,2
193,161.74,146.19,2
197,162.45,146.70,2
195,163.10,147.18,2
195,163.74,147.66,2
197,164.40,148.15,2
198,165.07,148.65,2
200,165.77,149.16,2
198,166.42,149.65,2
199,167.07,150.14,2
200,167.73,150.64,2
200,168.37,151.14,2
199,168.99,151.62,2
199,169.59,152.09,2
199,170.17,152.56,2
198,170.73,153.01,2
199,171.30,153.47,2
201,171.89,153.95,2
199,172.43,154.40,2
200,172.98,154.85,2
199,173.50,155.30,2
199,174.01,155.73,2
199,174.51,156.17,2
200,175.02,156.60,2
199,175.50,157.03,2
199,175.97,157.45,2
199,176.43,157.86,2
199,176.89,158.27,2
199,177.33,158.68,2
199,177.76,159.09,2
199,178.19,159.48,2
199,178.60,159.88,2
199,179.01,160.27,2
199,179.41,160.66,2
200,179.82,161.05,2
199,180.21,161.43,2
201,180.62,161.83,2
201,181.03,162.22,2
200,181.41,162.60,2
201,181.80,162.98,2
201,182.18,163.36,2
201,182.56,163.74,2
201,182.93,164.11,2
201,183.29,164.48,2
201,183.64,164.84,2
202,184.01,165.22,2
203,184.39,165.59,2
203,184.76,165.97,2
203,185.13,166.34,2
204,185.51,166.71,2
203,185.86,167.08,2
204,186.22,167.45,2
203,186.55,167.80,2
203,186.88,168.15,2
201,187.17,168.48,2
204,187.50,168.84,2
202,187.79,169.17,2
202,188.08,169.50,2
201,188.33,169.81,2
201,188.59,170.12,2
201,188.84,170.43,2
201,189.08,170.74,2
202,189.34,171.05,2
201,189.57,171.35,2
200,189.78,171.64,2
201,190.00,171.93,2
203,190.26,172.24,2
201,190.48,172.53,2
201,190.69,172.81,2
201,190.90,173.10,2
200,191.08,173.36,2
201,191.28,173.64,2
201,191.47,173.91,2
200,191.64,174.18,2
200,191.81,174.43,2
199,191.95,174.68,2
199,192.09,174.92,2
199,192.23,175.16,2
199,192.37,175.40,2
199,192.50,175.64,2
198,192.61,175.86,2
199,192.74,176.09,2
198,192.84,176.31,2
198,192.95,176.53,2
197,193.03,176.73,2
197,193.11,176.94,2
197,193.18,177.14,2
196,193.24,177.33,2
195,193.28,177.50,2
197,193.35,177.70,2
196,193.40,177.88,2
196,193.45,178.06,2
196,193.51,178.24,2
197,193.58,178.43,2
196,193.62,178.60,2
195,193.65,178.77,2
195,193.68,178.93,2
194,193.69,179.08,2
194,193.69,179.23,2
193,193.68,179.37,2
193,193.66,179.50,2
193,193.65,179.64,2
193,193.64,179.77,2
193,193.63,179.90,2
193,193.61,180.04,2
193,193.60,180.17,2
193,193.59,180.29,2
191,193.54,180.40,2
191,193.49,180.51,2
189,193.40,180.59,2
191,193.35,180.70,2
190,193.28,180.79,2
190,193.22,180.88,2
191,193.17,180.98,2
191,193.13,181.08,2
189,193.05,181.16,2
189,192.96,181.24,2
189,192.89,181.32,2
189,192.81,181.39,2
189,192.73,181.47,2
189,192.66,181.55,2
189,192.58,181.62,2
188,192.49,181.68,2
188,192.40,181.75,2
188,192.31,181.81,2
188,192.23,181.87,2
188,192.14,181.93,2
189,192.08,182.00,2
187,191.98,182.05,2
187,191.88,182.10,2
187,191.78,182.15,2
186,191.67,182.19,2
186,191.55,182.23,2
185,191.42,182.26,2
186,191.31,182.29,2
185,191.19,182.32,2
185,191.06,182.35,2
185,190.94,182.37,2
185,190.82,182.40,2
184,190.69,182.42,2
185,190.57,182.44,2
184,190.44,182.46,2
184,190.31,182.47,2
184,190.19,182.49,2
183,190.04,182.49,2
183,189.90,182.50,2
183,189.76,182.50,2
183,189.63,182.51,2
182,189.48,182.50,2
182,189.33,182.50,2
182,189.18,182.49,2
181,189.02,182.48,2
181,188.86,182.46,2
181,188.70,182.45,2
179,188.50,182.41,2
180,188.33,182.39,2
179,188.15,182.36,2
179,187.97,182.32,2
180,187.81,182.30,2
179,187.63,182.27,2
179,187.46,182.23,2
179,187.29,182.20,2
179,187.12,182.17,2
178,186.94,182.13,2
177,186.74,182.08,2
179,186.59,182.05,2
179,186.43,182.02,2
179,186.29,181.99,2
177,186.10,181.94,2
177,185.92,181.89,2
177,185.74,181.84,2
177,185.56,181.79,2
177,185.39,181.74,2
176,185.21,181.68,2
176,185.02,181.63,2
175,184.82,181.56,2
176,184.64,181.51,2
175,184.45,181.44,2
175,184.26,181.38,2
175,184.08,181.31,2
175,183.90,181.25,2
175,183.72,181.19,2
174,183.52,181.11,2
174,183.33,181.04,2
173,183.13,180.96,2
173,182.92,180.88,2
173,182.73,180.80,2
173,182.53,180.73,2
173,182.34,180.65,2
173,182.15,180.57,2
172,181.95,180.49,2
172,181.75,180.40,2
171,181.54,180.31,2
172,181.35,180.22,2
171,181.14,180.13,2
171,180.94,180.04,2
171,180.74,179.95,2
170,180.52,179.85,2
171,180.33,179.76,2
171,180.15,179.68,2
169,179.92,179.57,2
169,179.70,179.46,2
170,179.51,179.37,2
167,179.26,179.24,3
169,179.05,179.14,3
169,178.85,179.04,3
168,178.64,178.93,3
168,178.42,178.82,3
168,178.22,178.71,3
167,177.99,178.60,3
167,177.77,178.48,3
167,177.56,178.36,3
167,177.34,178.25,3
167,177.14,178.14,3
167,176.94,178.03,3
167,176.74,177.92,3
166,176.52,177.80,3
167,176.33,177.69,3
165,176.10,177.56,3
165,175.88,177.44,3
165,175.66,177.31,3
165,175.45,177.19,3
165,175.24,177.07,3
165,175.04,176.95,3
164,174.82,176.82,3
165,174.62,176.70,3
164,174.41,176.57,3
164,174.20,176.45,3
164,174.00,176.32,3
163,173.78,176.19,3
163,173.56,176.06,3
164,173.37,175.94,3
163,173.16,175.81,3
163,172.96,175.68,3
163,172.76,175.55,3
162,172.54,175.42,3
161,172.31,175.27,3
161,172.09,175.13,3
161,171.87,174.99,3
161,171.65,174.85,3
161,171.44,174.71,3
161,171.23,174.57,3
164,171.08,174.47,3
159,170.84,174.31,3
160,170.62,174.17,3
159,170.39,174.02,3
160,170.18,173.88,3
159,169.96,173.73,3
159,169.74,173.58,3
159,169.53,173.44,3
159,169.32,173.29,3
159,169.11,173.15,3
158,168.89,173.00,3
159,168.69,172.86,3
157,168.46,172.70,3
157,168.23,172.54,3
157,168.00,172.39,3
157,167.78,172.23,3
154,167.51,172.05,3
158,167.32,171.91,3
157,167.11,171.76,3
157,166.91,171.61,3
157,166.71,171.47,3
157,166.51,171.32,3
156,166.30,171.17,3
156,166.10,171.02,3
156,165.90,170.87,3
155,165.68,170.71,3
156,165.49,170.56,3
155,165.28,170.41,3
155,165.07,170.25,3
155,164.87,170.10,3
154,164.65,169.94,3
154,164.44,169.78,3
155,164.25,169.63,3
153,164.02,169.46,3
154,163.82,169.31,3
154,163.63,169.16,3
153,163.41,169.00,3
154,163.23,168.85,3
153,163.02,168.69,3
152,162.80,168.52,3
152,162.59,168.35,3
152,162.37,168.19,3
152,162.17,168.03,3
152,161.96,167.87,3
152,161.76,167.71,3
152,161.57,167.55,3
151,161.36,167.39,3
151,161.15,167.22,3
150,160.93,167.05,3
152,160.75,166.90,3
150,160.53,166.73,3
149,160.30,166.55,3
149,160.08,166.38,3
150,159.88,166.22,3
149,159.66,166.04,3
150,159.46,165.88,3
149,159.26,165.71,3
149,159.05,165.55,3
148,158.83,165.37,3
147,158.59,165.19,3
149,158.40,165.03,3
148,158.19,164.86,3
148,157.99,164.69,3
147,157.77,164.51,3
149,157.59,164.36,3
147,157.38,164.18,3
149,157.21,164.03,3
147,157.01,163.86,3
147,156.81,163.69,3
147,156.61,163.52,3
148,156.44,163.37,3
146,156.23,163.20,3
146,156.03,163.02,3
145,155.81,162.84,3
145,155.59,162.66,3
145,155.38,162.49,3
145,155.17,162.31,3
145,154.97,162.14,3
145,154.77,161.97,3
145,154.57,161.80,3
144,154.36,161.62,3
145,154.17,161.45,3
144,153.97,161.28,3
143,153.75,161.10,3
143,153.54,160.92,3
143,153.33,160.74,3
143,153.12,160.56,3
145,152.96,160.40,3
143,152.76,160.23,3
143,152.56,160.06,3
143,152.37,159.89,3
143,152.18,159.72,3
141,151.96,159.53,3
142,151.76,159.36,3
142,151.57,159.18,3
142,151.37,159.01,3
142,151.19,158.84,3
140,150.96,158.65,3
141,150.76,158.48,3
141,150.57,158.30,3
141,150.38,158.13,3
141,150.19,157.96,3
141,150.01,157.79,3
141,149.83,157.62,3
143,149.69,157.47,3
141,149.52,157.31,3
141,149.35,157.14,3
141,149.18,156.98,3
140,149.00,156.81,3
141,148.84,156.66,3
140,148.66,156.49,3
140,148.49,156.32,3
140,148.32,156.16,3
140,148.15,156.00,3
139,147.97,155.83,3
141,147.83,155.68,3
140,147.67,155.52,3
140,147.52,155.37,3
139,147.35,155.21,3
140,147.20,155.05,3
139,147.04,154.89,3
140,146.90,154.74,3
137,146.70,154.57,3
138,146.52,154.40,3
137,146.33,154.23,3
139,146.19,154.07,3
138,146.02,153.91,3
137,145.84,153.74,3
137,145.67,153.58,3
137,145.49,153.41,3
137,145.32,153.25,3
137,145.16,153.08,3
137,144.99,152.92,3
137,144.83,152.76,3
137,144.68,152.61,3
136,144.50,152.44,3
137,144.35,152.29,3
136,144.19,152.12,3
136,144.02,151.96,3
136,143.86,151.80,3
135,143.68,151.63,3
137,143.55,151.49,3
137,143.42,151.34,3
136,143.27,151.19,3
136,143.13,151.04,3
136,142.98,150.89,3
136,142.84,150.74,3
136,142.71,150.59,3
136,142.57,150.45,3
139,142.50,150.33,3
136,142.37,150.19,3
137,142.26,150.06,3
136,142.14,149.92,3
137,142.04,149.79,3
136,141.91,149.65,3
136,141.80,149.51,3
136,141.68,149.38,3
136,141.57,149.24,3
135,141.44,149.10,3
135,141.31,148.96,3
135,141.18,148.82,3
135,141.06,148.68,3
135,140.94,148.55,3
135,140.82,148.41,3
135,140.70,148.28,3
131,140.51,148.10,3
133,140.36,147.95,3
134,140.23,147.81,3
135,140.13,147.68,3
133,139.98,147.54,3
135,139.88,147.41,3
134,139.77,147.28,3
133,139.63,147.13,3
133,139.50,146.99,3
134,139.39,146.86,3
133,139.26,146.73,3
133,139.13,146.59,3
133,139.01,146.45,3
133,138.89,146.32,3
132,138.75,146.17,3
133,138.64,146.04,3
133,138.53,145.91,3
133,138.42,145.78,3
133,138.31,145.66,3
133,138.20,145.53,3
133,138.10,145.40,3
133,138.00,145.28,3
133,137.90,145.16,3
132,137.78,145.02,3
133,137.68,144.90,3
131,137.55,144.77,3
133,137.46,144.65,3
132,137.35,144.52,3
131,137.22,144.39,3
132,137.12,144.26,3
132,137.01,144.14,3
132,136.91,144.02,3
131,136.80,143.89,3
132,136.70,143.77,3
131,136.59,143.64,3
132,136.49,143.53,3
131,136.38,143.40,3
131,136.28,143.28,3
131,136.17,143.15,3
131,136.07,143.03,3
131,135.97,142.91,3
131,135.87,142.79,3
130,135.75,142.66,3
131,135.65,142.55,3
130,135.54,142.42,3
130,135.43,142.30,3
130,135.32,142.18,3
130,135.22,142.05,3
130,135.11,141.93,3
130,135.01,141.81,3
129,134.89,141.69,3
129,134.77,141.56,3
130,134.68,141.44,3
130,134.58,141.33,3
129,134.47,141.21,3
129,134.36,141.08,3
129,134.25,140.96,3
129,134.15,140.84,3
129,134.05,140.72,3
129,133.95,140.61,3
129,133.85,140.49,3
129,133.75,140.38,3
129,133.65,140.26,3
129,133.56,140.15,3
129,133.47,140.04,3
129,133.38,139.93,3
129,133.29,139.82,3
129,133.21,139.71,3
129,133.12,139.60,3
129,133.04,139.50,3
129,132.96,139.39,3
128,132.86,139.28,3
129,132.78,139.18,3
129,132.71,139.07,3
128,132.61,138.96,3
129,132.54,138.86,3
128,132.45,138.75,3
128,132.36,138.65,3
127,132.25,138.53,3
128,132.17,138.43,3
129,132.11,138.33,3
128,132.02,138.23,3
127,131.92,138.12,3
127,131.82,138.00,3
127,131.73,137.89,3
127,131.63,137.79,3
127,131.54,137.68,3
127,131.45,137.57,3
126,131.34,137.46,3
127,131.25,137.35,3
127,131.17,137.25,3
127,131.09,137.14,3
127,131.00,137.04,3
125,130.88,136.92,3
127,130.81,136.82,3
125,130.69,136.71,3
127,130.62,136.61,3
126,130.52,136.50,3
126,130.43,136.40,3
126,130.34,136.29,3
125,130.24,136.18,3
126,130.15,136.08,3
125,130.05,135.97,3
126,129.97,135.87,3
126,129.89,135.77,3
126,129.81,135.67,3
126,129.74,135.57,3
127,129.68,135.49,3
126,129.61,135.39,3
126,129.54,135.30,3
125,129.44,135.20,3
125,129.36,135.10,3
126,129.29,135.00,3
127,129.24,134.92,3
126,129.18,134.83,3
126,129.11,134.75,3
125,129.03,134.65,3
126,128.97,134.56,3
127,128.93,134.49,3
126,128.87,134.40,3
125,128.80,134.31,3
125,128.72,134.22,3
125,128.65,134.12,3
126,128.59,134.04,3
125,128.52,133.95,3
125,128.45,133.86,3
125,128.38,133.77,3
125,128.31,133.69,3
126,128.27,133.61,3
125,128.20,133.52,3
125,128.14,133.44,3
125,128.08,133.35,3
125,128.01,133.27,3
126,127.97,133.20,3
124,127.89,133.10,3
125,127.84,133.02,3
125,127.78,132.94,3
124,127.70,132.85,3
123,127.61,132.76,3
125,127.56,132.68,3
124,127.49,132.59,3
125,127.44,132.52,3
124,127.37,132.43,3
124,127.30,132.35,3
123,127.21,132.25,3
125,127.17,132.18,3
124,127.11,132.10,3
124,127.04,132.02,3
124,126.98,131.94,3
121,126.86,131.83,3
123,126.79,131.74,3
123,126.71,131.65,3
124,126.66,131.58,3
123,126.58,131.49,3
122,126.49,131.39,3
122,126.40,131.30,3
121,126.29,131.20,3
122,126.21,131.11,3
123,126.14,131.02,3
122,126.06,130.93,3
123,126.00,130.86,3
122,125.92,130.77,3
123,125.86,130.69,3
121,125.76,130.59,3
122,125.69,130.51,3
121,125.60,130.41,3
121,125.50,130.32,3
123,125.45,130.24,3
121,125.36,130.15,3
121,125.28,130.06,3
121,125.19,129.97,3
121,125.11,129.88,3
121,125.03,129.79,3
121,124.95,129.70,3
121,124.87,129.62,3
121,124.79,129.53,3
121,124.71,129.44,3
121,124.64,129.36,3
121,124.57,129.28,3
121,124.49,129.19,3
121,124.42,129.11,3
120,124.34,129.02,3
121,124.27,128.94,3
120,124.18,128.85,3
120,124.10,128.76,3
119,124.00,128.66,3
121,123.94,128.59,3
119,123.84,128.49,3
123,123.82,128.44,3
119,123.73,128.34,3
120,123.65,128.26,3
119,123.56,128.17,3
119,123.47,128.08,3
119,123.38,127.98,3
120,123.31,127.90,3
118,123.20,127.81,3
119,123.12,127.72,3
117,123.00,127.61,3
118,122.90,127.51,3
117,122.78,127.41,3
119,122.70,127.33,3
117,122.59,127.22,3
118,122.50,127.13,3
118,122.41,127.04,3
117,122.30,126.94,3
118,122.21,126.85,3
117,122.11,126.75,3
117,122.01,126.65,3
117,121.91,126.56,3
118,121.83,126.47,3
117,121.73,126.38,3
117,121.64,126.28,3
117,121.55,126.19,3
117,121.45,126.10,3
117,121.37,126.01,3
117,121.28,125.92,3
117,121.19,125.83,3
116,121.09,125.73,3
117,121.01,125.64,3
116,120.91,125.55,3
117,120.83,125.46,3
115,120.71,125.36,3
116,120.62,125.26,3
117,120.55,125.18,3
116,120.45,125.09,3
117,120.39,125.01,3
116,120.30,124.92,3
116,120.21,124.83,3
117,120.15,124.75,3
115,120.04,124.65,3
115,119.94,124.55,3
116,119.87,124.47,3
115,119.77,124.37,3
115,119.67,124.28,3
115,119.58,124.19,3
115,119.49,124.10,3
115,119.40,124.01,3
115,119.31,123.92,3
115,119.22,123.83,3
115,119.14,123.74,3
115,119.06,123.65,3
114,118.96,123.55,3
114,118.86,123.46,3
115,118.78,123.37,3
115,118.70,123.29,3
113,118.59,123.19,3
114,118.50,123.10,3
114,118.41,123.00,3
115,118.34,122.92,3
114,118.25,122.84,3
114,118.17,122.75,3
114,118.08,122.66,3
113,117.98,122.56,3
113,117.88,122.47,3
114,117.81,122.38,3
115,117.75,122.31,3
111,117.61,122.20,3
113,117.52,122.10,3
113,117.43,122.01,3
113,117.34,121.92,3
113,117.26,121.83,3
113,117.17,121.74,3
113,117.09,121.66,3
113,117.01,121.57,3
114,116.95,121.50,3
113,116.87,121.41,3
113,116.79,121.33,3
113,116.71,121.24,3
113,116.64,121.16,3
113,116.57,121.08,3
113,116.50,121.00,3
111,116.39,120.90,3
113,116.32,120.82,3
112,116.23,120.73,3
112,116.15,120.64,3
113,116.08,120.57,3
112,116.00,120.48,3
113,115.94,120.41,3
113,115.88,120.33,3
111,115.79,120.24,3
112,115.71,120.16,3
113,115.66,120.09,3
112,115.58,120.00,3
112,115.51,119.92,3
111,115.42,119.84,3
111,115.33,119.75,3
111,115.25,119.66,3
111,115.16,119.57,3
111,115.08,119.49,3
111,115.00,119.40,3
111,114.92,119.32,3
111,114.84,119.23,3
109,114.72,119.13,3
111,114.65,119.05,3
111,114.57,118.97,3
111,114.50,118.89,3
110,114.41,118.80,3
110,114.32,118.71,3
107,114.18,118.60,3
109,114.07,118.50,3
110,113.99,118.42,3
109,113.89,118.32,3
109,113.79,118.23,3
110,113.72,118.15,3
109,113.62,118.05,3
110,113.55,117.97,3
109,113.46,117.88,3
109,113.37,117.80,3
109,113.28,117.71,3
109,113.20,117.62,3
109,113.11,117.53,3
109,113.03,117.45,3
110,112.97,117.37,3
109,112.89,117.29,3
109,112.81,117.21,3
111,112.78,117.15,3
109,112.70,117.06,3
109,112.63,116.98,3
109,112.56,116.90,3
110,112.50,116.83,3
109,112.43,116.76,3
109,112.37,116.68,3
109,112.30,116.60,3
109,112.23,116.53,3
109,112.17,116.45,3
109,112.10,116.38,3
109,112.04,116.30,3
109,111.98,116.23,3
109,111.92,116.16,3
109,111.86,116.09,3
109,111.81,116.01,3
109,111.75,115.94,3
110,111.72,115.89,3
109,111.66,115.82,3
109,111.61,115.75,3
107,111.52,115.66,3
110,111.49,115.60,3
113,111.52,115.58,3
109,111.47,115.51,3
109,111.42,115.45,3
109,111.37,115.38,3
109,111.32,115.32,3
109,111.27,115.26,3
108,111.21,115.18,3
109,111.16,115.12,3
109,111.12,115.06,3
108,111.06,114.99,3
109,111.02,114.93,3
107,110.94,114.85,3
109,110.90,114.79,3
108,110.84,114.72,3
108,110.78,114.66,3
109,110.75,114.60,3
108,110.69,114.53,3
108,110.64,114.47,3
107,110.57,114.39,3
108,110.51,114.33,3
107,110.44,114.26,3
109,110.42,114.20,3
107,110.35,114.13,3
107,110.28,114.06,3
107,110.21,113.99,3
107,110.15,113.92,3
107,110.09,113.85,3
109,110.07,113.80,3
107,110.00,113.73,3
107,109.94,113.67,3
105,109.85,113.58,3
107,109.79,113.51,3
106,109.71,113.44,3
107,109.66,113.38,3
106,109.59,113.30,3
106,109.51,113.23,3
107,109.46,113.17,3
106,109.39,113.09,3
107,109.35,113.03,3
110,109.36,113.00,3
107,109.31,112.94,3
107,109.27,112.88,3
108,109.24,112.83,3
107,109.20,112.78,3
107,109.15,112.72,3
106,109.09,112.65,3
108,109.07,112.61,3
107,109.03,112.55,3
108,109.01,112.50,3
106,108.95,112.44,3
107,108.91,112.38,3
105,108.83,112.31,3
107,108.79,112.26,3
107,108.76,112.20,3
107,108.72,112.15,3
107,108.69,112.10,3
107,108.65,112.05,3
105,108.58,111.98,3
106,108.53,111.92,3
105,108.46,111.85,3
107,108.43,111.80,3
107,108.40,111.75,3
105,108.33,111.69,3
106,108.28,111.63,3
105,108.22,111.56,3
107,108.19,111.52,3
105,108.13,111.45,3
105,108.07,111.39,3
105,108.01,111.32,3
105,107.95,111.26,3
105,107.89,111.20,3
105,107.83,111.14,3
105,107.77,111.07,3
105,107.72,111.01,3
105,107.66,110.95,3
105,107.61,110.89,3
105,107.56,110.84,3
105,107.51,110.78,3
105,107.46,110.72,3
105,107.41,110.66,3
105,107.36,110.61,3
105,107.31,110.55,3
107,107.31,110.51,3
105,107.26,110.46,3
105,107.21,110.40,3
105,107.17,110.35,3
105,107.13,110.30,3
105,107.08,110.24,3
103,107.00,110.17,3
104,106.94,110.11,3
104,106.88,110.05,3
104,106.83,109.99,3
104,106.77,109.93,3
104,106.71,109.87,3
104,106.66,109.81,3
103,106.59,109.74,3
103,106.52,109.67,3
104,106.46,109.62,3
103,106.40,109.55,3
103,106.33,109.49,3
103,106.26,109.42,3
103,106.20,109.36,3
103,106.13,109.29,3
103,106.07,109.23,3
103,106.01,109.17,3
102,105.93,109.10,3
103,105.87,109.04,3
103,105.81,108.98,3
103,105.76,108.92,3
103,105.70,108.86,3
101,105.61,108.78,3
103,105.55,108.72,3
103,105.50,108.66,3
102,105.43,108.60,3
103,105.38,108.54,3
103,105.34,108.48,3
103,105.29,108.43,3
103,105.24,108.38,3
102,105.18,108.31,3
101,105.10,108.24,3
102,105.03,108.18,3
101,104.95,108.10,3
102,104.89,108.04,3
103,104.86,107.99,3
102,104.80,107.93,3
103,104.76,107.88,3
103,104.73,107.84,3
103,104.69,107.79,3
102,104.64,107.73,3
102,104.59,107.67,3
102,104.54,107.61,3
101,104.46,107.55,3
101,104.40,107.48,3
101,104.33,107.42,3
101,104.26,107.35,3
102,104.22,107.30,3
101,104.15,107.24,3
101,104.09,107.18,3
101,104.03,107.11,3
101,103.97,107.05,3
101,103.91,106.99,3
101,103.85,106.93,3
102,103.81,106.88,3
101,103.76,106.82,3
101,103.70,106.77,3
101,103.65,106.71,3
101,103.59,106.65,3
101,103.54,106.59,3
103,103.53,106.56,3
104,103.54,106.53,3
101,103.49,106.48,3
102,103.46,106.43,3
102,103.43,106.39,3
101,103.38,106.33,3
101,103.33,106.28,3
101,103.29,106.23,3
101,103.24,106.18,3
102,103.22,106.13,3
102,103.19,106.09,3
102,103.17,106.05,3
102,103.15,106.01,3
101,103.10,105.96,3
102,103.08,105.92,3
103,103.08,105.89,3
104,103.10,105.87,3
104,103.11,105.86,3
104,103.13,105.84,3
104,103.15,105.82,3
105,103.19,105.81,3
106,103.24,105.81,3
105,103.28,105.80,3
105,103.31,105.80,3
105,103.35,105.79,3
105,103.38,105.78,3
105,103.41,105.77,3
105,103.44,105.76,3
105,103.47,105.76,3
105,103.51,105.75,3
105,103.54,105.74,3
104,103.54,105.72,3
104,103.55,105.71,3
105,103.58,105.70,3
105,103.61,105.69,3
105,103.64,105.69,3
105,103.67,105.68,3
105,103.69,105.67,3
105,103.72,105.67,3
105,103.74,105.66,3
105,103.77,105.65,3
105,103.79,105.65,3
105,103.82,105.64,3
106,103.86,105.64,3
105,103.88,105.64,3
105,103.91,105.63,3
104,103.91,105.61,3
104,103.91,105.60,3
105,103.93,105.59,3
105,103.95,105.59,3
105,103.97,105.58,3
107,104.04,105.59,3
105,104.05,105.59,3
107,104.11,105.60,3
105,104.13,105.60,3
105,104.15,105.59,3
103,104.13,105.56,3
105,104.14,105.56,3
106,104.18,105.56,3
106,104.22,105.57,3
106,104.25,105.57,3
107,104.31,105.59,3
107,104.36,105.60,3
107,104.41,105.61,3
108,104.49,105.64,3
108,104.56,105.66,3
108,104.62,105.69,3
109,104.71,105.72,3
109,104.80,105.75,3
107,104.84,105.76,3
107,104.89,105.78,3
108,104.95,105.80,3
108,105.01,105.82,3
108,105.07,105.84,3
108,105.13,105.86,3
108,105.18,105.89,3
108,105.24,105.91,3
109,105.32,105.94,3
108,105.37,105.96,3
108,105.42,105.98,3
108,105.47,106.00,3
109,105.54,106.03,3
109,105.61,106.06,3
110,105.70,106.10,3
110,105.79,106.14,3
111,105.89,106.19,3
109,105.95,106.21,3
112,106.07,106.27,3
109,106.13,106.30,3
111,106.23,106.35,3
109,106.29,106.37,3
112,106.40,106.43,3
111,106.49,106.47,3
111,106.58,106.52,3
111,106.67,106.56,3
112,106.78,106.62,3
113,106.90,106.68,3
112,107.00,106.74,3
114,107.14,106.81,3
113,107.26,106.87,3
115,107.42,106.95,3
114,107.55,107.02,3
114,107.68,107.09,3
115,107.82,107.17,3
116,107.99,107.26,3
115,108.13,107.34,3
117,108.30,107.43,3
117,108.48,107.53,3
118,108.67,107.63,3
117,108.84,107.73,3
117,109.00,107.82,3
115,109.12,107.89,3
117,109.28,107.98,3
119,109.47,108.09,3
119,109.66,108.20,3
119,109.85,108.31,3
119,110.03,108.42,3
120,110.23,108.53,3
120,110.43,108.65,3
121,110.64,108.77,3
120,110.82,108.88,3
120,111.01,108.99,3
121,111.21,109.11,3
122,111.42,109.24,3
121,111.62,109.36,3
123,111.84,109.50,3
121,112.03,109.61,3
122,112.23,109.74,3
124,112.46,109.88,3
123,112.67,110.01,3
124,112.90,110.15,3
123,113.10,110.28,3
123,113.30,110.41,3
125,113.53,110.55,3
125,113.76,110.70,3
125,113.99,110.84,3
127,114.25,111.00,3
125,114.46,111.14,3
125,114.67,111.28,3
125,114.88,111.42,3
128,115.14,111.58,3
127,115.38,111.74,3
127,115.61,111.89,3
127,115.84,112.04,3
128,116.08,112.20,3
129,116.34,112.37,3
128,116.57,112.52,3
127,116.78,112.67,3
128,117.01,112.82,3
129,117.25,112.98,3
127,117.44,113.12,3
129,117.67,113.28,3
129,117.90,113.44,3
132,118.18,113.63,3
129,118.40,113.78,3
130,118.63,113.94,3
130,118.86,114.10,3
131,119.10,114.27,3
131,119.34,114.44,3
131,119.57,114.60,3
131,119.80,114.77,3
131,120.02,114.93,3
133,120.28,115.11,3
132,120.52,115.28,3
132,120.75,115.45,3
133,120.99,115.62,3
132,121.21,115.79,3
133,121.45,115.96,3
133,121.68,116.13,3
133,121.91,116.30,3
133,122.13,116.46,3
134,122.37,116.64,3
134,122.60,116.81,3
134,122.83,116.99,3
135,123.07,117.17,3
135,123.31,117.34,3
135,123.54,117.52,3
135,123.77,117.70,3
135,124.00,117.87,3
135,124.22,118.04,3
136,124.45,118.22,3
135,124.66,118.39,3
135,124.87,118.55,3
136,125.09,118.73,3
136,125.31,118.90,3
135,125.50,119.06,3
136,125.71,119.23,3
136,125.92,119.40,3
136,126.12,119.56,3
137,126.34,119.74,3
137,126.55,119.91,3
139,126.80,120.10,3
137,127.00,120.27,3
137,127.20,120.44,3
138,127.42,120.61,3
140,127.67,120.81,3
138,127.88,120.98,3
139,128.10,121.16,3
140,128.34,121.35,3
139,128.55,121.53,3
140,128.78,121.71,3
140,129.01,121.89,3
140,129.23,122.07,3
140,129.44,122.25,3
141,129.67,122.44,3
139,129.86,122.61,3
142,130.10,122.80,3
141,130.32,122.98,3
141,130.53,123.16,3
141,130.74,123.34,3
141,130.95,123.52,3
143,131.19,123.71,3
142,131.40,123.90,3
143,131.64,124.09,3
142,131.84,124.27,3
141,132.03,124.43,3
143,132.25,124.62,3
143,132.46,124.80,3
144,132.69,124.99,3
143,132.90,125.17,3
146,133.16,125.38,3
145,133.40,125.58,3
145,133.63,125.77,3
147,133.90,125.99,3
145,134.12,126.18,3
145,134.34,126.36,3
145,134.55,126.55,3
145,134.76,126.73,3
145,134.96,126.92,3
145,135.16,127.10,3
145,135.36,127.28,3
145,135.55,127.45,3
145,135.74,127.63,3
145,135.93,127.80,3
147,136.15,128.00,3
147,136.37,128.19,3
148,136.60,128.38,3
147,136.81,128.57,3
148,137.03,128.76,3
147,137.23,128.95,3
148,137.45,129.14,3
147,137.64,129.32,3
147,137.82,129.49,3
148,138.03,129.68,3
153,138.33,129.91,3
151,138.58,130.12,3
150,138.81,130.32,3
149,139.01,130.51,3
151,139.25,130.71,3
152,139.51,130.92,3
152,139.76,131.14,3
152,140.00,131.34,3
153,140.26,131.56,3
152,140.50,131.77,3
153,140.75,131.98,3
157,141.07,132.23,3
157,141.39,132.48,3
157,141.70,132.72,3
157,142.01,132.96,3
158,142.33,133.21,3
155,142.58,133.43,3
159,142.91,133.69,3
160,143.25,133.95,3
161,143.61,134.22,3
161,143.95,134.49,3
160,144.28,134.74,3
162,144.63,135.02,3
162,144.98,135.29,3
159,145.26,135.52,3
160,145.55,135.77,3
161,145.86,136.02,3
161,146.16,136.27,3
160,146.44,136.51,3
159,146.69,136.73,3
161,146.98,136.98,3
164,147.32,137.25,3
165,147.67,137.52,3
165,148.02,137.80,3
167,148.40,138.09,3
169,148.81,138.40,3
171,149.25,138.73,3
170,149.67,139.04,3
170,150.08,139.35,3
172,150.51,139.67,3
171,150.92,139.99,3
173,151.37,140.32,3
175,151.84,140.66,3
175,152.30,141.01,3
175,152.76,141.35,3
175,153.20,141.68,3
175,153.64,142.02,3
176,154.08,142.36,3
177,154.54,142.70,3
178,155.01,143.06,3
177,155.45,143.40,3
177,155.88,143.73,3
177,156.30,144.06,3
177,156.72,144.39,3
177,157.12,144.72,3
178,157.54,145.05,3
177,157.93,145.37,3
180,158.37,145.72,3
181,158.82,146.07,3
180,159.25,146.41,3
181,159.68,146.76,3
183,160.15,147.12,3
184,160.63,147.49,3
183,161.07,147.84,3
184,161.53,148.20,3
183,161.96,148.55,3
186,162.44,148.93,3
188,162.95,149.32,3
187,163.43,149.69,3
187,163.91,150.07,3
188,164.39,150.45,3
192,164.94,150.86,3
191,165.46,151.26,3
191,165.97,151.66,3
193,166.51,152.07,3
193,167.04,152.48,3
193,167.56,152.89,3
193,168.07,153.29,3
195,168.61,153.71,3
198,169.20,154.15,3
199,169.79,154.60,3
199,170.38,155.04,3
199,170.95,155.48,3
203,171.59,155.96,3
203,172.22,156.43,3
204,172.85,156.90,3
201,173.42,157.34,3
206,174.07,157.83,3
206,174.71,158.31,3
206,175.33,158.79,3
205,175.93,159.25,3
206,176.53,159.72,3
207,177.14,160.19,3
208,177.75,160.67,3
207,178.34,161.13,3
209,178.95,161.61,3
209,179.55,162.09,3
209,180.14,162.55,3
209,180.72,163.02,3
209,181.29,163.48,3
209,181.84,163.93,3
208,182.36,164.38,3
209,182.90,164.82,3
208,183.40,165.25,3
210,183.93,165.70,3
209,184.43,166.13,3
208,184.90,166.55,3
209,185.38,166.98,3
209,185.86,167.40,3
211,186.36,167.83,3
207,186.77,168.22,3
210,187.24,168.64,3
209,187.67,169.05,3
210,188.12,169.46,3
211,188.58,169.87,3
212,189.05,170.29,3
210,189.46,170.69,3
211,189.89,171.09,3
211,190.32,171.49,3
211,190.73,171.89,3
211,191.14,172.28,3
211,191.53,172.67,3
212,191.94,173.06,3
212,192.34,173.45,3
212,192.74,173.83,3
213,193.14,174.22,3
214,193.56,174.62,3
213,193.95,175.01,3
213,194.33,175.39,3
212,194.68,175.75,3
213,195.05,176.13,3
213,195.41,176.49,3
215,195.80,176.88,3
213,196.14,177.24,3
213,196.48,177.60,3
213,196.81,177.95,3
215,197.18,178.32,3
213,197.49,178.67,3
213,197.80,179.01,3
213,198.11,179.35,3
214,198.42,179.70,3
213,198.72,180.03,3
214,199.02,180.37,3
214,199.32,180.71,3
215,199.63,181.05,3
215,199.94,181.39,3
215,200.24,181.73,3
214,200.52,182.05,3
213,200.77,182.36,3
214,201.03,182.67,3
215,201.31,183.00,3
214,201.57,183.31,3
215,201.83,183.63,3
214,202.08,183.93,3
215,202.34,184.24,3
215,202.59,184.55,3
217,202.88,184.87,3
216,203.14,185.18,3
217,203.42,185.50,3
217,203.69,185.82,3
216,203.93,186.12,3
216,204.18,186.42,3
216,204.41,186.71,3
215,204.62,187.00,3
216,204.85,187.29,3
213,205.01,187.54,3
215,205.21,187.82,3
214,205.39,188.08,3
213,205.54,188.33,3
214,205.71,188.59,3
215,205.90,188.85,3
215,206.08,189.11,3
216,206.28,189.38,3
216,206.47,189.65,3
216,206.66,189.91,3
218,206.89,190.19,3
217,207.09,190.46,3
217,207.29,190.72,3
219,207.52,191.01,3
217,207.71,191.27,3
219,207.94,191.54,3
220,208.18,191.83,3
219,208.40,192.10,3
220,208.63,192.38,3
218,208.82,192.64,3
219,209.02,192.90,3
217,209.18,193.14,3
219,209.38,193.40,3
218,209.55,193.64,3
217,209.70,193.88,3
217,209.84,194.11,3
217,209.99,194.34,3
216,210.11,194.55,3
216,210.22,194.77,3
216,210.34,194.98,3
215,210.43,195.18,3
215,210.53,195.38,3
216,210.63,195.59,3
216,210.74,195.79,3
216,210.85,195.99,3
216,210.95,196.19,3
215,211.03,196.38,3
215,211.11,196.57,3
215,211.19,196.75,3
215,211.26,196.93,3
213,211.30,197.09,3
213,211.33,197.25,3
215,211.41,197.43,3
214,211.46,197.60,3
213,211.49,197.75,3
213,211.52,197.90,3
212,211.53,198.04,3
213,211.56,198.19,3
213,211.59,198.34,3
212,211.60,198.48,3
212,211.60,198.61,3
212,211.61,198.75,3
212,211.62,198.88,3
211,211.61,199.00,3
212,211.61,199.13,3
211,211.60,199.25,3
211,211.59,199.37,3
211,211.58,199.48,3
212,211.59,199.61,3
210,211.56,199.71,3
211,211.54,199.83,3
209,211.49,199.92,3
209,211.44,200.01,3
209,211.39,200.10,3
209,211.35,200.19,3
209,211.30,200.28,3
209,211.25,200.36,3
209,211.21,200.45,3
208,211.14,200.52,3
208,211.08,200.60,3
207,211.00,200.66,3
209,210.96,200.75,3
207,210.88,200.81,3
207,210.80,200.87,3
207,210.73,200.93,3
207,210.65,200.99,3
206,210.56,201.04,3
206,210.47,201.09,3
205,210.36,201.13,3
205,210.25,201.17,3
205,210.15,201.21,3
205,210.04,201.25,3
204,209.92,201.27,3
204,209.80,201.30,3
205,209.71,201.34,3
204,209.59,201.36,3
205,209.50,201.40,3
203,209.37,201.42,3
204,209.27,201.44,3
203,209.14,201.46,3
203,209.02,201.47,3
203,208.90,201.49,3
203,208.78,201.50,3
203,208.66,201.52,3
199,208.47,201.49,3
201,208.32,201.49,3
202,208.19,201.49,3
202,208.07,201.50,3
202,207.95,201.50,3
201,207.81,201.50,3
201,207.67,201.49,3
201,207.54,201.49,3
200,207.39,201.47,3
201,207.26,201.47,3
200,207.12,201.46,3
200,206.97,201.44,3
199,206.81,201.42,3
199,206.66,201.39,3
199,206.51,201.37,3
199,206.35,201.34,3
197,206.17,201.30,3
197,205.98,201.26,3
197,205.80,201.22,3
197,205.63,201.17,3
197,205.46,201.13,3
197,205.29,201.09,3
196,205.10,201.04,3
196,204.92,200.99,3
196,204.74,200.94,3
195,204.55,200.88,3
196,204.38,200.83,3
195,204.19,200.77,3
195,204.00,200.71,3
195,203.82,200.66,3
195,203.65,200.60,3
194,203.45,200.54,3
195,203.29,200.48,3
193,203.08,200.40,3
193,202.88,200.33,3
194,202.70,200.27,3
194,202.53,200.20,3
194,202.36,200.14,3
193,202.17,200.07,3
197,202.07,200.04,3
193,201.88,199.97,3
193,201.71,199.90,3
192,201.51,199.82,3
192,201.32,199.74,3
192,201.14,199.67,3
192,200.95,199.59,3
192,200.77,199.51,3
192,200.60,199.44,3
190,200.39,199.34,3
190,200.18,199.25,3
189,199.96,199.15,3
189,199.74,199.05,3
189,199.52,198.95,3
189,199.31,198.85,3
189,199.10,198.75,3
186,198.84,198.62,3
189,198.65,198.52,4
187,198.41,198.41,4
189,198.22,198.32,5
188,198.02,198.21,5
187,197.80,198.10,5
187,197.58,197.99,5
187,197.37,197.88,5
187,197.16,197.77,5
187,196.96,197.66,5
185,196.72,197.54,5
185,196.49,197.41,5
186,196.28,197.30,5
186,196.07,197.18,5
185,195.85,197.06,5
185,195.63,196.94,5
185,195.42,196.82,5
184,195.19,196.69,5
184,194.97,196.57,5
183,194.73,196.43,5
183,194.50,196.30,5
184,194.29,196.17,5
184,194.08,196.05,5
183,193.86,195.92,5
183,193.64,195.79,5
182,193.41,195.65,5
183,193.20,195.53,5
181,192.96,195.38,5
181,192.72,195.24,5
181,192.48,195.10,5
181,192.25,194.96,5
181,192.03,194.82,5
180,191.79,194.67,5
180,191.55,194.52,5
179,191.30,194.37,5
180,191.07,194.22,5
179,190.83,194.07,5
179,190.60,193.92,5
178,190.34,193.76,5
182,190.18,193.64,5
178,189.93,193.49,5
177,189.68,193.32,5
177,189.42,193.16,5
177,189.17,193.00,5
177,188.93,192.84,5
178,188.71,192.69,5
176,188.46,192.52,5
177,188.23,192.37,5
177,188.00,192.21,5
176,187.76,192.05,5
175,187.51,191.88,5
175,187.26,191.71,5
175,187.01,191.54,5
175,186.77,191.38,5
175,186.54,191.21,5
174,186.29,191.04,5
175,186.06,190.88,5
173,185.80,190.70,5
173,185.54,190.53,5
173,185.29,190.35,5
174,185.07,190.19,5
173,184.83,190.02,5
173,184.59,189.85,5
172,184.34,189.67,5
173,184.11,189.50,5
172,183.87,189.32,5
171,183.61,189.14,5
172,183.38,188.97,5
171,183.13,188.79,5
171,182.89,188.61,5
171,182.65,188.44,5
171,182.42,188.26,5
170,182.17,188.08,5
171,181.95,187.91,5
169,181.69,187.72,5
169,181.43,187.53,5
169,181.18,187.35,5
169,180.94,187.16,5
169,180.70,186.98,5
169,180.47,186.80,5
168,180.22,186.61,5
168,179.97,186.43,5
169,179.75,186.25,5
168,179.52,186.07,5
167,179.27,185.88,5
168,179.04,185.70,5
167,178.80,185.51,5
167,178.57,185.33,5
167,178.34,185.15,5
167,178.11,184.96,5
165,177.85,184.77,5
166,177.61,184.58,5
165,177.36,184.38,5
166,177.13,184.20,5
167,176.93,184.03,5
165,176.69,183.84,5
165,176.46,183.65,5
165,176.23,183.46,5
165,176.00,183.28,5
165,175.78,183.09,5
165,175.57,182.91,5
164,175.33,182.72,5
164,175.11,182.54,5
164,174.89,182.35,5
163,174.65,182.16,5
164,174.44,181.98,5
163,174.21,181.79,5
164,174.00,181.61,5
163,173.78,181.42,5
163,173.57,181.24,5
163,173.36,181.06,5
164,173.17,180.88,5
162,172.95,180.70,5
162,172.73,180.51,5
161,172.49,180.31,5
161,172.26,180.12,5
161,172.04,179.93,5
161,171.82,179.74,5
159,171.56,179.53,5
161,171.35,179.35,5
161,171.14,179.16,5
160,170.92,178.97,5
160,170.70,178.78,5
160,170.49,178.60,5
159,170.26,178.40,5
160,170.05,178.22,5
160,169.85,178.03,5
159,169.63,177.84,5
161,169.46,177.67,5
159,169.25,177.49,5
159,169.05,177.30,5
159,168.85,177.12,5
158,168.63,176.93,5
160,168.46,176.76,5
158,168.25,176.57,5
157,168.02,176.38,5
157,167.80,176.18,5
157,167.59,175.99,5
157,167.37,175.80,5
157,167.17,175.61,5
157,166.96,175.43,5
157,166.76,175.24,5
157,166.57,175.06,5
157,166.38,174.88,5
155,166.15,174.68,5
156,165.95,174.49,5
155,165.73,174.30,5
155,165.51,174.11,5
155,165.30,173.91,5
154,165.08,173.72,5
155,164.88,173.53,5
155,164.68,173.34,5
155,164.48,173.16,5
154,164.27,172.97,5
153,164.05,172.77,5
154,163.85,172.58,5
153,163.63,172.38,5
154,163.44,172.20,5
153,163.23,172.01,5
153,163.03,171.82,5
153,162.82,171.63,5
153,162.63,171.44,5
153,162.44,171.26,5
153,162.25,171.08,5
152,162.04,170.89,5
152,161.84,170.70,5
154,161.68,170.53,5
152,161.49,170.35,5
152,161.30,170.16,5
152,161.11,169.98,5
152,160.93,169.80,5
153,160.77,169.63,5
152,160.60,169.46,5
152,160.43,169.28,5
151,160.24,169.10,5
152,160.07,168.93,5
151,159.89,168.75,5
151,159.71,168.57,5
151,159.54,168.40,5
150,159.35,168.21,5
151,159.18,168.04,5
152,159.04,167.88,5
151,158.88,167.71,5
151,158.72,167.54,5
151,158.57,167.38,5
151,158.41,167.21,5
151,158.27,167.05,5
151,158.12,166.89,5
154,158.04,166.76,5
151,157.90,166.60,5
151,157.76,166.45,5
150,157.60,166.28,5
151,157.47,166.13,5
149,157.30,165.96,5
149,157.14,165.79,5
151,157.01,165.64,5
151,156.89,165.50,5
149,156.74,165.33,5
151,156.62,165.19,5
149,156.47,165.03,5
150,156.34,164.88,5
149,156.19,164.72,5
149,156.05,164.56,5
149,155.91,164.40,5
149,155.77,164.25,5
149,155.63,164.10,5
148,155.48,163.94,5
149,155.35,163.79,5
148,155.20,163.63,5
149,155.08,163.48,5
147,154.92,163.32,5
148,154.78,163.16,5
148,154.65,163.01,5
147,154.49,162.85,5
147,154.34,162.69,5
147,154.20,162.54,5
147,154.05,162.38,5
147,153.91,162.23,5
148,153.79,162.09,5
147,153.66,161.94,5
147,153.52,161.79,5
146,153.37,161.63,5
147,153.25,161.48,5
146,153.10,161.33,5
145,152.94,161.16,5
145,152.78,161.00,5
145,152.62,160.84,5
146,152.49,160.69,5
145,152.34,160.54,5
145,152.20,160.38,5
146,152.07,160.24,5
145,151.93,160.09,5
145,151.79,159.93,5
145,151.66,159.79,5
145,151.52,159.64,5
145,151.39,159.49,5
144,151.24,159.34,5
144,151.10,159.18,5
144,150.96,159.03,5
144,150.82,158.88,5
144,150.68,158.73,5
144,150.55,158.58,5
144,150.42,158.44,5
143,150.27,158.28,5
144,150.14,158.14,5
145,150.04,158.01,5
144,149.92,157.87,5
145,149.82,157.74,5
143,149.68,157.59,5
143,149.55,157.45,5
143,149.42,157.30,5
143,149.29,157.16,5
143,149.17,157.02,5
144,149.06,156.89,5
143,148.94,156.75,5
143,148.82,156.61,5
143,148.71,156.48,5
141,148.55,156.32,5
143,148.44,156.19,5
142,148.31,156.05,5
142,148.19,155.91,5
141,148.04,155.76,5
141,147.90,155.61,5
141,147.76,155.46,5
141,147.63,155.32,5
141,147.50,155.18,5
141,147.37,155.03,5
141,147.24,154.89,5
141,147.11,154.75,5
141,146.99,154.62,5
142,146.89,154.49,5
140,146.75,154.35,5
140,146.62,154.20,5
140,146.49,154.06,5
140,146.36,153.92,5
141,146.25,153.79,5
140,146.12,153.65,5
140,146.00,153.52,5
139,145.86,153.37,5
139,145.72,153.23,5
139,145.59,153.08,5
140,145.48,152.95,5
140,145.37,152.82,5
139,145.24,152.69,5
139,145.12,152.55,5
139,144.99,152.41,5
139,144.87,152.28,5
140,144.78,152.16,5
139,144.66,152.03,5
139,144.55,151.89,5
137,144.40,151.75,5
139,144.29,151.62,5
140,144.20,151.50,5
139,144.10,151.38,5
139,144.00,151.25,5
138,143.88,151.12,5
138,143.76,150.99,5
137,143.62,150.85,5
135,143.45,150.69,5
137,143.32,150.55,5
137,143.20,150.42,5
137,143.07,150.28,5
139,142.99,150.17,5
137,142.87,150.04,5
137,142.75,149.91,5
137,142.64,149.78,5
137,142.53,149.65,5
137,142.42,149.53,5
137,142.31,149.40,5
136,142.18,149.27,5
136,142.06,149.13,5
136,141.94,149.00,5
136,141.82,148.87,5
136,141.70,148.74,5
134,141.55,148.60,5
135,141.42,148.46,5
135,141.29,148.33,5
135,141.16,148.19,5
135,141.04,148.06,5
136,140.94,147.94,5
135,140.82,147.81,5
135,140.70,147.68,5
133,140.55,147.54,5
134,140.42,147.40,5
135,140.31,147.28,5
134,140.18,147.14,5
133,140.04,147.00,5
133,139.90,146.86,5
133,139.76,146.72,5
133,139.63,146.59,5
133,139.49,146.45,5
133,139.36,146.32,5
134,139.26,146.19,5
133,139.13,146.06,5
135,139.05,145.95,5
135,138.97,145.84,5
134,138.87,145.72,5
137,138.83,145.64,5
133,138.71,145.51,5
133,138.60,145.38,5
133,138.49,145.26,5
133,138.38,145.14,5
133,138.27,145.02,5
133,138.17,144.90,5
133,138.06,144.78,5
133,137.96,144.66,5
131,137.82,144.52,5
133,137.73,144.41,5
133,137.63,144.29,5
132,137.52,144.17,5
133,137.43,144.06,5
133,137.34,143.95,5
133,137.25,143.84,5
132,137.15,143.72,5
133,137.06,143.61,5
133,136.98,143.51,5
133,136.90,143.40,5
133,136.83,143.30,5
133,136.75,143.19,5
133,136.67,143.09,5
132,136.58,142.98,5
132,136.49,142.87,5
133,136.42,142.77,5
131,136.31,142.66,5
132,136.22,142.55,5
132,136.14,142.44,5
132,136.06,142.34,5
130,135.94,142.22,5
132,135.86,142.11,5
131,135.76,142.00,5
131,135.66,141.89,5
129,135.53,141.76,5
130,135.42,141.65,5
131,135.33,141.54,5
131,135.25,141.43,5
130,135.14,141.32,5
131,135.06,141.22,5
131,134.98,141.11,5
129,134.86,140.99,5
129,134.74,140.87,5
130,134.65,140.76,5
130,134.55,140.66,5
130,134.46,140.55,5
129,134.35,140.44,5
129,134.25,140.32,5
131,134.18,140.23,5
129,134.08,140.12,5
129,133.98,140.00,5
129,133.88,139.89,5
130,133.80,139.80,5
131,133.74,139.71,5
129,133.65,139.60,5
127,133.51,139.47,5
129,133.42,139.37,5
129,133.34,139.27,5
129,133.25,139.16,5
129,133.16,139.06,5
129,133.08,138.96,5
129,133.00,138.86,5
129,132.92,138.76,5
129,132.84,138.66,5
128,132.74,138.56,5
129,132.67,138.46,5
128,132.58,138.36,5
129,132.50,138.26,5
128,132.41,138.16,5
128,132.33,138.06,5
128,132.24,137.96,5
128,132.15,137.86,5
128,132.07,137.76,5
127,131.97,137.65,5
127,131.87,137.55,5
128,131.79,137.45,5
127,131.70,137.35,5
127,131.60,137.24,5
127,131.51,137.14,5
127,131.42,137.04,5
127,131.33,136.94,5
126,131.23,136.83,5
125,131.10,136.71,5
125,130.98,136.59,5
126,130.88,136.49,5
126,130.78,136.38,5
127,130.71,136.29,5
125,130.59,136.18,5
125,130.48,136.07,5
125,130.37,135.95,5
125,130.26,135.85,5
126,130.18,135.75,5
126,130.09,135.65,5
125,129.99,135.54,5
125,129.89,135.44,5
125,129.80,135.33,5
125,129.70,135.23,5
125,129.61,135.13,5
125,129.51,135.03,5
125,129.42,134.93,5
125,129.33,134.83,5
124,129.23,134.72,5
124,129.12,134.61,5
124,129.02,134.50,5
125,128.94,134.41,5
125,128.86,134.32,5
124,128.76,134.21,5
123,128.65,134.10,5
125,128.58,134.01,5
124,128.48,133.91,5
123,128.37,133.80,5
123,128.27,133.69,5
124,128.18,133.60,5
123,128.08,133.49,5
123,127.98,133.38,5
123,127.88,133.28,5
123,127.78,133.18,5
123,127.68,133.08,5
124,127.61,132.99,5
123,127.52,132.89,5
123,127.43,132.79,5
121,127.30,132.67,5
122,127.19,132.56,5
123,127.11,132.47,5
124,127.05,132.38,5
123,126.97,132.29,5
122,126.87,132.19,5
123,126.79,132.09,5
122,126.69,131.99,5
123,126.62,131.90,5
122,126.53,131.80,5
124,126.48,131.73,5
122,126.39,131.63,5
122,126.30,131.53,5
121,126.19,131.43,5
123,126.13,131.34,5
121,126.03,131.24,5
121,125.93,131.14,5
121,125.83,131.04,5
121,125.73,130.93,5
121,125.64,130.84,5
121,125.54,130.74,5
121,125.45,130.64,5
121,125.36,130.54,5
121,125.28,130.45,5
121,125.19,130.35,5
121,125.11,130.26,5
120,125.01,130.16,5
120,124.91,130.06,5
124,124.89,130.00,5
120,124.79,129.90,5
120,124.69,129.80,5
121,124.62,129.71,5
119,124.51,129.60,5
119,124.40,129.50,5
120,124.31,129.40,5
120,124.22,129.31,5
119,124.12,129.20,5
119,124.02,129.10,5
119,123.92,129.00,5
118,123.80,128.89,5
119,123.70,128.79,5
119,123.61,128.69,5
119,123.52,128.60,5
119,123.43,128.50,5
116,123.28,128.38,5
118,123.17,128.27,5
119,123.09,128.18,5
117,122.97,128.07,5
118,122.87,127.97,5
118,122.77,127.87,5
118,122.67,127.77,5
118,122.58,127.67,5
119,122.51,127.58,5
117,122.40,127.48,5
117,122.29,127.37,5
117,122.18,127.27,5
117,122.08,127.17,5
117,121.98,127.07,5
117,121.88,126.96,5
117,121.78,126.86,5
117,121.69,126.77,5
117,121.59,126.67,5
117,121.50,126.57,5
117,121.41,126.48,5
117,121.32,126.38,5
117,121.24,126.29,5
117,121.15,126.19,5
117,121.07,126.10,5
117,120.99,126.01,5
117,120.91,125.92,5
116,120.81,125.82,5
116,120.71,125.72,5
116,120.62,125.63,5
116,120.53,125.53,5
115,120.42,125.43,5
115,120.31,125.32,5
116,120.22,125.23,5
115,120.12,125.13,5
115,120.01,125.02,5
115,119.91,124.92,5
116,119.84,124.83,5
115,119.74,124.74,5
115,119.64,124.64,5
115,119.55,124.54,5
116,119.48,124.46,5
115,119.39,124.36,5
115,119.30,124.27,5
115,119.22,124.18,5
115,119.13,124.08,5
115,119.05,123.99,5
115,118.97,123.90,5
115,118.89,123.81,5
114,118.79,123.72,5
115,118.72,123.63,5
114,118.62,123.53,5
114,118.53,123.44,5
113,118.42,123.33,5
113,118.31,123.23,5
113,118.20,123.13,5
113,118.10,123.03,5
113,118.00,122.93,5
115,117.94,122.85,5
113,117.84,122.75,5
113,117.74,122.65,5
113,117.65,122.55,5
113,117.56,122.46,5
114,117.48,122.37,5
113,117.39,122.28,5
113,117.31,122.19,5
113,117.22,122.10,5
113,117.14,122.01,5
113,117.05,121.91,5
113,116.97,121.83,5
112,116.87,121.73,5
113,116.80,121.64,5
113,116.72,121.55,5
113,116.64,121.47,5
113,116.57,121.38,5
113,116.50,121.30,5
112,116.41,121.21,5
112,116.32,121.11,5
111,116.22,121.01,5
114,116.17,120.94,5
113,116.11,120.86,5
111,116.01,120.77,5
111,115.91,120.67,5
111,115.81,120.57,5
112,115.73,120.49,5
111,115.64,120.39,5
114,115.60,120.33,5
111,115.51,120.23,5
111,115.42,120.14,5
111,115.33,120.05,5
113,115.29,119.98,5
111,115.20,119.89,5
111,115.12,119.80,5
111,115.03,119.71,5
111,114.95,119.63,5
109,114.83,119.52,5
111,114.76,119.43,5
111,114.68,119.35,5
110,114.59,119.26,5
111,114.52,119.17,5
111,114.45,119.09,5
109,114.34,118.99,5
109,114.23,118.89,5
111,114.17,118.81,5
111,114.10,118.73,5
111,114.04,118.66,5
109,113.94,118.56,5
111,113.88,118.48,5
109,113.78,118.39,5
109,113.69,118.30,5
109,113.59,118.20,5
109,113.50,118.11,5
110,113.43,118.03,5
109,113.34,117.94,5
109,113.26,117.85,5
109,113.17,117.76,5
109,113.09,117.67,5
109,113.01,117.59,5
109,112.93,117.50,5
109,112.85,117.42,5
109,112.77,117.33,5
109,112.70,117.25,5
108,112.60,117.16,5
109,112.53,117.07,5
109,112.46,116.99,5
108,112.37,116.90,5
108,112.28,116.81,5
109,112.22,116.74,5
107,112.11,116.64,5
108,112.03,116.55,5
108,111.95,116.47,5
108,111.87,116.38,5
107,111.77,116.29,5
109,111.72,116.22,5
108,111.64,116.13,5
108,111.57,116.05,5
107,111.48,115.96,5
108,111.41,115.88,5
108,111.34,115.80,5
107,111.25,115.72,5
107,111.17,115.63,5
108,111.11,115.55,5
108,111.04,115.48,5
107,110.96,115.39,5
107,110.88,115.31,5
109,110.85,115.24,5
107,110.77,115.16,5
107,110.69,115.08,5
107,110.62,115.00,5
107,110.55,114.92,5
108,110.50,114.85,5
107,110.43,114.77,5
107,110.36,114.69,5
107,110.29,114.62,5
107,110.23,114.54,5
108,110.18,114.48,5
107,110.12,114.40,5
107,110.05,114.33,5
105,109.95,114.23,5
105,109.85,114.14,5
106,109.78,114.06,5
106,109.70,113.98,5
107,109.65,113.91,5
105,109.56,113.82,5
105,109.46,113.73,5
105,109.37,113.65,5
105,109.29,113.56,5
106,109.22,113.48,5
106,109.16,113.41,5
105,109.07,113.32,5
105,108.99,113.24,5
106,108.93,113.17,5
105,108.85,113.09,5
105,108.78,113.01,5
106,108.72,112.94,5
105,108.65,112.86,5
105,108.57,112.78,5
106,108.52,112.71,5
105,108.45,112.63,5
104,108.36,112.55,5
105,108.30,112.47,5
105,108.23,112.40,5
105,108.17,112.32,5
105,108.10,112.25,5
106,108.06,112.19,5
104,107.98,112.11,5
104,107.90,112.02,5
104,107.82,111.94,5
105,107.76,111.87,5
103,107.67,111.79,5
104,107.60,111.71,5
104,107.52,111.63,5
105,107.47,111.56,5
104,107.40,111.49,5
104,107.34,111.41,5
104,107.27,111.34,5
104,107.20,111.27,5
103,107.12,111.18,5
104,107.06,111.11,5
104,107.00,111.04,5
104,106.94,110.97,5
104,106.88,110.90,5
103,106.80,110.82,5
103,106.72,110.74,5
103,106.65,110.67,5
104,106.60,110.60,5
104,106.54,110.53,5
103,106.47,110.46,5
103,106.40,110.38,5
104,106.36,110.32,5
103,106.29,110.25,5
103,106.22,110.17,5
103,106.16,110.10,5
103,106.10,110.03,5
101,105.99,109.94,5
103,105.93,109.87,5
104,105.90,109.81,5
103,105.84,109.74,5
103,105.78,109.68,5
103,105.73,109.61,5
104,105.69,109.55,5
103,105.64,109.49,5
103,105.58,109.42,5
103,105.53,109.36,5
103,105.48,109.30,5
103,105.43,109.23,5
103,105.38,109.17,5
103,105.34,109.11,5
106,105.35,109.08,5
103,105.30,109.02,5
103,105.26,108.96,5
103,105.21,108.90,5
103,105.17,108.84,5
103,105.12,108.78,5
102,105.06,108.71,5
103,105.02,108.66,5
103,104.98,108.60,5
103,104.94,108.54,5
102,104.88,108.48,5
103,104.84,108.42,5
103,104.81,108.37,5
103,104.77,108.31,5
102,104.71,108.25,5
103,104.68,108.20,5
99,104.57,108.11,5
102,104.52,108.05,5
102,104.47,107.99,5
102,104.42,107.93,5
103,104.39,107.88,5
101,104.32,107.81,5
101,104.25,107.74,5
102,104.21,107.68,5
102,104.16,107.63,5
101,104.10,107.56,5
102,104.06,107.50,5
101,104.00,107.44,5
103,103.98,107.39,5
101,103.92,107.33,5
103,103.90,107.29,5
103,103.88,107.24,5
103,103.86,107.20,5
102,103.83,107.15,5
101,103.77,107.09,5
103,103.76,107.05,5
101,103.70,106.99,5
101,103.65,106.93,5
101,103.59,106.87,5
97,103.46,106.77,5
102,103.43,106.72,5
101,103.38,106.66,5
102,103.36,106.62,5
101,103.31,106.56,5
101,103.26,106.51,5
101,103.22,106.45,5
101,103.17,106.40,5
101,103.13,106.34,5
101,103.09,106.29,5
101,103.05,106.24,5
100,102.98,106.17,5
101,102.94,106.12,5
99,102.87,106.05,5
100,102.81,105.99,5
100,102.75,105.93,5
99,102.68,105.86,5
99,102.60,105.79,5
99,102.53,105.72,5
99,102.46,105.66,5
100,102.41,105.60,5
100,102.36,105.54,5
99,102.30,105.48,5
100,102.25,105.42,5
100,102.21,105.37,5
99,102.14,105.31,5
101,102.12,105.26,5
99,102.06,105.20,5
100,102.01,105.15,5
99,101.95,105.09,5
100,101.92,105.04,5
99,101.86,104.98,5
101,101.84,104.94,5
100,101.80,104.89,5
99,101.75,104.83,5
100,101.71,104.78,5
100,101.68,104.73,5
100,101.64,104.68,5
99,101.59,104.63,5
100,101.56,104.58,5
99,101.51,104.53,5
99,101.46,104.47,5
100,101.43,104.43,5
100,101.40,104.38,5
99,101.35,104.33,5
99,101.31,104.27,5
99,101.26,104.22,5
100,101.23,104.18,5
100,101.21,104.14,5
99,101.17,104.09,5
100,101.14,104.05,5
100,101.12,104.00,5
101,101.12,103.97,5
101,101.11,103.94,5
101,101.11,103.92,5
101,101.11,103.89,5
102,101.13,103.87,5
102,101.15,103.85,5
102,101.16,103.83,5
103,101.20,103.82,5
102,101.22,103.80,5
103,101.25,103.80,5
101,101.25,103.77,5
102,101.26,103.75,5
101,101.26,103.72,5
102,101.27,103.71,5
103,101.31,103.70,5
103,101.34,103.69,5
102,101.35,103.67,5
102,101.37,103.66,5
103,101.40,103.65,5
103,101.43,103.64,5
103,101.46,103.64,5
102,101.47,103.62,5
103,101.50,103.62,5
102,101.51,103.60,5
103,101.54,103.59,5
102,101.55,103.58,5
103,101.58,103.57,5
102,101.59,103.56,5
102,101.60,103.54,5
103,101.63,103.53,5
103,101.65,103.53,5
102,101.66,103.51,5
103,101.69,103.51,5
103,101.71,103.50,5
103,101.74,103.50,5
101,101.72,103.47,5
101,101.71,103.45,5
102,101.72,103.43,5
102,101.72,103.42,5
101,101.71,103.40,5
102,101.71,103.38,5
102,101.72,103.37,5
102,101.72,103.35,5
102,101.73,103.34,5
101,101.71,103.32,5
102,101.72,103.30,5
102,101.73,103.29,5
103,101.75,103.29,5
103,101.78,103.29,5
103,101.80,103.28,5
103,101.82,103.28,5
103,101.85,103.28,5
103,101.87,103.27,5
102,101.87,103.26,5
102,101.88,103.25,5
102,101.88,103.24,5
102,101.88,103.22,5
101,101.86,103.20,5
101,101.85,103.18,5
102,101.85,103.17,5
102,101.85,103.16,5
102,101.86,103.14,5
103,101.88,103.14,5
103,101.90,103.14,5
103,101.92,103.14,5
101,101.90,103.12,5
103,101.93,103.12,5
102,101.93,103.11,5
102,101.93,103.10,5
103,101.95,103.09,5
102,101.95,103.08,5
101,101.93,103.06,5
101,101.91,103.04,5
101,101.90,103.02,5
101,101.88,103.00,5
105,101.94,103.02,5
103,101.96,103.02,5
103,101.98,103.02,5
103,102.00,103.02,5
104,102.04,103.03,5
103,102.06,103.03,5
103,102.08,103.03,5
103,102.10,103.03,5
103,102.12,103.03,5
104,102.15,103.04,5
103,102.17,103.04,5
104,102.21,103.05,5
104,102.24,103.06,5
104,102.28,103.07,5
104,102.31,103.08,5
104,102.35,103.09,5
101,102.32,103.07,5
103,102.33,103.06,5
103,102.35,103.06,5
104,102.38,103.07,5
102,102.37,103.06,5
103,102.39,103.06,5
103,102.40,103.06,5
104,102.43,103.07,5
104,102.46,103.08,5
104,102.49,103.09,5
105,102.54,103.11,5
104,102.57,103.12,5
105,102.62,103.14,5
105,102.67,103.15,5
106,102.73,103.18,5
105,102.78,103.20,5
105,102.82,103.22,5
106,102.89,103.25,5
107,102.97,103.28,5
107,103.05,103.32,5
108,103.15,103.37,5
107,103.23,103.40,5
109,103.34,103.46,5
108,103.43,103.51,5
107,103.51,103.54,5
109,103.62,103.60,5
108,103.70,103.64,5
108,103.79,103.68,5
108,103.87,103.73,5
109,103.98,103.78,5
109,104.08,103.83,5
109,104.18,103.88,5
109,104.27,103.93,5
110,104.39,104.00,5
110,104.50,104.06,5
111,104.63,104.12,5
110,104.74,104.18,5
109,104.82,104.23,5
109,104.90,104.28,5
113,105.07,104.37,5
109,105.15,104.41,5
110,105.24,104.47,5
111,105.36,104.53,5
111,105.47,104.60,5
111,105.58,104.66,5
111,105.69,104.73,5
109,105.76,104.77,5
111,105.86,104.83,5
111,105.96,104.89,5
111,106.06,104.95,5
111,106.16,105.01,5
111,106.26,105.07,5
113,106.39,105.15,5
112,106.51,105.22,5
113,106.64,105.30,5
112,106.74,105.37,5
113,106.87,105.44,5
113,106.99,105.52,5
115,107.15,105.61,5
115,107.31,105.71,5
116,107.48,105.81,5
115,107.63,105.90,5
115,107.78,105.99,5
116,107.94,106.09,5
115,108.09,106.18,5
116,108.24,106.28,5
116,108.40,106.38,5
117,108.57,106.48,5
115,108.70,106.57,5
116,108.85,106.66,5
116,108.99,106.76,5
116,109.13,106.85,5
117,109.29,106.95,5
117,109.44,107.05,5
115,109.55,107.13,5
118,109.72,107.24,5
117,109.87,107.34,5
117,110.01,107.43,5
117,110.15,107.53,5
117,110.29,107.62,5
119,110.46,107.74,5
119,110.63,107.85,5
119,110.80,107.96,5
119,110.96,108.07,5
119,111.12,108.18,5
119,111.28,108.29,5
120,111.46,108.41,5
119,111.61,108.51,5
119,111.75,108.62,5
120,111.92,108.73,5
120,112.08,108.84,5
119,112.22,108.95,5
121,112.39,109.07,5
120,112.55,109.18,5
119,112.68,109.27,5
121,112.84,109.39,5
121,113.01,109.51,5
121,113.17,109.62,5
120,113.30,109.73,5
121,113.46,109.84,5
121,113.61,109.95,5
121,113.75,110.06,5
121,113.90,110.17,5
121,114.04,110.28,5
121,114.18,110.39,5
122,114.34,110.50,5
121,114.47,110.61,5
123,114.64,110.73,5
121,114.77,110.83,5
123,114.93,110.95,5
123,115.09,111.08,5
123,115.25,111.19,5
124,115.43,111.32,5
125,115.62,111.46,5
127,115.85,111.61,5
127,116.07,111.77,5
127,116.29,111.92,5
129,116.54,112.09,5
131,116.83,112.28,5
131,117.11,112.47,5
133,117.43,112.67,5
133,117.74,112.88,5
135,118.09,113.10,5
136,118.45,113.33,5
136,118.80,113.55,5
137,119.16,113.79,5
137,119.52,114.02,5
137,119.87,114.25,5
141,120.29,114.52,5
143,120.75,114.80,5
145,121.23,115.10,5
147,121.75,115.42,5
145,122.21,115.72,5
151,122.79,116.07,5
147,123.27,116.38,5
149,123.79,116.71,5
147,124.25,117.01,5
149,124.74,117.33,5
149,125.23,117.65,5
150,125.73,117.97,5
149,126.19,118.28,5
149,126.65,118.59,5
149,127.09,118.89,5
149,127.53,119.19,5
149,127.96,119.49,5
149,128.38,119.79,5
149,128.79,120.08,5
148,129.18,120.36,5
149,129.58,120.64,5
150,129.98,120.94,5
153,130.44,121.26,5
153,130.90,121.58,5
155,131.38,121.91,5
154,131.83,122.23,5
153,132.25,122.54,5
154,132.69,122.85,5
154,133.11,123.16,5
155,133.55,123.48,5
157,134.02,123.82,5
157,134.48,124.15,5
160,134.99,124.51,5
161,135.51,124.87,5
165,136.10,125.27,5
164,136.66,125.66,5
166,137.25,126.07,5
168,137.86,126.48,5
169,138.48,126.91,5
169,139.09,127.33,5
169,139.69,127.75,5
169,140.28,128.16,5
169,140.85,128.57,5
169,141.42,128.97,5
171,142.01,129.39,5
169,142.55,129.79,5
169,143.08,130.18,5
171,143.63,130.59,5
171,144.18,130.99,5
171,144.72,131.39,5
172,145.26,131.80,5
171,145.78,132.19,5
171,146.28,132.58,5
172,146.80,132.97,5
171,147.28,133.35,5
171,147.76,133.73,5
172,148.24,134.11,5
171,148.70,134.48,5
171,149.14,134.85,5
171,149.58,135.21,5
175,150.09,135.61,5
173,150.55,135.98,5
173,151.00,136.35,5
173,151.44,136.72,5
173,151.87,137.08,5
175,152.33,137.46,5
175,152.78,137.83,5
177,153.27,138.23,5
176,153.72,138.60,5
175,154.15,138.97,5
175,154.56,139.33,5
175,154.97,139.69,5
175,155.37,140.04,5
175,155.77,140.39,5
177,156.19,140.75,5
177,156.61,141.12,5
177,157.01,141.48,5
180,157.47,141.86,5
180,157.92,142.24,5
180,158.37,142.62,5
180,158.80,142.99,5
179,159.20,143.35,5
179,159.60,143.71,5
184,160.09,144.11,5
181,160.51,144.48,5
181,160.92,144.85,5
181,161.32,145.21,5
182,161.73,145.58,5
184,162.18,145.96,5
184,162.61,146.34,5
184,163.04,146.72,5
183,163.44,147.08,5
184,163.85,147.45,5
183,164.23,147.81,5
184,164.63,148.17,5
183,165.00,148.52,5
184,165.38,148.87,5
185,165.77,149.23,5
185,166.15,149.59,5
186,166.55,149.95,5
189,167.00,150.34,5
189,167.44,150.73,5
189,167.87,151.11,5
189,168.29,151.49,5
189,168.71,151.87,5
192,169.17,152.27,5
191,169.61,152.66,5
193,170.08,153.06,5
194,170.56,153.47,5
195,171.05,153.88,5
194,171.50,154.29,5
196,171.99,154.70,5
197,172.49,155.13,5
198,173.00,155.55,5
199,173.52,155.99,5
199,174.03,156.42,5
199,174.53,156.84,5
200,175.04,157.28,5
199,175.52,157.69,5
199,175.99,158.11,5
199,176.45,158.52,5
199,176.90,158.92,5
199,177.34,159.32,5
199,177.78,159.72,5
200,178.22,160.12,5
200,178.66,160.52,5
200,179.08,160.91,5
199,179.48,161.29,5
200,179.89,161.68,5
199,180.28,162.06,5
200,180.67,162.43,5
199,181.04,162.80,5
200,181.42,163.17,5
199,181.77,163.53,5
199,182.11,163.89,5
199,182.45,164.24,5
199,182.78,164.58,5
201,183.14,164.95,5
200,183.48,165.30,5
200,183.81,165.65,5
201,184.16,166.00,5
203,184.53,166.37,5
202,184.88,166.73,5
204,185.26,167.10,5
203,185.62,167.46,5
203,185.97,167.81,5
203,186.31,168.16,5
203,186.64,168.51,5
203,186.97,168.86,5
204,187.31,169.21,5
203,187.62,169.55,5
203,187.93,169.88,5
204,188.25,170.22,5
204,188.57,170.56,5
203,188.86,170.89,5
204,189.16,171.22,5
204,189.46,171.54,5
203,189.73,171.86,5
204,190.01,172.18,5
203,190.27,172.49,5
204,190.55,172.80,5
203,190.80,173.11,5
205,191.08,173.42,5
203,191.32,173.72,5
205,191.59,174.03,5
203,191.82,174.32,5
204,192.06,174.62,5
204,192.30,174.91,5
203,192.52,175.19,5
204,192.75,175.48,5
202,192.93,175.75,5
203,193.13,176.02,5
203,193.33,176.29,5
202,193.50,176.55,5
203,193.69,176.81,5
203,193.88,177.07,5
202,194.04,177.32,5
202,194.20,177.57,5
202,194.36,177.81,5
202,194.51,178.06,5
202,194.66,178.29,5
202,194.81,178.53,5
203,194.97,178.78,5
204,195.15,179.03,5
203,195.31,179.27,5
203,195.46,179.51,5
203,195.61,179.74,5
204,195.78,179.98,5
201,195.88,180.19,5
201,195.99,180.40,5
201,196.09,180.61,5
201,196.19,180.81,5
201,196.28,181.01,5
201,196.38,181.21,5
201,196.47,181.41,5
201,196.56,181.61,5
201,196.65,181.80,5
200,196.71,181.98,5
200,196.78,182.16,5
200,196.84,182.34,5
203,196.97,182.55,5
200,197.03,182.72,5
199,197.07,182.89,5
200,197.13,183.06,5
201,197.20,183.24,5
200,197.26,183.40,5
199,197.29,183.56,5
199,197.33,183.71,5
199,197.36,183.87,5
199,197.40,184.02,5
199,197.43,184.17,5
199,197.46,184.32,5
198,197.47,184.45,5
199,197.50,184.60,5
197,197.49,184.72,5
197,197.48,184.85,5
197,197.47,184.97,5
197,197.46,185.09,5
197,197.45,185.21,5
198,197.46,185.33,5
197,197.45,185.45,5
198,197.46,185.58,5
197,197.46,185.69,5
197,197.45,185.80,5
197,197.44,185.92,5
197,197.43,186.03,5
197,197.42,186.14,5
195,197.37,186.22,5
196,197.34,186.32,5
195,197.30,186.41,5
195,197.25,186.50,5
195,197.21,186.58,5
195,197.16,186.66,5
195,197.12,186.75,5
194,197.06,186.82,5
194,197.00,186.89,5
195,196.96,186.97,5
193,196.88,187.03,5
193,196.80,187.09,5
193,196.72,187.15,5
193,196.65,187.21,5
193,196.58,187.27,5
192,196.48,187.32,5
193,196.41,187.37,5
193,196.35,187.43,5
193,196.28,187.48,5
191,196.17,187.52,5
193,196.11,187.57,5
192,196.03,187.62,5
193,195.97,187.67,5
191,195.87,187.71,5
193,195.81,187.76,5
192,195.73,187.80,5
192,195.66,187.84,5
192,195.59,187.89,5
191,195.49,187.92,5
189,195.37,187.93,5
190,195.26,187.95,5
190,195.15,187.97,5
189,195.03,187.98,5
189,194.91,187.99,5
189,194.79,188.00,5
189,194.67,188.01,5
189,194.56,188.02,5
189,194.45,188.03,5
188,194.32,188.03,5
188,194.19,188.03,5
188,194.07,188.03,5
188,193.95,188.03,5
187,193.81,188.02,5
186,193.65,188.00,5
186,193.50,187.98,5
185,193.33,187.95,5
185,193.16,187.92,5
185,193.00,187.89,5
185,192.84,187.86,5
185,192.68,187.83,5
185,192.53,187.80,5
185,192.38,187.77,5
185,192.23,187.75,5
184,192.07,187.71,5
184,191.91,187.67,5
184,191.75,187.64,5
184,191.59,187.60,5
183,191.42,187.55,5
183,191.25,187.51,5
183,191.09,187.46,5
183,190.93,187.42,5
181,190.73,187.35,5
183,190.57,187.31,5
182,190.40,187.26,5
183,190.25,187.21,5
183,190.11,187.17,5
182,189.95,187.12,5
182,189.79,187.07,5
181,189.61,187.01,5
182,189.46,186.96,5
182,189.31,186.91,5
183,189.18,186.87,5
181,189.02,186.81,5
181,188.86,186.75,5
180,188.68,186.69,5
181,188.53,186.63,5
180,188.36,186.56,5
179,188.17,186.49,5
180,188.01,186.42,5
179,187.83,186.35,5
179,187.65,186.27,5
180,187.50,186.21,5
179,187.33,186.14,5
179,187.16,186.07,5
179,187.00,186.00,5
178,186.82,185.92,5
179,186.66,185.85,5
177,186.47,185.76,5
177,186.28,185.67,5
177,186.09,185.59,5
177,185.91,185.50,5
177,185.73,185.41,5
176,185.54,185.32,5
176,185.35,185.23,6
175,185.14,185.13,6
175,184.94,185.02,7
177,184.78,184.94,7
175,184.58,184.84,7
175,184.39,184.75,7
175,184.20,184.65,7
174,184.00,184.54,7
175,183.82,184.45,7
174,183.62,184.34,7
174,183.43,184.24,7
173,183.22,184.13,7
173,183.02,184.02,7
171,182.78,183.88,7
173,182.58,183.78,7
173,182.39,183.67,7
174,182.22,183.57,7
173,182.04,183.47,7
173,181.86,183.36,7
171,181.64,183.24,7
173,181.47,183.14,7
172,181.28,183.02,7
171,181.07,182.90,7
172,180.89,182.79,7
171,180.69,182.68,7
171,180.50,182.56,7
170,180.29,182.43,7
170,180.08,182.31,7
170,179.88,182.19,7
169,179.66,182.06,7
170,179.47,181.93,7
169,179.26,181.81,7
169,179.06,181.68,7
169,178.86,181.55,7
169,178.66,181.42,7
169,178.47,181.30,7
169,178.28,181.18,7
169,178.09,181.06,7
172,177.97,180.97,7
168,177.77,180.84,7
168,177.57,180.71,7
167,177.36,180.57,7
168,177.18,180.44,7
167,176.97,180.31,7
167,176.77,180.18,7
167,176.58,180.05,7
167,176.39,179.91,7
166,176.18,179.78,7
167,175.99,179.65,7
166,175.79,179.51,7
166,175.60,179.38,7
165,175.39,179.23,7
167,175.22,179.11,7
165,175.01,178.97,7
166,174.83,178.84,7
165,174.64,178.70,7
165,174.44,178.56,7
165,174.26,178.43,7
164,174.05,178.28,7
164,173.85,178.14,7
163,173.63,177.99,7
164,173.44,177.85,7
163,173.23,177.70,7
164,173.05,177.56,7
163,172.85,177.42,7
164,172.67,177.28,7
162,172.46,177.13,7
163,172.27,176.99,7
163,172.08,176.85,7
162,171.88,176.70,7
162,171.68,176.55,7
161,171.47,176.40,7
161,171.26,176.25,7
161,171.05,176.09,7
162,170.87,175.95,7
161,170.68,175.80,7
159,170.44,175.63,7
160,170.23,175.48,7
160,170.03,175.32,7
160,169.83,175.17,7
160,169.63,175.02,7
159,169.42,174.86,7
160,169.23,174.71,7
159,169.03,174.55,7
159,168.82,174.40,7
159,168.63,174.24,7
159,168.44,174.09,7
159,168.25,173.94,7
157,168.02,173.77,7
157,167.80,173.60,7
158,167.61,173.45,7
157,167.39,173.28,7
157,167.19,173.12,7
157,166.98,172.96,7
157,166.78,172.80,7
157,166.59,172.64,7
157,166.39,172.48,7
157,166.21,172.33,7
156,166.00,172.17,7
156,165.80,172.00,7
156,165.61,171.84,7
157,165.43,171.70,7
155,165.23,171.53,7
156,165.04,171.37,7
155,164.84,171.21,7
154,164.62,171.04,7
155,164.43,170.88,7
154,164.22,170.71,7
154,164.02,170.54,7
154,163.82,170.38,7
153,163.60,170.20,7
153,163.39,170.03,7
154,163.20,169.87,7
153,163.00,169.70,7
153,162.80,169.53,7
153,162.60,169.37,7
153,162.41,169.21,7
152,162.20,169.03,7
153,162.02,168.87,7
152,161.82,168.70,7
152,161.62,168.54,7
152,161.43,168.37,7
151,161.22,168.20,7
151,161.02,168.03,7
152,160.84,167.87,7
151,160.64,167.70,7
151,160.45,167.53,7
149,160.22,167.34,7
151,160.03,167.18,7
151,159.85,167.02,7
150,159.65,166.85,7
149,159.44,166.67,7
149,159.23,166.49,7
149,159.03,166.32,7
149,158.83,166.15,7
149,158.63,165.97,7
149,158.44,165.80,7
149,158.25,165.64,7
149,158.06,165.47,7
148,157.86,165.30,7
148,157.67,165.12,7
149,157.49,164.96,7
148,157.30,164.79,7
147,157.10,164.61,7
148,156.91,164.45,7
147,156.72,164.27,7
147,156.52,164.10,7
147,156.33,163.93,7
145,156.11,163.74,7
146,155.90,163.56,7
145,155.69,163.38,7
145,155.47,163.19,7
147,155.30,163.03,7
145,155.10,162.85,7
145,154.89,162.67,7
145,154.70,162.50,7
147,154.54,162.34,7
145,154.35,162.17,7
145,154.16,162.00,7
145,153.98,161.83,7
145,153.80,161.66,7
143,153.59,161.47,7
144,153.39,161.30,7
145,153.23,161.13,7
145,153.06,160.97,7
145,152.90,160.81,7
144,152.72,160.64,7
145,152.57,160.49,7
144,152.40,160.32,7
144,152.23,160.16,7
144,152.06,160.00,7
143,151.88,159.83,7
143,151.70,159.66,7
144,151.55,159.50,7
143,151.38,159.34,7
142,151.19,159.17,7
141,150.99,158.98,7
143,150.83,158.82,7
143,150.67,158.67,7
143,150.52,158.51,7
143,150.37,158.35,7
142,150.20,158.19,7
141,150.02,158.02,7
141,149.84,157.85,7
143,149.70,157.70,7
142,149.55,157.54,7
142,149.39,157.39,7
145,149.31,157.26,7
142,149.16,157.11,7
141,149.00,156.95,7
141,148.84,156.79,7
141,148.68,156.63,7
141,148.53,156.48,7
141,148.38,156.32,7
140,148.21,156.16,7
140,148.05,156.00,7
140,147.88,155.84,7
140,147.73,155.68,7
139,147.55,155.51,7
140,147.40,155.36,7
139,147.23,155.19,7
140,147.09,155.04,7
140,146.95,154.89,7
140,146.81,154.74,7
139,146.65,154.58,7
140,146.52,154.44,7
139,146.37,154.28,7
140,146.24,154.14,7
137,146.06,153.97,7
138,145.89,153.81,7
139,145.76,153.66,7
138,145.60,153.50,7
139,145.47,153.36,7
138,145.32,153.21,7
138,145.17,153.05,7
137,145.01,152.89,7
139,144.89,152.75,7
138,144.75,152.61,7
138,144.62,152.46,7
138,144.49,152.32,7
137,144.34,152.16,7
137,144.19,152.01,7
137,144.04,151.86,7
137,143.90,151.71,7
137,143.77,151.57,7
137,143.63,151.42,7
137,143.50,151.28,7
137,143.37,151.13,7
137,143.24,150.99,7
137,143.12,150.85,7
137,142.99,150.71,7
137,142.87,150.58,7
137,142.76,150.44,7
137,142.64,150.31,7
137,142.53,150.17,7
137,142.42,150.04,7
136,142.29,149.90,7
137,142.18,149.77,7
135,142.04,149.62,7
137,141.94,149.50,7
135,141.80,149.35,7
134,141.64,149.20,7
135,141.51,149.06,7
136,141.40,148.93,7
135,141.27,148.79,7
135,141.15,148.65,7
135,141.02,148.51,7
135,140.90,148.38,7
136,140.81,148.25,7
135,140.69,148.12,7
136,140.60,148.00,7
135,140.48,147.87,7
135,140.37,147.74,7
135,140.27,147.61,7
136,140.18,147.50,7
135,140.08,147.37,7
135,139.98,147.25,7
133,139.84,147.11,7
135,139.74,146.99,7
134,139.63,146.86,7
135,139.53,146.74,7
133,139.40,146.60,7
133,139.27,146.46,7
133,139.15,146.33,7
133,139.03,146.20,7
133,138.91,146.06,7
133,138.79,145.93,7
133,138.67,145.80,7
132,138.54,145.67,7
132,138.41,145.53,7
133,138.30,145.40,7
133,138.19,145.28,7
132,138.07,145.15,7
132,137.95,145.02,7
132,137.83,144.89,7
133,137.73,144.77,7
131,137.60,144.63,7
133,137.51,144.51,7
132,137.40,144.39,7
131,137.27,144.25,7
132,137.16,144.13,7
132,137.06,144.01,7
132,136.96,143.89,7
131,136.84,143.76,7
132,136.74,143.64,7
131,136.63,143.52,7
132,136.53,143.40,7
131,136.42,143.28,7
132,136.34,143.17,7
131,136.23,143.04,7
131,136.12,142.92,7
131,136.02,142.80,7
132,135.94,142.70,7
131,135.84,142.58,7
131,135.75,142.46,7
129,135.61,142.33,7
130,135.50,142.21,7
129,135.37,142.07,7
130,135.26,141.95,7
129,135.14,141.82,7
129,135.01,141.69,7
129,134.89,141.57,7
131,134.82,141.46,7
129,134.70,141.34,7
129,134.58,141.21,7
130,134.49,141.10,7
129,134.38,140.98,7
129,134.28,140.86,7
129,134.17,140.74,7
129,134.07,140.63,7
129,133.97,140.51,7
129,133.87,140.39,7
129,133.77,140.28,7
128,133.65,140.16,7
129,133.56,140.05,7
127,133.43,139.91,7
128,133.32,139.80,7
127,133.19,139.67,7
127,133.07,139.54,7
127,132.95,139.42,7
127,132.83,139.29,7
127,132.71,139.17,7
127,132.60,139.05,7
127,132.49,138.93,7
127,132.38,138.81,7
127,132.27,138.69,7
127,132.16,138.57,7
127,132.06,138.46,7
127,131.96,138.34,7
127,131.86,138.23,7
126,131.74,138.11,7
127,131.65,138.00,7
127,131.56,137.89,7
127,131.46,137.78,7
127,131.38,137.67,7
127,131.29,137.56,7
129,131.24,137.48,7
127,131.16,137.37,7
127,131.07,137.27,7
127,130.99,137.17,7
127,130.91,137.06,7
127,130.83,136.96,7
127,130.76,136.86,7
127,130.68,136.76,7
125,130.57,136.65,7
126,130.48,136.54,7
127,130.41,136.45,7
127,130.34,136.35,7
126,130.25,136.25,7
126,130.17,136.14,7
125,130.06,136.03,7
125,129.96,135.92,7
125,129.86,135.81,7
126,129.79,135.72,7
126,129.71,135.62,7
125,129.62,135.51,7
125,129.52,135.41,7
125,129.43,135.30,7
125,129.35,135.20,7
125,129.26,135.10,7
125,129.17,135.00,7
125,129.09,134.90,7
125,129.01,134.80,7
125,128.93,134.70,7
125,128.85,134.60,7
125,128.77,134.51,7
125,128.70,134.41,7
125,128.62,134.32,7
124,128.53,134.21,7
126,128.48,134.13,7
125,128.41,134.04,7
125,128.34,133.95,7
125,128.28,133.86,7
124,128.19,133.76,7
124,128.11,133.67,7
125,128.04,133.58,7
125,127.98,133.49,7
124,127.90,133.40,7
125,127.85,133.31,7
126,127.81,133.24,7
126,127.77,133.17,7
125,127.72,133.09,7
124,127.64,133.00,7
124,127.57,132.91,7
125,127.52,132.83,7
123,127.43,132.73,7
124,127.36,132.64,7
124,127.29,132.55,7
124,127.23,132.47,7
123,127.14,132.37,7
125,127.10,132.30,7
121,126.98,132.19,7
125,126.94,132.12,7
124,126.88,132.03,7
124,126.82,131.95,7
123,126.74,131.86,7
123,126.67,131.78,7
123,126.60,131.69,7
123,126.52,131.60,7
121,126.41,131.50,7
123,126.35,131.41,7
123,126.28,131.33,7
122,126.19,131.23,7
123,126.13,131.15,7
122,126.05,131.06,7
122,125.97,130.97,7
121,125.87,130.87,7
121,125.77,130.77,7
121,125.67,130.67,7
121,125.58,130.58,7
122,125.51,130.49,7
121,125.42,130.40,7
121,125.33,130.30,7
122,125.26,130.22,7
121,125.18,130.13,7
121,125.09,130.03,7
121,125.01,129.94,7
121,124.93,129.86,7
122,124.87,129.78,7
120,124.78,129.68,7
121,124.70,129.59,7
121,124.63,129.51,7
121,124.55,129.42,7
121,124.48,129.34,7
122,124.43,129.26,7
121,124.36,129.18,7
120,124.28,129.09,7
121,124.21,129.01,7
121,124.15,128.93,7
120,124.06,128.84,7
124,124.06,128.79,7
120,123.98,128.70,7
120,123.90,128.62,7
120,123.82,128.53,7
120,123.75,128.44,7
119,123.65,128.35,7
120,123.58,128.27,7
119,123.49,128.17,7
119,123.40,128.08,7
120,123.33,128.00,7
120,123.26,127.92,7
120,123.20,127.84,7
120,123.13,127.76,7
120,123.07,127.69,7
120,123.01,127.61,7
120,122.95,127.53,7
119,122.87,127.45,7
120,122.81,127.37,7
119,122.74,127.29,7
119,122.66,127.21,7
119,122.59,127.12,7
119,122.52,127.04,7
119,122.45,126.96,7
119,122.38,126.88,7
119,122.31,126.80,7
119,122.24,126.73,7
119,122.18,126.65,7
119,122.12,126.57,7
118,122.03,126.49,7
119,121.97,126.41,7
119,121.91,126.34,7
118,121.84,126.25,7
120,121.80,126.19,7
117,121.70,126.10,7
117,121.61,126.01,7
117,121.52,125.92,7
117,121.43,125.83,7
117,121.34,125.74,7
117,121.25,125.65,7
117,121.17,125.57,7
117,121.08,125.48,7
118,121.02,125.41,7
117,120.94,125.32,7
117,120.86,125.24,7
117,120.78,125.16,7
117,120.71,125.08,7
117,120.63,124.99,7
117,120.56,124.91,7
115,120.45,124.82,7
117,120.38,124.74,7
117,120.31,124.66,7
116,120.23,124.57,7
115,120.12,124.48,7
116,120.04,124.39,7
116,119.96,124.31,7
116,119.88,124.23,7
116,119.80,124.14,7
115,119.71,124.05,7
116,119.63,123.97,7
115,119.54,123.88,7
116,119.47,123.80,7
115,119.38,123.72,7
115,119.29,123.63,7
115,119.21,123.54,7
113,119.08,123.44,7
115,119.00,123.35,7
116,118.94,123.28,7
115,118.86,123.20,7
115,118.78,123.11,7
114,118.69,123.02,7
116,118.64,122.95,7
112,118.50,122.84,7
115,118.43,122.76,7
115,118.36,122.69,7
116,118.32,122.62,7
116,118.27,122.55,7
115,118.21,122.48,7
115,118.14,122.40,7
115,118.08,122.33,7
115,118.02,122.26,7
115,117.96,122.18,7
116,117.92,122.12,7
115,117.86,122.05,7
114,117.78,121.97,7
115,117.73,121.90,7
115,117.67,121.83,7
115,117.62,121.76,7
115,117.57,121.70,7
113,117.47,121.61,7
115,117.42,121.54,7
113,117.34,121.46,7
114,117.27,121.38,7
114,117.20,121.31,7
114,117.14,121.24,7
114,117.08,121.16,7
114,117.02,121.09,7
113,116.94,121.01,7
113,116.86,120.93,7
113,116.78,120.85,7
114,116.72,120.78,7
113,116.65,120.70,7
113,116.58,120.63,7
115,116.55,120.57,7
113,116.47,120.50,7
113,116.40,120.42,7
113,116.34,120.35,7
113,116.27,120.27,7
113,116.20,120.20,7
112,116.12,120.12,7
113,116.06,120.05,7
111,115.96,119.96,7
112,115.88,119.88,7
113,115.82,119.81,7
113,115.76,119.74,7
113,115.71,119.67,7
113,115.65,119.61,7
113,115.60,119.54,7
112,115.53,119.46,7
113,115.48,119.40,7
113,115.43,119.34,7
112,115.36,119.26,7
112,115.29,119.19,7
111,115.21,119.11,7
111,115.12,119.03,7
111,115.04,118.95,7
111,114.96,118.87,7
112,114.90,118.80,7
111,114.82,118.72,7
111,114.75,118.64,7
111,114.67,118.57,7
111,114.60,118.49,7
111,114.53,118.42,7
111,114.46,118.34,7
111,114.39,118.27,7
111,114.32,118.20,7
111,114.25,118.12,7
113,114.23,118.07,7
111,114.16,118.00,7
111,114.10,117.93,7
109,114.00,117.84,7
111,113.94,117.77,7
111,113.88,117.71,7
111,113.82,117.64,7
111,113.76,117.57,7
111,113.71,117.51,7
111,113.66,117.44,7
111,113.60,117.38,7
111,113.55,117.31,7
111,113.50,117.25,7
114,113.51,117.22,7
111,113.46,117.16,7
111,113.41,117.09,7
111,113.36,117.03,7
111,113.31,116.97,7
111,113.27,116.91,7
111,113.22,116.85,7
111,113.18,116.80,7
111,113.13,116.74,7
110,113.07,116.67,7
110,113.01,116.60,7
111,112.97,116.55,7
109,112.89,116.47,7
111,112.85,116.42,7
110,112.80,116.35,7
110,112.74,116.29,7
109,112.67,116.22,7
109,112.59,116.15,7
109,112.52,116.07,7
111,112.49,116.02,7
109,112.42,115.95,7
109,112.35,115.88,7
109,112.28,115.81,7
110,112.24,115.76,7
109,112.17,115.69,7
110,112.13,115.63,7
109,112.07,115.57,7
109,112.01,115.50,7
109,111.95,115.43,7
109,111.89,115.37,7
109,111.83,115.31,7
108,111.75,115.23,7
109,111.70,115.17,7
108,111.62,115.10,7
109,111.57,115.04,7
107,111.48,114.96,7
107,111.39,114.88,7
108,111.32,114.81,7
108,111.26,114.74,7
108,111.19,114.67,7
109,111.15,114.62,7
107,111.06,114.54,7
109,111.02,114.49,7
108,110.96,114.42,7
107,110.88,114.35,7
108,110.83,114.28,7
109,110.79,114.23,7
107,110.71,114.16,7
107,110.64,114.09,7
107,110.57,114.02,7
107,110.50,113.95,7
105,110.39,113.86,7
107,110.32,113.79,7
107,110.25,113.72,7
107,110.19,113.65,7
107,110.12,113.59,7
107,110.06,113.52,7
108,110.02,113.47,7
106,109.94,113.39,7
107,109.88,113.33,7
105,109.78,113.24,7
106,109.71,113.17,7
107,109.65,113.11,7
107,109.60,113.05,7
106,109.53,112.98,7
106,109.46,112.91,7
105,109.37,112.83,7
105,109.28,112.75,7
105,109.19,112.67,7
105,109.11,112.60,7
106,109.05,112.53,7
106,108.99,112.46,7
107,108.95,112.41,7
105,108.87,112.34,7
107,108.83,112.28,7
105,108.75,112.21,7
107,108.72,112.16,7
105,108.65,112.09,7
105,108.57,112.02,7
106,108.52,111.96,7
105,108.45,111.89,7
105,108.38,111.82,7
105,108.31,111.75,7
105,108.25,111.68,7
105,108.18,111.61,7
105,108.12,111.55,7
105,108.06,111.48,7
105,108.00,111.42,7
105,107.94,111.35,7
106,107.90,111.30,7
105,107.84,111.24,7
106,107.80,111.18,7
105,107.75,111.12,7
105,107.69,111.06,7
105,107.64,111.00,7
106,107.60,110.95,7
105,107.55,110.89,7
105,107.50,110.83,7
105,107.45,110.77,7
105,107.40,110.72,7
105,107.35,110.66,7
106,107.33,110.61,7
106,107.30,110.57,7
105,107.25,110.51,7
106,107.23,110.47,7
105,107.19,110.41,7
107,107.18,110.38,7
105,107.14,110.32,7
105,107.10,110.27,7
105,107.05,110.22,7
106,107.03,110.18,7
105,106.99,110.12,7
104,106.93,110.06,7
105,106.89,110.01,7
104,106.84,109.95,7
105,106.80,109.90,7
104,106.74,109.84,7
104,106.69,109.78,7
104,106.63,109.73,7
103,106.56,109.66,7
103,106.49,109.59,7
105,106.46,109.55,7
104,106.41,109.49,7
105,106.38,109.45,7
105,106.36,109.40,7
104,106.31,109.35,7
104,106.26,109.29,7
105,106.24,109.25,7
104,106.19,109.20,7
104,106.15,109.15,7
105,106.13,109.11,7
105,106.10,109.06,7
105,106.08,109.02,7
104,106.04,108.97,7
105,106.02,108.93,7
104,105.98,108.88,7
105,105.96,108.85,7
104,105.92,108.80,7
105,105.90,108.76,7
104,105.86,108.71,7
107,105.89,108.69,7
105,105.87,108.66,7
104,105.83,108.61,7
105,105.81,108.58,7
106,105.82,108.55,7
103,105.76,108.49,7
104,105.73,108.45,7
104,105.69,108.40,7
104,105.66,108.36,7
106,105.66,108.34,7
104,105.63,108.29,7
104,105.60,108.25,7
103,105.55,108.20,7
104,105.52,108.16,7
103,105.47,108.10,7
105,105.46,108.07,7
104,105.43,108.03,7
104,105.40,107.99,7
103,105.35,107.94,7
103,105.30,107.89,7
103,105.26,107.84,7
104,105.23,107.81,7
103,105.19,107.76,7
103,105.14,107.71,7
103,105.10,107.66,7
101,105.02,107.60,7
104,105.00,107.56,7
103,104.96,107.51,7
103,104.92,107.47,7
103,104.88,107.42,7
104,104.86,107.39,7
103,104.83,107.35,7
103,104.79,107.30,7
103,104.75,107.26,7
103,104.72,107.22,7
103,104.68,107.18,7
103,104.65,107.13,7
103,104.62,107.09,7
103,104.59,107.05,7
102,104.53,107.00,7
103,104.50,106.96,7
101,104.43,106.90,7
103,104.40,106.86,7
103,104.38,106.82,7
102,104.33,106.78,7
103,104.30,106.74,7
101,104.24,106.68,7
101,104.17,106.62,7
102,104.13,106.58,7
103,104.11,106.54,7
101,104.04,106.49,7
101,103.98,106.43,7
102,103.94,106.39,7
102,103.90,106.34,7
101,103.85,106.29,7
101,103.79,106.24,7
101,103.73,106.18,7
101,103.68,106.13,7
103,103.66,106.10,7
102,103.63,106.06,7
101,103.58,106.01,7
102,103.55,105.97,7
103,103.54,105.94,7
102,103.51,105.90,7
107,103.58,105.91,7
103,103.56,105.88,7
102,103.53,105.84,7
103,103.52,105.82,7
103,103.51,105.79,7
103,103.50,105.76,7
104,103.51,105.74,7
103,103.50,105.71,7
103,103.49,105.69,7
104,103.50,105.67,7
104,103.51,105.65,7
104,103.52,105.64,7
104,103.53,105.62,7
103,103.52,105.59,7
103,103.51,105.57,7
103,103.50,105.54,7
103,103.49,105.52,7
104,103.50,105.50,7
103,103.49,105.48,7
104,103.50,105.46,7
103,103.49,105.44,7
104,103.50,105.42,7
103,103.49,105.40,7
103,103.48,105.37,7
103,103.47,105.35,7
103,103.46,105.33,7
104,103.47,105.31,7
105,103.50,105.31,7
103,103.49,105.29,7
104,103.50,105.28,7
104,103.51,105.26,7
104,103.52,105.25,7
105,103.55,105.25,7
104,103.56,105.23,7
104,103.57,105.22,7
104,103.58,105.21,7
105,103.61,105.21,7
105,103.63,105.21,7
105,103.66,105.20,7
105,103.69,105.20,7
105,103.71,105.20,7
105,103.74,105.20,7
105,103.77,105.20,7
105,103.79,105.19,7
105,103.81,105.19,7
105,103.84,105.19,7
107,103.90,105.21,7
105,103.92,105.21,7
105,103.95,105.20,7
106,103.99,105.21,7
106,104.03,105.22,7
107,104.09,105.24,7
106,104.12,105.25,7
106,104.16,105.25,7
106,104.20,105.26,7
107,104.25,105.28,7
105,104.27,105.28,7
105,104.28,105.27,7
105,104.30,105.27,7
107,104.35,105.29,7
106,104.39,105.29,7
107,104.44,105.31,7
106,104.47,105.32,7
106,104.50,105.32,7
107,104.55,105.34,7
105,104.56,105.34,7
108,104.63,105.36,7
107,104.67,105.38,7
108,104.74,105.41,7
108,104.81,105.43,7
109,104.89,105.47,7
107,104.93,105.48,7
109,105.01,105.52,7
108,105.07,105.54,7
108,105.13,105.57,7
108,105.19,105.59,7
108,105.25,105.62,7
108,105.30,105.64,7
107,105.33,105.65,7
108,105.39,105.68,7
107,105.42,105.69,7
108,105.47,105.71,7
107,105.50,105.73,7
108,105.55,105.75,7
107,105.58,105.76,7
108,105.63,105.78,7
107,105.66,105.80,7
109,105.72,105.83,7
107,105.75,105.84,7
107,105.77,105.85,7
108,105.82,105.87,7
108,105.86,105.90,7
109,105.93,105.93,7
109,105.99,105.96,7
109,106.05,105.99,7
108,106.09,106.01,7
108,106.12,106.03,7
107,106.14,106.04,7
108,106.18,106.06,7
108,106.22,106.08,7
109,106.27,106.11,7
108,106.31,106.12,7
109,106.36,106.15,7
107,106.37,106.16,7
109,106.43,106.19,7
108,106.46,106.21,7
109,106.51,106.24,7
108,106.54,106.25,7
110,106.61,106.29,7
107,106.61,106.30,7
108,106.64,106.32,7
108,106.67,106.33,7
108,106.70,106.35,7
108,106.72,106.37,7
108,106.75,106.38,7
107,106.75,106.39,7
108,106.78,106.40,7
108,106.80,106.42,7
107,106.81,106.43,7
108,106.83,106.44,7
107,106.83,106.45,7
109,106.88,106.47,7
108,106.90,106.49,7
108,106.92,106.50,7
109,106.96,106.53,7
109,107.00,106.55,7
107,107.00,106.56,7
109,107.04,106.58,7
108,107.06,106.60,7
107,107.06,106.60,7
109,107.10,106.62,7
108,107.12,106.64,7
108,107.14,106.65,7
109,107.17,106.67,7
109,107.21,106.70,7
108,107.23,106.71,7
109,107.26,106.73,7
108,107.28,106.75,7
109,107.31,106.77,7
109,107.34,106.79,7
109,107.38,106.81,7
107,107.37,106.82,7
109,107.40,106.84,7
108,107.41,106.85,7
108,107.43,106.86,7
109,107.46,106.88,7
108,107.47,106.89,7
107,107.46,106.89,7
108,107.47,106.90,7
112,107.56,106.96,7
108,107.57,106.97,7
109,107.60,106.99,7
108,107.61,107.00,7
109,107.63,107.02,7
109,107.66,107.04,7
108,107.67,107.05,7
109,107.69,107.07,7
110,107.74,107.10,7
109,107.77,107.11,7
111,107.83,107.15,7
111,107.89,107.19,7
109,107.92,107.21,7
109,107.94,107.23,7
110,107.98,107.26,7
110,108.02,107.28,7
110,108.06,107.31,7
109,108.08,107.33,7
109,108.10,107.34,7
111,108.15,107.38,7
109,108.17,107.40,7
110,108.21,107.42,7
109,108.22,107.44,7
109,108.24,107.45,7
109,108.25,107.47,7
109,108.27,107.48,7
109,108.28,107.50,7
111,108.34,107.53,7
109,108.35,107.55,7
109,108.36,107.56,7
110,108.40,107.59,7
109,108.41,107.60,7
109,108.42,107.62,7
109,108.43,107.63,7
109,108.44,107.64,7
111,108.49,107.68,7
111,108.55,107.71,7
111,108.59,107.74,7
111,108.64,107.78,7
111,108.69,107.81,7
113,108.78,107.86,7
113,108.86,107.91,7
113,108.94,107.96,7
112,109.00,108.00,7
112,109.06,108.04,7
113,109.14,108.09,7
113,109.22,108.14,7
112,109.28,108.18,7
113,109.35,108.23,7
112,109.40,108.27,7
112,109.45,108.30,7
113,109.53,108.35,7
113,109.60,108.40,7
111,109.62,108.42,7
113,109.69,108.47,7
111,109.72,108.49,7
113,109.78,108.54,7
113,109.85,108.58,7
113,109.91,108.63,7
113,109.97,108.67,7
115,110.07,108.73,7
113,110.13,108.78,7
115,110.23,108.84,7
115,110.32,108.90,7
114,110.40,108.95,7
115,110.49,109.01,7
113,110.54,109.05,7
113,110.59,109.09,7
113,110.64,109.13,7
111,110.64,109.15,7
114,110.71,109.20,7
115,110.80,109.26,7
113,110.84,109.29,7
115,110.92,109.35,7
116,111.03,109.42,7
115,111.11,109.47,7
116,111.20,109.54,7
115,111.28,109.59,7
115,111.35,109.65,7
115,111.43,109.70,7
117,111.54,109.77,7
115,111.61,109.83,7
116,111.70,109.89,7
116,111.78,109.95,7
118,111.91,110.03,7
117,112.01,110.10,7
117,112.11,110.17,7
117,112.21,110.24,7
116,112.28,110.29,7
117,112.38,110.36,7
117,112.47,110.43,7
117,112.56,110.49,7
117,112.65,110.56,7
117,112.73,110.62,7
116,112.80,110.68,7
117,112.88,110.74,7
115,112.93,110.78,7
117,113.01,110.84,7
117,113.09,110.91,7
117,113.17,110.97,7
117,113.24,111.03,7
117,113.32,111.09,7
118,113.41,111.16,7
117,113.48,111.21,7
117,113.55,111.27,7
116,113.60,111.32,7
116,113.65,111.37,7
117,113.72,111.42,7
117,113.78,111.48,7
117,113.85,111.53,7
115,113.87,111.57,7
117,113.93,111.62,7
117,113.99,111.68,7
117,114.05,111.73,7
118,114.13,111.79,7
117,114.19,111.84,7
117,114.25,111.90,7
119,114.34,111.97,7
119,114.44,112.04,7
119,114.53,112.11,7
119,114.62,112.18,7
121,114.74,112.26,7
121,114.87,112.35,7
121,114.99,112.44,7
121,115.11,112.52,7
125,115.31,112.65,7
125,115.50,112.77,7
125,115.69,112.89,7
125,115.88,113.02,7
127,116.10,113.16,7
126,116.30,113.28,7
126,116.49,113.41,7
125,116.66,113.53,7
127,116.87,113.66,7
127,117.07,113.79,7
127,117.27,113.93,7
127,117.47,114.06,7
127,117.66,114.19,7
127,117.84,114.32,7
127,118.03,114.44,7
128,118.23,114.58,7
127,118.40,114.70,7
127,118.57,114.82,7
127,118.74,114.95,7
127,118.91,115.07,7
128,119.09,115.20,7
129,119.29,115.33,7
128,119.46,115.46,7
128,119.63,115.59,7
130,119.84,115.73,7
130,120.04,115.87,7
129,120.22,116.00,7
129,120.40,116.13,7
129,120.57,116.26,7
130,120.76,116.40,7
129,120.92,116.53,7
130,121.10,116.66,7
130,121.28,116.79,7
130,121.46,116.93,7
129,121.61,117.05,7
130,121.78,117.18,7
129,121.92,117.30,7
129,122.06,117.41,7
129,122.20,117.53,7
130,122.36,117.65,7
129,122.49,117.77,7
131,122.66,117.90,7
132,122.85,118.04,7
134,123.07,118.20,7
134,123.29,118.36,7
136,123.54,118.53,7
137,123.81,118.72,7
138,124.10,118.91,7
139,124.39,119.11,7
139,124.69,119.31,7
139,124.97,119.51,7
139,125.25,119.70,7
138,125.51,119.89,7
140,125.80,120.09,7
139,126.06,120.28,7
140,126.34,120.47,7
140,126.61,120.67,7
140,126.88,120.86,7
141,127.16,121.06,7
143,127.48,121.28,7
141,127.75,121.48,7
141,128.02,121.68,7
141,128.28,121.87,7
142,128.55,122.07,7
143,128.84,122.28,7
142,129.10,122.48,7
143,129.38,122.68,7
143,129.65,122.88,7
143,129.92,123.09,7
143,130.18,123.28,7
145,130.48,123.50,7
143,130.73,123.70,7
143,130.97,123.89,7
143,131.21,124.08,7
143,131.45,124.27,7
143,131.68,124.46,7
145,131.95,124.66,7
145,132.21,124.87,7
145,132.46,125.07,7
143,132.67,125.25,7
145,132.92,125.44,7
147,133.20,125.66,7
149,133.52,125.89,7
149,133.83,126.12,7
149,134.13,126.35,7
149,134.43,126.58,7
148,134.70,126.79,7
149,134.99,127.02,7
149,135.27,127.24,7
149,135.54,127.45,7
149,135.81,127.67,7
149,136.07,127.88,7
149,136.33,128.09,7
149,136.59,128.30,7
150,136.85,128.52,7
149,137.10,128.72,7
152,137.40,128.96,7
151,137.67,129.18,7
151,137.93,129.40,7
151,138.20,129.61,7
153,138.49,129.85,7
151,138.74,130.06,7
151,138.99,130.27,7
151,139.23,130.47,7
153,139.50,130.70,7
153,139.77,130.92,7
153,140.04,131.14,7
151,140.26,131.34,7
153,140.51,131.56,7
153,140.76,131.77,7
154,141.03,131.99,7
