Teste de posicionamento 1(EMG ao centro do bíceps (Vermelho A, Verde B) + Ref no pulso) - 19/10/2024 - teste8 - 5 contrações
long frequencia = 1000;                 //frequência de aquisição do sinal, neste caso, 1000 sinais por segundo
float fator1 = 0.02, fator2 = 0.01;
float incerteza = 0.13;
float pico_basal = 130; // Mínimo para ser considerado um pico de contração
int filtro_horizontal=200000; //intervalo de 200ms valores não pode ter mais de 1 contração

Biceps_D,mediaMovel_1,mediaMovel_2,Contracao
87,1.74,0.87,0
89,3.49,1.75,0
88,5.18,2.61,0
87,6.81,3.46,0
87,8.42,4.29,0
87,9.99,5.12,0
86,11.51,5.93,0
87,13.02,6.74,0
86,14.48,7.53,0
87,15.93,8.33,0
87,17.35,9.11,0
88,18.76,9.90,0
87,20.13,10.67,0
87,21.46,11.44,0
87,22.78,12.19,0
85,24.02,12.92,0
88,25.30,13.67,0
86,26.51,14.39,0
86,27.70,15.11,0
86,28.87,15.82,0
86,30.01,16.52,0
87,31.15,17.23,0
86,32.25,17.91,0
86,33.32,18.59,0
88,34.42,19.29,0
86,35.45,19.96,0
86,36.46,20.62,0
86,37.45,21.27,0
87,38.44,21.93,0
86,39.39,22.57,0
86,40.32,23.20,0
86,41.24,23.83,0
87,42.15,24.46,0
88,43.07,25.10,0
86,43.93,25.71,0
86,44.77,26.31,0
87,45.61,26.92,0
86,46.42,27.51,0
86,47.21,28.09,0
86,47.99,28.67,0
86,48.75,29.24,0
86,49.50,29.81,0
86,50.23,30.37,0
86,50.94,30.93,0
87,51.66,31.49,0
86,52.35,32.04,0
86,53.02,32.58,0
86,53.68,33.11,0
86,54.33,33.64,0
86,54.96,34.16,0
86,55.58,34.68,0
88,56.23,35.21,0
86,56.83,35.72,0
86,57.41,36.22,0
86,57.98,36.72,0
86,58.54,37.22,0
86,59.09,37.70,0
86,59.63,38.19,0
88,60.20,38.68,0
87,60.73,39.17,0
88,61.28,39.66,0
86,61.77,40.12,0
88,62.30,40.60,0
86,62.77,41.05,0
87,63.26,41.51,0
86,63.71,41.96,0
86,64.16,42.40,0
87,64.61,42.84,0
86,65.04,43.27,0
86,65.46,43.70,0
87,65.89,44.13,0
86,66.29,44.55,0
86,66.69,44.97,0
86,67.07,45.38,0
86,67.45,45.78,0
87,67.84,46.20,0
88,68.25,46.61,0
86,68.60,47.01,0
85,68.93,47.39,0
86,69.27,47.77,0
86,69.60,48.16,0
88,69.97,48.56,0
86,70.29,48.93,0
86,70.61,49.30,0
86,70.92,49.67,0
85,71.20,50.02,0
86,71.49,50.38,0
86,71.78,50.74,0
86,72.07,51.09,0
85,72.33,51.43,0
86,72.60,51.77,0
86,72.87,52.12,0
86,73.13,52.46,0
85,73.37,52.78,0
85,73.60,53.10,0
86,73.85,53.43,0
87,74.11,53.77,0
85,74.33,54.08,0
86,74.56,54.40,0
86,74.79,54.71,0
83,74.96,55.00,0
86,75.18,55.31,0
86,75.39,55.61,0
86,75.61,55.92,0
85,75.79,56.21,0
86,76.00,56.51,0
86,76.20,56.80,0
86,76.39,57.09,0
86,76.59,57.38,0
86,76.77,57.67,0
86,76.96,57.95,0
86,77.14,58.23,0
88,77.36,58.53,0
86,77.53,58.81,0
86,77.70,59.08,0
86,77.86,59.35,0
84,77.99,59.59,0
86,78.15,59.86,0
86,78.30,60.12,0
86,78.46,60.38,0
88,78.65,60.65,0
86,78.80,60.91,0
86,78.94,61.16,0
86,79.08,61.41,0
85,79.20,61.64,0
86,79.34,61.89,0
86,79.47,62.13,0
86,79.60,62.37,0
85,79.71,62.59,0
85,79.81,62.82,0
86,79.94,63.05,0
86,80.06,63.28,0
85,80.16,63.49,0
86,80.27,63.72,0
86,80.39,63.94,0
86,80.50,64.16,0
86,80.61,64.38,0
85,80.70,64.59,0
84,80.76,64.78,0
87,80.89,65.00,0
86,80.99,65.21,0
84,81.05,65.40,0
86,81.15,65.61,0
86,81.25,65.81,0
86,81.34,66.01,0
86,81.44,66.21,0
86,81.53,66.41,0
86,81.62,66.61,0
85,81.68,66.79,0
84,81.73,66.96,0
84,81.78,67.13,0
86,81.86,67.32,0
86,81.94,67.51,0
86,82.02,67.69,0
85,82.08,67.87,0
86,82.16,68.05,0
85,82.22,68.22,0
86,82.29,68.40,0
87,82.39,68.58,0
86,82.46,68.76,0
85,82.51,68.92,0
85,82.56,69.08,0
86,82.63,69.25,0
85,82.68,69.41,0
86,82.74,69.57,0
84,82.77,69.72,0
84,82.79,69.86,0
85,82.84,70.01,0
86,82.90,70.17,0
86,82.96,70.33,0
86,83.02,70.49,0
86,83.08,70.64,0
84,83.10,70.77,0
85,83.14,70.92,0
86,83.20,71.07,0
86,83.25,71.22,0
86,83.31,71.36,0
86,83.36,71.51,0
84,83.37,71.64,0
86,83.43,71.78,0
86,83.48,71.92,0
85,83.51,72.05,0
86,83.56,72.19,0
86,83.61,72.33,0
87,83.68,72.48,0
85,83.70,72.60,0
86,83.75,72.74,0
86,83.79,72.87,0
87,83.86,73.01,0
85,83.88,73.13,0
85,83.90,73.25,0
86,83.94,73.38,0
85,83.97,73.49,0
86,84.01,73.62,0
86,84.05,73.74,0
85,84.07,73.85,0
85,84.08,73.97,0
86,84.12,74.09,0
85,84.14,74.19,0
84,84.14,74.29,0
87,84.19,74.42,0
86,84.23,74.54,0
86,84.27,74.65,0
85,84.28,74.75,0
87,84.33,74.88,0
85,84.35,74.98,0
84,84.34,75.07,0
86,84.37,75.18,0
85,84.39,75.28,0
86,84.42,75.38,0
85,84.43,75.48,0
84,84.42,75.56,0
87,84.47,75.68,0
85,84.48,75.77,0
84,84.47,75.85,0
84,84.47,75.94,0
85,84.48,76.03,0
86,84.51,76.13,0
84,84.50,76.20,0
84,84.49,76.28,0
85,84.50,76.37,0
84,84.49,76.45,0
84,84.48,76.52,0
85,84.49,76.61,0
85,84.50,76.69,0
85,84.51,76.77,0
84,84.50,76.85,0
84,84.49,76.92,0
85,84.50,77.00,0
84,84.49,77.07,0
84,84.48,77.14,0
84,84.47,77.21,0
84,84.46,77.27,0
86,84.49,77.36,0
84,84.48,77.43,0
84,84.47,77.49,0
84,84.46,77.56,0
88,84.53,77.66,0
84,84.52,77.73,0
84,84.51,77.79,0
84,84.50,77.85,0
84,84.49,77.91,0
84,84.48,77.97,0
84,84.47,78.03,0
83,84.44,78.08,0
86,84.47,78.16,0
84,84.46,78.22,0
84,84.45,78.28,0
83,84.43,78.33,0
84,84.42,78.38,0
84,84.41,78.44,0
86,84.44,78.51,0
84,84.43,78.57,0
84,84.42,78.62,0
84,84.41,78.68,0
84,84.41,78.73,0
85,84.42,78.79,0
84,84.41,78.84,0
84,84.40,78.90,0
85,84.41,78.96,0
84,84.41,79.01,0
85,84.42,79.07,0
84,84.41,79.12,0
85,84.42,79.18,0
84,84.41,79.22,0
84,84.40,79.27,0
84,84.40,79.32,0
85,84.41,79.38,0
84,84.40,79.42,0
84,84.39,79.47,0
84,84.38,79.51,0
85,84.40,79.57,0
86,84.43,79.63,0
88,84.50,79.72,0
84,84.49,79.76,0
85,84.50,79.81,0
86,84.53,79.87,0
85,84.54,79.92,0
86,84.57,79.99,0
85,84.58,80.04,0
86,84.61,80.10,0
85,84.61,80.14,0
86,84.64,80.20,0
86,84.67,80.26,0
88,84.73,80.34,0
86,84.76,80.39,0
86,84.79,80.45,0
86,84.81,80.51,0
87,84.85,80.57,0
86,84.88,80.63,0
86,84.90,80.68,0
86,84.92,80.73,0
85,84.92,80.78,0
89,85.00,80.86,0
86,85.02,80.91,0
86,85.04,80.96,0
86,85.06,81.01,0
85,85.06,81.05,0
86,85.08,81.10,0
86,85.10,81.15,0
85,85.10,81.19,0
85,85.09,81.23,0
86,85.11,81.27,0
84,85.09,81.30,0
85,85.09,81.34,0
86,85.11,81.38,0
86,85.12,81.43,0
86,85.14,81.48,0
87,85.18,81.53,0
85,85.18,81.57,0
86,85.19,81.61,0
86,85.21,81.65,0
86,85.22,81.70,0
86,85.24,81.74,0
86,85.25,81.78,0
86,85.27,81.83,0
86,85.28,81.87,0
86,85.30,81.91,0
86,85.31,81.95,0
86,85.33,81.99,0
86,85.34,82.03,0
86,85.35,82.07,0
86,85.37,82.11,0
86,85.38,82.15,0
86,85.39,82.19,0
86,85.40,82.22,0
86,85.42,82.26,0
87,85.45,82.31,0
86,85.46,82.35,0
86,85.47,82.38,0
86,85.48,82.42,0
85,85.47,82.44,0
86,85.48,82.48,0
88,85.53,82.54,0
86,85.54,82.57,0
86,85.55,82.60,0
87,85.58,82.65,0
86,85.59,82.68,0
86,85.60,82.72,0
86,85.60,82.75,0
88,85.65,82.80,0
87,85.68,82.84,0
88,85.72,82.89,0
88,85.77,82.95,0
87,85.79,82.99,0
88,85.84,83.04,0
84,85.80,83.05,0
88,85.85,83.10,0
88,85.89,83.14,0
87,85.91,83.18,0
89,85.97,83.24,0
89,86.03,83.30,0
89,86.09,83.36,0
88,86.13,83.40,0
88,86.17,83.45,0
88,86.21,83.49,0
90,86.28,83.56,0
89,86.34,83.61,0
88,86.37,83.66,0
88,86.40,83.70,0
90,86.47,83.76,0
88,86.50,83.81,0
90,86.57,83.87,0
88,86.60,83.91,0
89,86.65,83.96,0
90,86.72,84.02,0
90,86.78,84.08,0
89,86.83,84.13,0
89,86.87,84.18,0
89,86.91,84.23,0
88,86.94,84.26,0
89,86.98,84.31,0
89,87.02,84.36,0
89,87.06,84.40,0
88,87.08,84.44,0
89,87.11,84.49,0
89,87.15,84.53,0
89,87.19,84.58,0
89,87.22,84.62,0
90,87.28,84.67,0
90,87.33,84.73,0
92,87.43,84.80,0
90,87.48,84.85,0
90,87.53,84.90,0
92,87.62,84.97,0
91,87.69,85.03,0
90,87.73,85.08,0
90,87.78,85.13,0
92,87.86,85.20,0
92,87.95,85.27,0
90,87.99,85.32,0
90,88.03,85.36,0
91,88.09,85.42,0
91,88.14,85.48,0
90,88.18,85.52,0
90,88.22,85.57,0
92,88.29,85.63,0
92,88.37,85.69,0
90,88.40,85.74,0
91,88.45,85.79,0
91,88.50,85.84,0
91,88.55,85.89,0
92,88.62,85.95,0
94,88.73,86.04,0
92,88.80,86.09,0
92,88.86,86.15,0
92,88.92,86.21,0
92,88.98,86.27,0
94,89.08,86.35,0
93,89.16,86.41,0
92,89.22,86.47,0
94,89.31,86.55,0
95,89.43,86.63,0
94,89.52,86.70,0
94,89.61,86.78,0
94,89.70,86.85,0
95,89.80,86.93,0
94,89.89,87.00,0
93,89.95,87.06,0
96,90.07,87.15,0
95,90.17,87.23,0
95,90.27,87.31,0
94,90.34,87.37,0
95,90.43,87.45,0
95,90.53,87.53,0
96,90.63,87.61,0
96,90.74,87.69,0
96,90.85,87.78,0
95,90.93,87.85,0
96,91.03,87.93,0
96,91.13,88.01,0
97,91.25,88.10,0
98,91.38,88.20,0
96,91.48,88.28,0
96,91.57,88.36,0
96,91.65,88.43,0
98,91.78,88.53,0
98,91.91,88.62,0
97,92.01,88.71,0
98,92.13,88.80,0
98,92.25,88.89,0
96,92.32,88.96,0
96,92.39,89.03,0
97,92.49,89.11,0
96,92.56,89.18,0
100,92.71,89.29,0
97,92.79,89.37,0
96,92.86,89.43,0
98,92.96,89.52,0
95,93.00,89.57,0
98,93.10,89.66,0
98,93.20,89.74,0
98,93.29,89.82,0
98,93.39,89.91,0
98,93.48,89.99,0
98,93.57,90.07,0
98,93.66,90.15,0
99,93.77,90.23,0
99,93.87,90.32,0
99,93.97,90.41,0
100,94.09,90.50,0
98,94.17,90.58,0
100,94.29,90.67,0
99,94.38,90.76,0
99,94.47,90.84,0
99,94.57,90.92,0
99,94.65,91.00,0
98,94.72,91.07,0
99,94.81,91.15,0
99,94.89,91.23,0
99,94.97,91.31,0
100,95.07,91.39,0
102,95.21,91.50,0
102,95.35,91.61,0
101,95.46,91.70,0
102,95.59,91.80,0
101,95.70,91.89,0
101,95.81,91.99,0
101,95.91,92.08,0
103,96.05,92.18,0
101,96.15,92.27,0
102,96.27,92.37,0
102,96.38,92.47,0
102,96.49,92.56,0
103,96.62,92.67,0
103,96.75,92.77,0
103,96.88,92.87,0
103,97.00,92.97,0
104,97.14,93.08,0
104,97.28,93.19,0
104,97.41,93.30,0
105,97.56,93.42,0
105,97.71,93.53,0
105,97.86,93.65,0
105,98.00,93.76,0
106,98.16,93.88,0
105,98.30,94.00,0
106,98.45,94.12,0
107,98.62,94.24,0
107,98.79,94.37,0
107,98.95,94.50,0
108,99.13,94.63,0
108,99.31,94.77,0
108,99.49,94.90,0
107,99.64,95.02,0
107,99.78,95.14,0
109,99.97,95.28,0
109,100.15,95.42,0
110,100.35,95.56,0
113,100.60,95.74,0
112,100.83,95.90,0
111,101.03,96.05,0
111,101.23,96.20,0
111,101.42,96.35,0
112,101.64,96.50,0
111,101.82,96.65,0
111,102.01,96.79,0
111,102.19,96.93,0
111,102.36,97.07,0
109,102.50,97.19,0
112,102.69,97.34,0
112,102.87,97.49,0
112,103.05,97.63,0
116,103.31,97.82,0
113,103.51,97.97,0
116,103.76,98.15,0
114,103.96,98.31,0
116,104.20,98.48,0
114,104.40,98.64,0
116,104.63,98.81,0
117,104.88,99.00,0
118,105.14,99.19,0
117,105.38,99.36,0
118,105.63,99.55,0
116,105.84,99.71,0
118,106.08,99.90,0
118,106.32,100.08,0
118,106.55,100.26,0
118,106.78,100.44,0
117,106.99,100.60,0
117,107.19,100.76,0
118,107.40,100.94,0
118,107.61,101.11,0
119,107.84,101.29,0
119,108.07,101.46,0
121,108.32,101.66,0
121,108.58,101.85,0
123,108.87,102.06,0
121,109.11,102.25,0
122,109.37,102.45,0
121,109.60,102.64,0
121,109.83,102.82,0
123,110.09,103.02,0
122,110.33,103.21,0
124,110.60,103.42,0
123,110.85,103.62,0
125,111.13,103.83,0
124,111.39,104.03,0
124,111.64,104.23,0
126,111.93,104.45,0
127,112.23,104.67,0
127,112.53,104.90,0
127,112.82,105.12,0
127,113.10,105.34,0
127,113.38,105.55,0
128,113.67,105.78,0
128,113.96,106.00,0
129,114.26,106.23,0
131,114.59,106.48,0
130,114.90,106.71,0
129,115.18,106.94,0
129,115.46,107.16,0
128,115.71,107.37,0
129,115.98,107.58,0
128,116.22,107.79,0
128,116.45,107.99,0
129,116.70,108.20,0
129,116.95,108.41,0
131,117.23,108.63,0
130,117.49,108.85,0
130,117.74,109.06,0
131,118.00,109.28,0
131,118.26,109.49,0
133,118.56,109.73,0
132,118.82,109.95,0
133,119.11,110.18,0
134,119.41,110.42,0
134,119.70,110.66,0
134,119.98,110.89,0
136,120.30,111.14,0
137,120.64,111.40,0
136,120.95,111.65,0
137,121.27,111.90,0
138,121.60,112.16,0
139,121.95,112.43,0
139,122.29,112.69,0
139,122.62,112.96,0
139,122.95,113.22,0
140,123.29,113.49,0
140,123.63,113.75,0
140,123.95,114.01,0
141,124.30,114.28,0
142,124.65,114.56,0
141,124.98,114.82,0
141,125.30,115.09,0
141,125.61,115.35,0
141,125.92,115.60,0
142,126.24,115.87,0
143,126.58,116.14,0
145,126.94,116.43,0
147,127.35,116.73,0
147,127.74,117.03,0
147,128.12,117.33,0
150,128.56,117.66,0
152,129.03,118.00,0
153,129.51,118.35,0
152,129.96,118.69,0
152,130.40,119.02,0
153,130.85,119.36,0
154,131.31,119.71,0
156,131.81,120.07,0
155,132.27,120.42,0
156,132.75,120.78,0
156,133.21,121.13,0
159,133.73,121.51,0
159,134.23,121.88,0
160,134.75,122.26,0
161,135.27,122.65,0
161,135.79,123.04,0
161,136.29,123.41,0
160,136.77,123.78,0
161,137.25,124.15,0
163,137.77,124.54,0
165,138.31,124.95,0
169,138.92,125.39,0
167,139.49,125.80,0
169,140.08,126.23,0
171,140.69,126.68,0
171,141.30,127.13,0
171,141.89,127.56,0
169,142.44,127.98,0
170,142.99,128.40,0
170,143.53,128.81,0
172,144.10,129.25,0
172,144.66,129.67,0
173,145.22,130.11,0
171,145.74,130.52,0
172,146.26,130.93,0
173,146.80,131.35,0
173,147.32,131.77,0
173,147.84,132.18,0
176,148.40,132.62,0
176,148.95,133.05,0
175,149.47,133.47,0
175,149.98,133.89,0
175,150.48,134.30,0
175,150.97,134.71,0
175,151.45,135.11,0
177,151.97,135.53,0
179,152.51,135.96,0
179,153.04,136.39,0
179,153.55,136.82,0
180,154.08,137.25,0
179,154.58,137.67,0
184,155.17,138.13,0
183,155.73,138.58,0
182,156.25,139.01,0
183,156.79,139.45,0
184,157.33,139.90,0
182,157.83,140.32,0
184,158.35,140.76,0
185,158.88,141.20,0
184,159.38,141.63,0
184,159.88,142.05,0
183,160.34,142.46,0
183,160.79,142.87,0
183,161.24,143.27,0
183,161.67,143.66,0
183,162.10,144.06,0
184,162.54,144.46,0
183,162.95,144.84,0
183,163.35,145.22,0
185,163.78,145.62,0
184,164.18,146.01,0
185,164.60,146.40,0
185,165.01,146.78,0
185,165.41,147.16,0
185,165.80,147.54,0
187,166.22,147.94,0
187,166.64,148.33,0
189,167.09,148.73,0
188,167.50,149.13,0
188,167.91,149.52,0
190,168.36,149.92,0
192,168.83,150.34,0
193,169.31,150.77,0
193,169.79,151.19,0
193,170.25,151.61,0
193,170.71,152.02,0
192,171.13,152.42,0
193,171.57,152.83,0
194,172.02,153.24,0
194,172.46,153.65,0
193,172.87,154.04,0
193,173.27,154.43,0
196,173.73,154.85,0
195,174.15,155.25,0
195,174.57,155.65,0
196,175.00,156.05,0
197,175.44,156.46,0
197,175.87,156.86,0
197,176.29,157.27,0
196,176.68,157.65,0
197,177.09,158.05,0
197,177.49,158.44,0
196,177.86,158.81,0
195,178.20,159.17,0
199,178.62,159.57,0
195,178.95,159.93,0
196,179.29,160.29,0
196,179.62,160.64,0
197,179.97,161.01,0
195,180.27,161.35,0
196,180.58,161.69,0
195,180.87,162.03,0
195,181.15,162.36,0
195,181.43,162.68,0
195,181.70,163.01,0
195,181.97,163.33,0
195,182.23,163.64,0
193,182.45,163.94,0
193,182.66,164.23,0
193,182.86,164.51,0
192,183.05,164.79,0
194,183.26,165.08,0
193,183.46,165.36,0
192,183.63,165.63,0
193,183.82,165.90,0
193,184.00,166.17,0
192,184.16,166.43,0
192,184.32,166.69,0
192,184.47,166.94,0
191,184.60,167.18,0
191,184.73,167.42,0
191,184.86,167.65,0
190,184.96,167.88,0
190,185.06,168.10,0
189,185.14,168.31,0
189,185.22,168.51,0
189,185.29,168.72,0
189,185.37,168.92,0
189,185.44,169.12,0
189,185.51,169.32,0
188,185.56,169.51,0
187,185.59,169.68,0
189,185.66,169.88,0
189,185.72,170.07,0
188,185.77,170.25,0
188,185.81,170.42,0
187,185.84,170.59,0
188,185.88,170.76,0
187,185.90,170.93,0
188,185.94,171.10,0
187,185.97,171.26,0
187,185.99,171.41,0
186,185.99,171.56,0
187,186.01,171.71,0
185,185.99,171.85,0
185,185.97,171.98,0
185,185.95,172.11,0
185,185.93,172.24,0
184,185.89,172.36,0
186,185.89,172.49,0
184,185.85,172.61,0
183,185.80,172.71,0
183,185.74,172.81,0
183,185.69,172.92,0
184,185.65,173.03,0
183,185.60,173.13,0
182,185.53,173.21,0
182,185.46,173.30,0
183,185.41,173.40,0
181,185.32,173.48,0
183,185.27,173.57,0
181,185.19,173.65,0
181,185.10,173.72,0
181,185.02,173.79,0
182,184.96,173.87,0
180,184.86,173.93,0
181,184.79,174.01,0
180,184.69,174.07,0
180,184.60,174.12,0
180,184.50,174.18,0
179,184.39,174.23,0
179,184.29,174.28,0
179,184.18,174.33,0
179,184.08,174.37,0
178,183.96,174.41,0
180,183.88,174.47,0
178,183.76,174.50,0
178,183.64,174.54,0
177,183.51,174.56,0
178,183.40,174.59,0
177,183.27,174.62,0
178,183.17,174.65,0
177,183.04,174.68,0
176,182.90,174.69,0
176,182.76,174.70,0
176,182.63,174.72,0
175,182.48,174.72,0
175,182.33,174.72,0
175,182.18,174.72,0
175,182.04,174.73,0
175,181.90,174.73,0
175,181.76,174.73,0
175,181.62,174.73,0
175,181.49,174.74,0
173,181.32,174.72,0
174,181.17,174.71,0
174,181.03,174.71,0
173,180.87,174.69,0
175,180.75,174.69,0
173,180.60,174.68,0
173,180.45,174.66,0
173,180.30,174.64,0
172,180.13,174.62,0
172,179.97,174.59,0
171,179.79,174.55,0
171,179.61,174.52,0
171,179.44,174.48,0
172,179.29,174.46,0
171,179.13,174.42,0
169,178.92,174.37,0
171,178.77,174.34,0
170,178.59,174.29,0
170,178.42,174.25,0
169,178.23,174.20,0
169,178.05,174.14,0
171,177.90,174.11,0
169,177.73,174.06,0
169,177.55,174.01,0
170,177.40,173.97,0
168,177.21,173.91,0
168,177.03,173.85,0
168,176.85,173.79,0
168,176.67,173.74,0
168,176.50,173.68,0
168,176.33,173.62,0
168,176.16,173.57,0
167,175.98,173.50,0
167,175.80,173.43,0
167,175.62,173.37,0
166,175.43,173.30,0
167,175.26,173.23,0
166,175.08,173.16,0
166,174.89,173.09,0
165,174.70,173.01,0
165,174.50,172.93,0
165,174.31,172.85,0
166,174.15,172.78,0
165,173.96,172.70,0
165,173.78,172.63,0
165,173.61,172.55,0
165,173.44,172.47,0
164,173.25,172.39,0
163,173.04,172.30,0
166,172.90,172.23,0
163,172.70,172.14,0
164,172.53,172.06,0
163,172.34,171.97,0
164,172.17,171.89,0
164,172.01,171.81,0
163,171.83,171.72,1
162,171.63,171.62,1
163,171.46,171.54,2
162,171.27,171.44,2
162,171.09,171.35,2
161,170.88,171.25,2
161,170.69,171.14,2
161,170.49,171.04,2
161,170.30,170.94,2
160,170.10,170.83,2
160,169.89,170.72,2
159,169.68,170.61,2
160,169.48,170.50,2
161,169.31,170.40,2
159,169.11,170.29,2
160,168.92,170.19,2
159,168.73,170.08,2
159,168.53,169.97,2
159,168.34,169.86,2
160,168.17,169.76,2
158,167.97,169.64,2
159,167.79,169.53,2
159,167.62,169.43,2
159,167.44,169.32,2
158,167.25,169.21,2
158,167.07,169.10,2
158,166.89,168.99,2
158,166.71,168.88,2
157,166.52,168.76,2
157,166.33,168.64,2
158,166.16,168.53,2
157,165.98,168.42,2
157,165.80,168.31,2
157,165.62,168.19,2
157,165.45,168.08,2
155,165.24,167.95,2
157,165.07,167.84,2
156,164.89,167.72,2
156,164.72,167.60,2
156,164.54,167.49,2
156,164.37,167.37,2
156,164.20,167.26,2
155,164.02,167.14,2
155,163.84,167.02,2
155,163.66,166.90,2
156,163.51,166.79,2
154,163.32,166.66,2
154,163.13,166.53,2
153,162.93,166.40,2
154,162.75,166.27,2
153,162.56,166.14,2
154,162.38,166.02,2
153,162.20,165.89,2
153,162.01,165.76,2
153,161.83,165.63,2
153,161.66,165.51,2
153,161.48,165.38,2
153,161.31,165.26,2
153,161.15,165.13,2
151,160.94,164.99,2
152,160.76,164.86,2
152,160.59,164.73,2
153,160.44,164.62,2
152,160.27,164.49,2
153,160.12,164.38,2
152,159.96,164.25,2
152,159.80,164.13,2
151,159.63,164.00,2
152,159.47,163.88,2
151,159.30,163.75,2
151,159.14,163.62,2
151,158.98,163.50,2
151,158.82,163.37,2
151,158.66,163.25,2
151,158.51,163.12,2
150,158.34,162.99,2
150,158.17,162.86,2
151,158.03,162.74,2
150,157.87,162.62,2
149,157.69,162.48,2
149,157.51,162.35,2
150,157.36,162.22,2
150,157.22,162.10,2
149,157.05,161.97,2
149,156.89,161.84,2
151,156.77,161.73,2
149,156.62,161.60,2
149,156.47,161.48,2
150,156.34,161.36,2
148,156.17,161.23,2
148,156.01,161.10,2
149,155.87,160.98,2
148,155.71,160.85,2
148,155.55,160.72,2
147,155.38,160.58,2
147,155.22,160.45,2
148,155.07,160.32,2
147,154.91,160.19,2
147,154.75,160.06,2
147,154.60,159.93,2
147,154.45,159.80,2
146,154.28,159.66,2
147,154.13,159.53,2
147,153.99,159.41,2
146,153.83,159.27,2
147,153.69,159.15,2
146,153.54,159.02,2
146,153.39,158.89,2
145,153.22,158.75,2
145,153.05,158.61,2
145,152.89,158.48,2
145,152.74,158.34,2
145,152.58,158.21,2
143,152.39,158.06,2
146,152.26,157.93,2
145,152.12,157.81,2
145,151.97,157.68,2
145,151.83,157.55,2
145,151.70,157.42,2
145,151.56,157.30,2
145,151.43,157.18,2
144,151.28,157.05,2
145,151.16,156.93,2
146,151.06,156.82,2
144,150.91,156.69,2
144,150.78,156.56,2
143,150.62,156.43,2
143,150.47,156.29,2
143,150.32,156.16,2
144,150.19,156.04,2
143,150.05,155.91,2
143,149.91,155.78,2
143,149.77,155.65,2
143,149.63,155.52,2
143,149.50,155.40,2
143,149.37,155.27,2
143,149.24,155.15,2
143,149.12,155.03,2
143,149.00,154.91,2
142,148.86,154.78,2
143,148.74,154.66,2
143,148.62,154.55,2
143,148.51,154.43,2
145,148.44,154.34,2
142,148.31,154.21,2
143,148.21,154.10,2
142,148.08,153.98,2
141,147.94,153.85,2
141,147.80,153.72,2
141,147.67,153.59,2
141,147.53,153.47,2
141,147.40,153.34,2
141,147.27,153.22,2
141,147.15,153.10,2
139,146.99,152.96,2
141,146.87,152.84,2
140,146.73,152.71,2
141,146.61,152.59,2
140,146.48,152.47,2
137,146.29,152.31,2
140,146.17,152.19,2
139,146.02,152.06,2
140,145.90,151.94,2
139,145.76,151.81,2
140,145.65,151.69,2
139,145.52,151.56,2
139,145.39,151.44,2
139,145.26,151.31,2
140,145.15,151.20,2
139,145.03,151.08,2
139,144.91,150.96,2
139,144.79,150.84,2
140,144.70,150.73,2
137,144.54,150.59,2
139,144.43,150.47,2
140,144.34,150.37,2
139,144.24,150.26,2
140,144.15,150.15,2
140,144.07,150.05,2
139,143.97,149.94,2
140,143.89,149.84,2
139,143.79,149.73,2
139,143.69,149.63,2
140,143.62,149.53,2
139,143.53,149.42,2
139,143.44,149.32,2
139,143.35,149.22,2
139,143.26,149.11,2
139,143.18,149.01,2
139,143.09,148.91,2
137,142.97,148.79,2
138,142.87,148.69,2
137,142.75,148.57,2
138,142.66,148.46,2
138,142.57,148.36,2
138,142.47,148.26,2
139,142.40,148.16,2
137,142.30,148.05,2
141,142.27,147.98,2
137,142.17,147.87,2
137,142.06,147.76,2
137,141.96,147.65,2
137,141.86,147.55,2
137,141.76,147.44,2
137,141.67,147.34,2
135,141.54,147.22,2
136,141.42,147.10,2
136,141.32,146.99,2
136,141.21,146.88,2
136,141.11,146.77,2
136,141.00,146.67,2
137,140.92,146.57,2
137,140.85,146.47,2
136,140.75,146.37,2
136,140.65,146.26,2
137,140.58,146.17,2
137,140.51,146.08,2
137,140.44,145.99,2
137,140.37,145.90,2
136,140.28,145.80,2
136,140.20,145.70,2
136,140.11,145.61,2
137,140.05,145.52,2
137,139.99,145.43,2
137,139.93,145.35,2
136,139.85,145.26,2
137,139.79,145.17,2
137,139.74,145.09,2
136,139.66,145.00,2
135,139.57,144.90,2
136,139.50,144.81,2
135,139.41,144.71,2
136,139.34,144.63,2
135,139.25,144.53,2
135,139.17,144.44,2
136,139.11,144.35,2
135,139.02,144.26,2
135,138.94,144.16,2
137,138.90,144.09,2
135,138.83,144.00,2
136,138.77,143.92,2
135,138.69,143.83,2
135,138.62,143.74,2
135,138.55,143.66,2
135,138.48,143.57,2
135,138.41,143.49,2
134,138.32,143.39,2
135,138.25,143.31,2
134,138.17,143.21,2
136,138.12,143.14,2
135,138.06,143.06,2
134,137.98,142.97,2
134,137.90,142.88,2
133,137.80,142.78,2
134,137.73,142.69,2
136,137.69,142.63,2
133,137.60,142.53,2
134,137.53,142.44,2
135,137.48,142.37,2
135,137.43,142.30,2
134,137.36,142.21,2
134,137.29,142.13,2
133,137.20,142.04,2
135,137.16,141.97,2
134,137.10,141.89,2
134,137.04,141.81,2
134,136.97,141.73,2
133,136.90,141.65,2
133,136.82,141.56,2
135,136.78,141.49,2
133,136.71,141.41,2
133,136.63,141.32,2
135,136.60,141.26,2
133,136.53,141.18,2
133,136.46,141.10,2
133,136.39,141.02,2
133,136.32,140.94,2
133,136.25,140.86,2
133,136.19,140.78,2
133,136.12,140.70,2
133,136.06,140.62,2
133,136.00,140.55,2
132,135.92,140.46,2
133,135.86,140.39,2
132,135.78,140.30,2
133,135.73,140.23,2
131,135.63,140.14,2
132,135.56,140.06,2
132,135.49,139.98,2
132,135.42,139.90,2
132,135.35,139.82,2
132,135.29,139.74,2
135,135.28,139.69,2
132,135.21,139.61,2
131,135.13,139.53,2
131,135.05,139.44,2
132,134.99,139.37,2
131,134.91,139.28,2
132,134.85,139.21,2
130,134.75,139.12,2
130,134.66,139.03,2
131,134.58,138.95,2
131,134.51,138.87,2
130,134.42,138.78,2
132,134.37,138.71,2
131,134.31,138.64,2
130,134.22,138.55,2
130,134.14,138.46,2
128,134.01,138.36,2
129,133.91,138.27,2
131,133.85,138.19,2
129,133.76,138.10,2
129,133.66,138.01,2
129,133.57,137.92,2
129,133.48,137.83,2
129,133.39,137.74,2
129,133.30,137.65,2
129,133.21,137.57,2
129,133.13,137.48,2
129,133.05,137.40,2
129,132.97,137.31,2
129,132.89,137.23,2
128,132.79,137.14,2
129,132.71,137.06,2
128,132.62,136.97,2
127,132.51,136.87,2
128,132.42,136.78,2
128,132.33,136.69,2
127,132.22,136.59,2
128,132.14,136.51,2
127,132.03,136.41,2
127,131.93,136.32,2
127,131.83,136.22,2
127,131.74,136.13,2
127,131.64,136.04,2
127,131.55,135.95,2
127,131.46,135.86,2
127,131.37,135.77,2
127,131.28,135.69,2
127,131.20,135.60,2
127,131.11,135.51,2
127,131.03,135.43,2
127,130.95,135.34,2
127,130.87,135.26,2
127,130.79,135.18,2
127,130.72,135.10,2
126,130.62,135.00,2
127,130.55,134.92,2
127,130.48,134.84,2
126,130.39,134.76,2
126,130.30,134.67,2
126,130.22,134.58,2
125,130.11,134.49,2
126,130.03,134.40,2
125,129.93,134.31,2
125,129.83,134.21,2
125,129.73,134.12,2
125,129.64,134.03,2
125,129.55,133.94,2
125,129.46,133.85,2
125,129.37,133.76,2
125,129.28,133.68,2
125,129.19,133.59,2
127,129.15,133.52,2
125,129.07,133.44,2
125,128.99,133.35,2
125,128.91,133.27,2
125,128.83,133.19,2
125,128.75,133.10,2
125,128.68,133.02,2
125,128.60,132.94,2
125,128.53,132.86,2
124,128.44,132.78,2
123,128.33,132.68,2
123,128.22,132.58,2
124,128.14,132.50,2
125,128.08,132.42,2
124,128.00,132.34,2
125,127.94,132.26,2
123,127.84,132.17,2
125,127.78,132.10,2
124,127.70,132.02,2
123,127.61,131.93,2
124,127.54,131.85,2
124,127.47,131.77,2
124,127.40,131.69,2
124,127.33,131.61,2
124,127.26,131.54,2
123,127.18,131.45,2
124,127.12,131.38,2
123,127.03,131.30,2
121,126.91,131.19,2
123,126.83,131.11,2
123,126.76,131.03,2
122,126.66,130.94,2
123,126.59,130.86,2
122,126.50,130.77,2
123,126.43,130.69,2
121,126.32,130.60,2
121,126.21,130.50,2
121,126.11,130.41,2
121,126.01,130.31,2
119,125.87,130.20,2
121,125.77,130.11,2
121,125.67,130.02,2
121,125.58,129.92,2
121,125.49,129.84,2
121,125.40,129.75,2
121,125.31,129.66,2
121,125.22,129.57,2
121,125.14,129.49,2
121,125.06,129.40,2
122,125.00,129.33,2
120,124.90,129.24,2
121,124.82,129.15,2
120,124.72,129.06,2
120,124.63,128.97,2
121,124.55,128.89,2
120,124.46,128.80,2
120,124.37,128.71,2
119,124.27,128.62,2
121,124.20,128.54,2
120,124.12,128.46,2
120,124.03,128.37,2
120,123.95,128.29,2
123,123.94,128.23,2
120,123.86,128.15,2
120,123.78,128.07,2
120,123.70,127.99,2
121,123.65,127.92,2
121,123.60,127.85,2
120,123.52,127.77,2
120,123.45,127.69,2
120,123.39,127.62,2
121,123.34,127.55,2
119,123.25,127.47,2
120,123.19,127.39,2
119,123.10,127.31,2
120,123.04,127.23,2
120,122.98,127.16,2
120,122.92,127.09,2
119,122.84,127.01,2
118,122.74,126.92,2
119,122.67,126.84,2
120,122.62,126.77,2
119,122.54,126.69,2
120,122.49,126.63,2
119,122.42,126.55,2
119,122.35,126.48,2
117,122.25,126.38,2
120,122.20,126.32,2
119,122.14,126.24,2
118,122.06,126.16,2
117,121.95,126.07,2
118,121.88,125.99,2
119,121.82,125.92,2
118,121.74,125.84,2
115,121.61,125.73,2
118,121.53,125.65,2
117,121.44,125.57,2
117,121.36,125.48,2
117,121.27,125.40,2
117,121.18,125.31,2
117,121.10,125.23,2
117,121.02,125.15,2
117,120.94,125.07,2
115,120.82,124.97,2
118,120.76,124.90,2
117,120.69,124.82,2
117,120.61,124.74,2
117,120.54,124.66,2
117,120.47,124.58,2
117,120.40,124.51,2
117,120.33,124.43,2
116,120.25,124.35,2
116,120.16,124.27,2
117,120.10,124.19,2
115,120.00,124.10,2
117,119.94,124.03,2
115,119.84,123.94,2
116,119.76,123.86,2
116,119.68,123.78,2
115,119.59,123.69,2
115,119.50,123.61,2
117,119.45,123.54,2
116,119.38,123.47,2
115,119.29,123.38,2
117,119.25,123.32,2
115,119.16,123.23,2
116,119.10,123.16,2
115,119.02,123.08,2
115,118.94,123.00,2
115,118.86,122.92,2
116,118.80,122.85,2
115,118.72,122.77,2
116,118.67,122.70,2
115,118.60,122.63,2
115,118.52,122.55,2
114,118.43,122.47,2
115,118.37,122.39,2
114,118.28,122.31,2
115,118.21,122.23,2
115,118.15,122.16,2
115,118.09,122.09,2
115,118.02,122.02,2
114,117.94,121.94,2
115,117.88,121.87,2
115,117.83,121.80,2
113,117.73,121.71,2
114,117.66,121.64,2
115,117.60,121.57,2
114,117.53,121.49,2
115,117.48,121.43,2
114,117.41,121.35,2
115,117.36,121.29,2
114,117.29,121.22,2
115,117.25,121.16,2
113,117.16,121.07,2
114,117.10,121.00,2
114,117.04,120.93,2
114,116.98,120.86,2
115,116.94,120.81,2
114,116.88,120.74,2
114,116.82,120.67,2
115,116.79,120.61,2
113,116.71,120.54,2
114,116.66,120.47,2
113,116.58,120.40,2
113,116.51,120.32,2
115,116.48,120.27,2
115,116.45,120.22,2
115,116.42,120.16,2
114,116.37,120.10,2
113,116.31,120.03,2
113,116.24,119.96,2
114,116.20,119.90,2
113,116.13,119.83,2
114,116.09,119.77,2
113,116.03,119.71,2
114,115.99,119.65,2
115,115.97,119.60,2
113,115.91,119.54,2
114,115.87,119.48,2
114,115.83,119.43,2
113,115.78,119.36,2
115,115.76,119.32,2
115,115.74,119.28,2
115,115.73,119.23,2
115,115.72,119.19,2
115,115.70,119.15,2
116,115.71,119.12,2
113,115.65,119.06,2
115,115.64,119.02,2
113,115.59,118.96,2
116,115.60,118.93,2
114,115.56,118.88,2
115,115.55,118.84,2
115,115.54,118.80,2
115,115.53,118.76,2
116,115.54,118.73,2
115,115.53,118.70,2
115,115.52,118.66,2
114,115.49,118.61,2
115,115.48,118.58,2
115,115.47,118.54,2
115,115.46,118.51,2
115,115.45,118.47,2
115,115.44,118.44,2
113,115.39,118.38,2
115,115.38,118.35,2
114,115.36,118.30,2
115,115.35,118.27,2
113,115.30,118.22,2
113,115.26,118.17,2
113,115.21,118.11,2
113,115.17,118.06,2
114,115.14,118.02,2
113,115.10,117.97,2
113,115.06,117.92,2
113,115.02,117.87,2
113,114.98,117.83,2
113,114.94,117.78,2
113,114.90,117.73,2
113,114.86,117.68,2
113,114.82,117.64,2
113,114.79,117.59,2
114,114.77,117.55,2
113,114.74,117.51,2
112,114.68,117.45,2
112,114.63,117.40,2
117,114.68,117.39,2
113,114.64,117.35,2
113,114.61,117.31,2
111,114.54,117.24,2
113,114.51,117.20,2
113,114.48,117.16,2
112,114.43,117.11,2
113,114.40,117.07,2
113,114.37,117.03,2
113,114.34,116.99,2
113,114.32,116.95,2
112,114.27,116.90,2
113,114.24,116.86,2
115,114.26,116.84,2
115,114.27,116.82,2
113,114.25,116.78,2
112,114.20,116.73,2
113,114.18,116.70,2
114,114.18,116.67,2
113,114.15,116.63,2
111,114.09,116.58,2
113,114.07,116.54,2
113,114.05,116.51,2
115,114.07,116.49,2
113,114.04,116.46,2
113,114.02,116.42,2
113,114.00,116.39,2
113,113.98,116.35,2
115,114.00,116.34,2
114,114.00,116.32,2
113,113.98,116.28,2
114,113.98,116.26,2
115,114.00,116.25,2
115,114.02,116.23,2
114,114.02,116.21,2
115,114.04,116.20,2
115,114.06,116.19,2
115,114.08,116.18,2
114,114.08,116.15,2
115,114.10,116.14,2
115,114.12,116.13,2
115,114.13,116.12,2
116,114.17,116.12,2
116,114.21,116.12,2
117,114.26,116.13,2
119,114.36,116.16,2
117,114.41,116.16,2
119,114.50,116.19,2
117,114.55,116.20,2
117,114.60,116.21,2
117,114.65,116.22,2
118,114.72,116.23,2
120,114.82,116.27,2
119,114.91,116.30,2
119,114.99,116.33,2
119,115.07,116.35,2
117,115.11,116.36,2
117,115.14,116.37,2
119,115.22,116.39,2
118,115.28,116.41,2
119,115.35,116.43,2
119,115.42,116.46,2
119,115.50,116.49,2
119,115.57,116.51,2
119,115.63,116.54,2
119,115.70,116.56,2
119,115.77,116.58,2
120,115.85,116.62,2
119,115.92,116.64,2
121,116.02,116.69,2
120,116.10,116.72,2
121,116.19,116.76,2
120,116.27,116.79,2
121,116.37,116.84,2
121,116.46,116.88,2
121,116.55,116.92,2
120,116.62,116.95,2
120,116.69,116.98,2
120,116.75,117.01,2
122,116.86,117.06,2
121,116.94,117.10,2
121,117.02,117.14,2
121,117.10,117.18,2
123,117.22,117.24,2
123,117.33,117.29,2
121,117.41,117.33,2
121,117.48,117.37,2
121,117.55,117.40,2
121,117.62,117.44,2
121,117.69,117.48,2
121,117.75,117.51,2
121,117.82,117.55,2
121,117.88,117.58,2
121,117.94,117.61,2
120,117.98,117.64,2
121,118.05,117.67,2
123,118.14,117.72,2
121,118.20,117.76,2
122,118.28,117.80,2
124,118.39,117.86,2
122,118.46,117.90,2
122,118.53,117.94,2
122,118.60,117.98,2
122,118.67,118.03,2
122,118.74,118.06,2
123,118.82,118.11,2
123,118.91,118.16,2
124,119.01,118.22,2
123,119.09,118.27,2
123,119.17,118.32,2
123,119.24,118.36,2
125,119.36,118.43,2
123,119.43,118.48,2
125,119.54,118.54,2
125,119.65,118.61,2
124,119.74,118.66,2
125,119.84,118.72,2
125,119.95,118.79,2
125,120.05,118.85,2
126,120.17,118.92,2
127,120.30,119.00,2
126,120.42,119.07,2
126,120.53,119.14,2
126,120.64,119.21,2
126,120.75,119.28,2
125,120.83,119.33,2
125,120.91,119.39,2
125,121.00,119.45,2
127,121.12,119.52,2
125,121.19,119.58,2
125,121.27,119.63,2
125,121.34,119.68,2
126,121.44,119.75,2
125,121.51,119.80,2
126,121.60,119.86,2
125,121.67,119.91,2
125,121.73,119.96,2
125,121.80,120.01,2
125,121.86,120.06,2
126,121.95,120.12,2
127,122.05,120.19,2
125,122.11,120.24,2
126,122.18,120.30,2
125,122.24,120.34,2
127,122.34,120.41,2
127,122.43,120.48,2
128,122.54,120.55,2
127,122.63,120.62,2
128,122.74,120.69,2
131,122.90,120.79,2
127,122.98,120.86,2
128,123.08,120.93,2
127,123.16,120.99,2
129,123.28,121.07,2
127,123.35,121.13,2
128,123.45,121.20,2
128,123.54,121.26,2
129,123.65,121.34,2
129,123.75,121.42,2
129,123.86,121.49,2
129,123.96,121.57,2
129,124.06,121.64,2
129,124.16,121.72,2
130,124.28,121.80,2
131,124.41,121.89,2
128,124.48,121.95,2
133,124.65,122.06,2
132,124.80,122.16,2
131,124.93,122.25,2
131,125.05,122.34,2
132,125.19,122.44,2
132,125.32,122.53,2
131,125.44,122.62,2
132,125.57,122.71,2
133,125.72,122.81,2
133,125.86,122.91,2
133,126.00,123.02,2
135,126.18,123.14,2
133,126.32,123.23,2
135,126.49,123.35,2
135,126.66,123.47,2
137,126.87,123.60,2
137,127.07,123.74,2
137,127.27,123.87,2
137,127.47,124.00,2
139,127.70,124.15,2
140,127.94,124.31,2
139,128.16,124.46,2
141,128.42,124.62,2
139,128.63,124.77,2
140,128.86,124.92,2
139,129.06,125.06,2
141,129.30,125.22,2
141,129.54,125.38,2
141,129.76,125.53,2
142,130.01,125.70,2
141,130.23,125.85,2
141,130.44,126.00,2
143,130.70,126.17,2
141,130.90,126.32,2
143,131.14,126.49,2
141,131.34,126.63,2
143,131.57,126.80,2
143,131.80,126.96,2
149,132.15,127.18,2
147,132.44,127.38,2
147,132.74,127.57,2
148,133.04,127.78,2
147,133.32,127.97,2
149,133.63,128.18,2
149,133.94,128.39,2
150,134.26,128.60,2
150,134.58,128.82,2
151,134.90,129.04,2
149,135.19,129.24,2
151,135.50,129.46,2
152,135.83,129.68,2
153,136.18,129.92,2
153,136.51,130.15,2
152,136.82,130.36,2
153,137.15,130.59,2
155,137.50,130.84,2
153,137.81,131.06,2
153,138.12,131.28,2
155,138.45,131.51,2
157,138.83,131.77,2
157,139.19,132.02,2
156,139.53,132.26,2
157,139.87,132.51,2
157,140.22,132.75,2
157,140.55,133.00,2
157,140.88,133.24,2
157,141.20,133.47,2
156,141.50,133.70,2
156,141.79,133.92,2
157,142.09,134.15,2
158,142.41,134.39,2
159,142.74,134.64,2
159,143.07,134.88,2
158,143.37,135.11,2
160,143.70,135.36,2
159,144.01,135.60,2
159,144.31,135.83,2
160,144.62,136.07,2
159,144.91,136.30,2
161,145.23,136.55,2
160,145.53,136.78,2
161,145.83,137.03,2
161,146.14,137.27,2
163,146.48,137.52,2
162,146.79,137.77,2
164,147.13,138.03,2
165,147.49,138.30,2
165,147.84,138.57,2
165,148.18,138.83,2
165,148.52,139.09,2
164,148.83,139.34,2
165,149.15,139.60,2
167,149.51,139.87,2
167,149.86,140.14,2
166,150.18,140.40,2
166,150.50,140.66,2
167,150.83,140.92,2
167,151.15,141.18,2
168,151.49,141.45,2
167,151.80,141.71,2
167,152.10,141.96,2
168,152.42,142.22,2
167,152.71,142.47,2
167,153.00,142.71,2
169,153.32,142.98,2
167,153.59,143.22,2
167,153.86,143.45,2
168,154.14,143.70,2
168,154.42,143.94,2
170,154.73,144.20,2
169,155.02,144.45,2
169,155.30,144.70,2
169,155.57,144.94,2
169,155.84,145.18,2
168,156.08,145.41,2
169,156.34,145.64,2
169,156.59,145.88,2
168,156.82,146.10,2
169,157.06,146.33,2
171,157.34,146.57,2
170,157.60,146.81,2
171,157.86,147.05,2
173,158.17,147.31,2
173,158.46,147.57,2
172,158.73,147.81,2
172,159.00,148.05,2
173,159.28,148.30,2
172,159.53,148.54,2
172,159.78,148.77,2
171,160.01,149.00,2
171,160.23,149.22,2
171,160.44,149.43,2
173,160.69,149.67,2
172,160.92,149.89,2
172,161.14,150.11,2
171,161.34,150.32,2
173,161.57,150.55,2
172,161.78,150.76,2
172,161.99,150.98,2
172,162.19,151.19,2
172,162.38,151.39,2
173,162.59,151.61,2
172,162.78,151.81,2
172,162.97,152.02,2
172,163.15,152.22,2
172,163.32,152.41,2
172,163.50,152.61,2
173,163.69,152.81,2
171,163.83,153.00,2
173,164.02,153.20,2
173,164.20,153.39,2
175,164.41,153.61,2
176,164.65,153.83,2
178,164.91,154.08,2
177,165.15,154.30,2
177,165.39,154.53,2
177,165.62,154.76,2
180,165.91,155.01,2
179,166.17,155.25,2
180,166.45,155.50,2
179,166.70,155.73,2
180,166.97,155.97,2
179,167.21,156.20,2
179,167.44,156.43,2
180,167.69,156.67,2
180,167.94,156.90,2
180,168.18,157.13,2
179,168.40,157.35,2
180,168.63,157.58,2
179,168.84,157.79,2
180,169.06,158.01,2
179,169.26,158.22,2
179,169.45,158.43,2
177,169.60,158.62,2
180,169.81,158.83,2
179,170.00,159.03,2
179,170.18,159.23,2
179,170.35,159.43,2
180,170.55,159.64,2
180,170.74,159.84,2
179,170.90,160.03,2
181,171.10,160.24,2
180,171.28,160.44,2
180,171.45,160.63,2
179,171.61,160.82,2
179,171.75,161.00,2
179,171.90,161.18,2
181,172.08,161.38,2
180,172.24,161.56,2
180,172.39,161.75,2
179,172.53,161.92,2
182,172.72,162.12,2
182,172.90,162.32,2
181,173.06,162.51,2
181,173.22,162.69,2
180,173.36,162.87,2
181,173.51,163.05,2
179,173.62,163.21,2
180,173.75,163.37,2
179,173.85,163.53,2
180,173.98,163.69,2
179,174.08,163.85,2
179,174.17,164.00,2
179,174.27,164.15,2
180,174.39,164.31,2
179,174.48,164.45,2
179,174.57,164.60,2
178,174.64,164.73,2
177,174.68,164.86,2
177,174.73,164.98,2
177,174.78,165.10,2
177,174.82,165.22,2
177,174.86,165.34,2
178,174.93,165.46,2
177,174.97,165.58,2
177,175.01,165.69,2
176,175.03,165.79,2
176,175.05,165.90,2
176,175.07,166.00,2
177,175.11,166.11,2
175,175.10,166.20,2
175,175.10,166.28,2
175,175.10,166.37,2
176,175.12,166.47,2
175,175.12,166.55,2
175,175.11,166.64,2
176,175.13,166.73,2
174,175.11,166.80,2
175,175.11,166.89,2
174,175.08,166.96,2
175,175.08,167.04,2
173,175.04,167.10,2
173,175.00,167.16,2
173,174.96,167.21,2
173,174.92,167.27,2
173,174.88,167.33,2
173,174.84,167.39,2
172,174.79,167.43,2
172,174.73,167.48,2
171,174.66,167.51,2
172,174.60,167.56,2
171,174.53,167.59,2
171,174.46,167.63,2
171,174.39,167.66,2
171,174.32,167.69,2
171,174.26,167.73,2
171,174.19,167.76,2
170,174.11,167.78,2
170,174.03,167.80,2
170,173.95,167.83,2
169,173.85,167.84,2
169,173.75,167.85,2
169,173.66,167.86,2
169,173.56,167.87,2
169,173.47,167.88,2
169,173.38,167.90,2
168,173.27,167.90,2
169,173.19,167.91,2
167,173.06,167.90,2
167,172.94,167.89,2
167,172.82,167.88,2
167,172.71,167.87,2
167,172.59,167.86,2
167,172.48,167.85,2
166,172.35,167.84,2
166,172.23,167.82,2
165,172.08,167.79,2
165,171.94,167.76,2
165,171.80,167.73,2
165,171.66,167.71,2
165,171.53,167.68,2
164,171.38,167.64,2
165,171.25,167.62,2
164,171.11,167.58,2
163,170.95,167.53,2
163,170.79,167.49,2
162,170.61,167.43,2
164,170.48,167.40,2
164,170.35,167.37,2
163,170.20,167.32,2
163,170.06,167.28,2
165,169.96,167.26,2
162,169.80,167.20,2
161,169.62,167.14,2
161,169.45,167.08,2
162,169.30,167.03,2
162,169.15,166.98,2
161,168.99,166.92,2
161,168.83,166.86,2
161,168.68,166.80,2
160,168.50,166.73,2
161,168.35,166.68,2
160,168.18,166.61,2
160,168.02,166.54,2
161,167.88,166.49,2
160,167.72,166.42,2
159,167.55,166.35,2
156,167.32,166.25,2
159,167.15,166.17,2
158,166.97,166.09,2
159,166.81,166.02,2
158,166.63,165.94,2
158,166.46,165.86,2
158,166.29,165.78,2
157,166.10,165.69,2
157,165.92,165.61,2
159,165.78,165.54,2
157,165.61,165.46,2
157,165.44,165.37,3
157,165.27,165.29,3
157,165.10,165.20,4
157,164.94,165.12,4
157,164.78,165.04,4
157,164.63,164.96,4
157,164.47,164.88,4
155,164.28,164.78,4
156,164.12,164.69,4
157,163.98,164.62,4
157,163.84,164.54,4
157,163.70,164.47,4
156,163.55,164.38,4
157,163.41,164.31,4
155,163.25,164.21,4
156,163.10,164.13,4
156,162.96,164.05,4
156,162.82,163.97,4
156,162.68,163.89,4
155,162.53,163.80,4
155,162.38,163.71,4
155,162.23,163.63,4
153,162.05,163.52,4
154,161.89,163.43,4
154,161.73,163.33,4
154,161.57,163.24,4
155,161.44,163.16,4
153,161.27,163.05,4
156,161.17,162.98,4
153,161.00,162.88,4
153,160.84,162.78,4
152,160.67,162.68,4
152,160.49,162.57,4
153,160.34,162.47,4
153,160.20,162.38,4
151,160.01,162.27,4
153,159.87,162.17,4
151,159.70,162.06,4
151,159.52,161.95,4
151,159.35,161.84,4
151,159.18,161.73,4
151,159.02,161.63,4
150,158.84,161.51,4
150,158.66,161.39,4
150,158.49,161.28,4
149,158.30,161.16,4
149,158.11,161.04,4
149,157.93,160.92,4
149,157.75,160.80,4
149,157.58,160.68,4
149,157.41,160.56,4
148,157.22,160.44,4
149,157.05,160.32,4
149,156.89,160.21,4
149,156.74,160.10,4
148,156.56,159.98,4
149,156.41,159.87,4
147,156.22,159.74,4
148,156.06,159.62,4
147,155.88,159.49,4
148,155.72,159.38,4
147,155.54,159.25,4
148,155.39,159.14,4
147,155.23,159.02,4
147,155.06,158.90,4
147,154.90,158.78,4
147,154.74,158.66,4
147,154.59,158.55,4
148,154.46,158.44,4
146,154.29,158.32,4
146,154.12,158.19,4
145,153.94,158.06,4
145,153.76,157.93,4
145,153.58,157.80,4
145,153.41,157.67,4
145,153.24,157.55,4
145,153.08,157.42,4
144,152.90,157.29,4
144,152.72,157.15,4
144,152.55,157.02,4
144,152.37,156.89,4
143,152.19,156.75,4
143,152.00,156.62,4
143,151.82,156.48,4
143,151.65,156.35,4
144,151.49,156.22,4
143,151.32,156.09,4
143,151.16,155.96,4
141,150.95,155.81,4
143,150.80,155.68,4
143,150.64,155.55,4
143,150.49,155.43,4
142,150.32,155.29,4
142,150.15,155.16,4
143,150.01,155.04,4
141,149.83,154.90,4
141,149.65,154.76,4
142,149.50,154.63,4
141,149.33,154.50,4
141,149.16,154.36,4
141,149.00,154.23,4
140,148.82,154.09,4
141,148.66,153.96,4
140,148.49,153.82,4
139,148.30,153.67,4
140,148.13,153.53,4
140,147.97,153.40,4
139,147.79,153.25,4
140,147.63,153.12,4
140,147.48,152.99,4
139,147.31,152.85,4
139,147.15,152.71,4
139,146.98,152.57,4
140,146.84,152.45,4
139,146.69,152.31,4
139,146.53,152.18,4
138,146.36,152.04,4
139,146.22,151.91,4
137,146.03,151.76,4
137,145.85,151.61,4
138,145.69,151.47,4
137,145.52,151.33,4
139,145.39,151.21,4
138,145.24,151.07,4
137,145.08,150.93,4
137,144.91,150.79,4
137,144.76,150.66,4
136,144.58,150.51,4
137,144.43,150.37,4
136,144.26,150.23,4
136,144.10,150.09,4
136,143.93,149.95,4
137,143.80,149.82,4
135,143.62,149.67,4
135,143.45,149.52,4
135,143.28,149.38,4
135,143.11,149.23,4
136,142.97,149.10,4
133,142.77,148.94,4
135,142.62,148.80,4
136,142.48,148.67,4
135,142.33,148.54,4
135,142.19,148.40,4
133,142.00,148.25,4
134,141.84,148.10,4
135,141.71,147.97,4
134,141.55,147.83,4
133,141.38,147.69,4
133,141.21,147.54,4
133,141.05,147.39,4
133,140.89,147.25,4
133,140.73,147.11,4
133,140.58,146.97,4
133,140.42,146.83,4
133,140.28,146.69,4
133,140.13,146.55,4
131,139.95,146.40,4
132,139.79,146.25,4
132,139.63,146.11,4
132,139.48,145.97,4
133,139.35,145.84,4
132,139.20,145.70,4
132,139.06,145.56,4
131,138.90,145.42,4
132,138.76,145.28,4
131,138.61,145.14,4
132,138.47,145.01,4
131,138.32,144.87,4
129,138.14,144.71,4
131,137.99,144.57,4
131,137.85,144.44,4
131,137.72,144.30,4
132,137.60,144.18,4
130,137.45,144.04,4
131,137.32,143.91,4
129,137.16,143.76,4
130,137.01,143.62,4
133,136.93,143.51,4
130,136.79,143.38,4
130,136.66,143.25,4
130,136.52,143.11,4
131,136.41,142.99,4
129,136.27,142.85,4
129,136.12,142.71,4
131,136.02,142.60,4
130,135.90,142.47,4
130,135.78,142.35,4
131,135.68,142.23,4
130,135.57,142.11,4
131,135.48,142.00,4
130,135.37,141.88,4
130,135.26,141.76,4
129,135.14,141.63,4
129,135.01,141.51,4
129,134.89,141.38,4
129,134.78,141.26,4
129,134.66,141.14,4
129,134.55,141.01,4
129,134.44,140.89,4
129,134.33,140.77,4
129,134.22,140.66,4
129,134.12,140.54,4
129,134.01,140.42,4
129,133.91,140.31,4
129,133.82,140.20,4
129,133.72,140.09,4
130,133.65,139.98,4
129,133.55,139.87,4
129,133.46,139.77,4
129,133.37,139.66,4
130,133.30,139.56,4
129,133.22,139.46,4
129,133.13,139.35,4
129,133.05,139.25,4
129,132.97,139.15,4
129,132.89,139.04,4
129,132.81,138.94,4
127,132.70,138.82,4
128,132.60,138.72,4
129,132.53,138.62,4
128,132.44,138.51,4
129,132.37,138.42,4
128,132.28,138.31,4
128,132.20,138.21,4
127,132.09,138.10,4
127,131.99,137.99,4
127,131.89,137.88,4
128,131.81,137.78,4
127,131.72,137.67,4
127,131.62,137.56,4
129,131.57,137.48,4
127,131.48,137.37,4
125,131.35,137.25,4
127,131.26,137.15,4
127,131.18,137.05,4
127,131.09,136.95,4
127,131.01,136.85,4
127,130.93,136.75,4
127,130.85,136.65,4
127,130.78,136.55,4
127,130.70,136.46,4
127,130.63,136.36,4
127,130.55,136.27,4
127,130.48,136.18,4
127,130.41,136.09,4
127,130.35,135.99,4
126,130.26,135.89,4
127,130.19,135.81,4
127,130.13,135.72,4
127,130.07,135.63,4
127,130.01,135.54,4
127,129.95,135.46,4
127,129.89,135.37,4
127,129.83,135.29,4
126,129.75,135.20,4
126,129.68,135.11,4
125,129.58,135.00,4
126,129.51,134.91,4
128,129.48,134.85,4
127,129.43,134.77,4
127,129.38,134.69,4
127,129.34,134.61,4
127,129.29,134.54,4
127,129.24,134.46,4
127,129.20,134.39,4
127,129.15,134.31,4
127,129.11,134.24,4
127,129.07,134.17,4
127,129.03,134.10,4
127,128.99,134.02,4
125,128.91,133.93,4
129,128.91,133.88,4
125,128.83,133.80,4
126,128.77,133.72,4
126,128.72,133.64,4
125,128.64,133.55,4
127,128.61,133.49,4
126,128.56,133.41,4
125,128.49,133.33,4
125,128.42,133.25,4
125,128.35,133.16,4
126,128.30,133.09,4
125,128.24,133.01,4
125,128.17,132.93,4
125,128.11,132.85,4
128,128.11,132.80,4
125,128.04,132.73,4
123,127.94,132.63,4
125,127.88,132.55,4
124,127.81,132.47,4
124,127.73,132.38,4
125,127.68,132.31,4
124,127.60,132.22,4
124,127.53,132.14,4
124,127.46,132.06,4
123,127.37,131.97,4
124,127.30,131.89,4
123,127.22,131.80,4
124,127.15,131.72,4
123,127.07,131.64,4
123,126.99,131.55,4
123,126.91,131.46,4
123,126.83,131.38,4
122,126.73,131.29,4
121,126.62,131.18,4
123,126.55,131.10,4
123,126.48,131.02,4
122,126.39,130.93,4
122,126.30,130.84,4
122,126.21,130.75,4
121,126.11,130.66,4
121,126.01,130.56,4
121,125.91,130.46,4
121,125.81,130.37,4
122,125.73,130.28,4
121,125.64,130.19,4
121,125.54,130.10,4
121,125.45,130.01,4
121,125.36,129.92,4
121,125.28,129.83,4
121,125.19,129.74,4
121,125.11,129.65,4
121,125.03,129.57,4
121,124.95,129.48,4
121,124.87,129.40,4
121,124.79,129.31,4
120,124.69,129.22,4
120,124.60,129.13,4
120,124.51,129.04,4
120,124.42,128.95,4
120,124.33,128.86,4
120,124.24,128.77,4
120,124.16,128.68,4
120,124.07,128.59,4
120,123.99,128.51,4
119,123.89,128.41,4
119,123.80,128.32,4
120,123.72,128.24,4
120,123.64,128.15,4
119,123.55,128.06,4
119,123.46,127.97,4
119,123.37,127.88,4
119,123.28,127.79,4
119,123.20,127.70,4
118,123.09,127.61,4
119,123.01,127.52,4
118,122.91,127.43,4
119,122.83,127.34,4
119,122.76,127.26,4
118,122.66,127.17,4
117,122.55,127.06,4
119,122.48,126.98,4
118,122.39,126.89,4
118,122.30,126.80,4
118,122.21,126.72,4
117,122.11,126.62,4
117,122.01,126.52,4
117,121.91,126.43,4
117,121.81,126.33,4
117,121.71,126.24,4
117,121.62,126.15,4
117,121.53,126.06,4
117,121.44,125.97,4
117,121.35,125.88,4
117,121.26,125.79,4
117,121.18,125.70,4
117,121.09,125.61,4
116,120.99,125.52,4
117,120.91,125.43,4
117,120.83,125.35,4
117,120.76,125.26,4
116,120.66,125.17,4
116,120.57,125.08,4
115,120.46,124.98,4
117,120.39,124.90,4
115,120.28,124.80,4
115,120.17,124.70,4
115,120.07,124.60,4
115,119.97,124.51,4
116,119.89,124.42,4
117,119.83,124.35,4
115,119.73,124.26,4
115,119.64,124.16,4
115,119.55,124.07,4
115,119.46,123.98,4
116,119.39,123.90,4
115,119.30,123.81,4
115,119.21,123.72,4
115,119.13,123.64,4
115,119.05,123.55,4
115,118.97,123.46,4
115,118.89,123.38,4
115,118.81,123.30,4
115,118.73,123.21,4
115,118.66,123.13,4
115,118.58,123.05,4
115,118.51,122.97,4
115,118.44,122.89,4
115,118.37,122.81,4
115,118.31,122.73,4
113,118.20,122.64,4
114,118.12,122.55,4
115,118.05,122.47,4
114,117.97,122.39,4
115,117.91,122.32,4
114,117.84,122.23,4
113,117.74,122.14,4
114,117.66,122.06,4
114,117.59,121.98,4
113,117.50,121.89,4
113,117.41,121.80,4
113,117.32,121.71,4
115,117.27,121.64,4
113,117.19,121.56,4
113,117.10,121.47,4
113,117.02,121.39,4
113,116.94,121.30,4
113,116.86,121.22,4
113,116.79,121.14,4
113,116.71,121.06,4
117,116.72,121.02,4
113,116.64,120.94,4
113,116.57,120.86,4
113,116.50,120.78,4
113,116.43,120.70,4
113,116.36,120.62,4
113,116.29,120.55,4
113,116.23,120.47,4
113,116.16,120.40,4
113,116.10,120.32,4
113,116.04,120.25,4
113,115.98,120.18,4
113,115.92,120.11,4
113,115.86,120.03,4
113,115.80,119.96,4
112,115.72,119.88,4
112,115.65,119.81,4
112,115.58,119.73,4
113,115.53,119.66,4
112,115.46,119.58,4
111,115.37,119.50,4
111,115.28,119.41,4
112,115.21,119.34,4
111,115.13,119.26,4
113,115.09,119.19,4
112,115.02,119.12,4
113,114.98,119.06,4
112,114.92,118.99,4
111,114.85,118.91,4
111,114.77,118.83,4
111,114.69,118.75,4
111,114.62,118.67,4
111,114.55,118.60,4
111,114.48,118.52,4
111,114.41,118.45,4
111,114.34,118.37,4
111,114.27,118.30,4
111,114.21,118.23,4
111,114.14,118.15,4
110,114.06,118.07,4
110,113.98,117.99,4
111,113.92,117.92,4
110,113.84,117.84,4
111,113.78,117.77,4
109,113.69,117.69,4
109,113.59,117.60,4
109,113.50,117.51,4
111,113.45,117.45,4
109,113.36,117.36,4
109,113.28,117.28,4
109,113.19,117.20,4
109,113.11,117.11,4
110,113.04,117.04,4
109,112.96,116.96,4
109,112.88,116.88,4
109,112.81,116.80,4
109,112.73,116.73,4
109,112.66,116.65,4
109,112.58,116.57,4
109,112.51,116.50,4
109,112.44,116.42,4
109,112.37,116.35,4
109,112.30,116.27,4
109,112.24,116.20,4
110,112.19,116.14,4
109,112.13,116.07,4
109,112.07,116.00,4
109,112.01,115.93,4
109,111.95,115.86,4
109,111.89,115.79,4
110,111.85,115.73,4
109,111.79,115.66,4
109,111.74,115.60,4
109,111.68,115.53,4
109,111.63,115.47,4
109,111.58,115.40,4
109,111.52,115.34,4
109,111.47,115.27,4
109,111.42,115.21,4
111,111.42,115.17,4
109,111.37,115.11,4
109,111.32,115.05,4
109,111.27,114.99,4
109,111.23,114.93,4
109,111.18,114.87,4
107,111.10,114.79,4
109,111.06,114.73,4
109,111.02,114.67,4
109,110.98,114.62,4
108,110.92,114.55,4
109,110.88,114.49,4
107,110.80,114.42,4
108,110.74,114.36,4
108,110.69,114.29,4
108,110.64,114.23,4
107,110.56,114.16,4
108,110.51,114.10,4
107,110.44,114.02,4
107,110.37,113.95,4
107,110.31,113.88,4
107,110.24,113.82,4
108,110.19,113.76,4
107,110.13,113.69,4
107,110.07,113.62,4
107,110.01,113.56,4
107,109.95,113.49,4
106,109.87,113.42,4
105,109.77,113.33,4
105,109.68,113.25,4
107,109.62,113.19,4
107,109.57,113.12,4
108,109.54,113.07,4
107,109.49,113.01,4
109,109.48,112.97,4
108,109.45,112.92,4
108,109.42,112.87,4
108,109.39,112.82,4
108,109.36,112.78,4
109,109.36,112.74,4
107,109.31,112.68,4
108,109.28,112.63,4
108,109.26,112.59,4
108,109.23,112.54,4
107,109.19,112.49,4
109,109.18,112.45,4
108,109.16,112.41,4
109,109.16,112.37,4
108,109.13,112.33,4
109,109.13,112.30,4
107,109.09,112.24,4
108,109.07,112.20,4
108,109.04,112.16,4
107,109.00,112.11,4
108,108.98,112.07,4
109,108.98,112.04,4
108,108.96,112.00,4
107,108.93,111.95,4
109,108.93,111.92,4
108,108.91,111.88,4
108,108.89,111.84,4
108,108.87,111.80,4
108,108.85,111.76,4
108,108.84,111.72,4
109,108.84,111.70,4
107,108.80,111.65,4
107,108.77,111.60,4
108,108.75,111.57,4
109,108.76,111.54,4
108,108.74,111.51,4
110,108.77,111.49,4
109,108.77,111.47,4
110,108.80,111.45,4
108,108.78,111.42,4
108,108.77,111.38,4
109,108.77,111.36,4
107,108.73,111.32,4
109,108.74,111.29,4
109,108.75,111.27,4
108,108.73,111.24,4
109,108.74,111.21,4
109,108.74,111.19,4
109,108.75,111.17,4
109,108.75,111.15,4
109,108.76,111.13,4
109,108.76,111.11,4
108,108.75,111.07,4
109,108.75,111.05,4
109,108.76,111.03,4
109,108.76,111.01,4
109,108.77,110.99,4
109,108.77,110.97,4
109,108.77,110.95,4
109,108.78,110.93,4
108,108.76,110.90,4
109,108.77,110.89,4
109,108.77,110.87,4
108,108.76,110.84,4
109,108.76,110.82,4
108,108.75,110.79,4
108,108.73,110.76,4
108,108.72,110.74,4
108,108.70,110.71,4
109,108.71,110.69,4
109,108.72,110.67,4
109,108.72,110.66,4
108,108.71,110.63,4
108,108.69,110.60,4
107,108.66,110.57,4
108,108.65,110.54,4
107,108.61,110.51,4
107,108.58,110.47,4
108,108.57,110.45,4
109,108.58,110.43,4
110,108.61,110.43,4
109,108.61,110.41,4
109,108.62,110.40,4
109,108.63,110.39,4
109,108.64,110.37,4
110,108.66,110.37,4
109,108.67,110.36,4
111,108.72,110.36,4
109,108.72,110.35,4
109,108.73,110.33,4
109,108.73,110.32,4
109,108.74,110.31,4
111,108.78,110.31,4
110,108.81,110.31,4
111,108.85,110.32,4
110,108.88,110.32,4
109,108.88,110.30,4
109,108.88,110.29,4
111,108.92,110.30,4
111,108.96,110.30,4
111,109.00,110.31,4
112,109.06,110.33,4
113,109.14,110.35,4
113,109.22,110.38,4
112,109.28,110.40,4
111,109.31,110.40,4
111,109.34,110.41,4
109,109.34,110.39,4
111,109.37,110.40,4
111,109.40,110.41,4
111,109.44,110.41,4
111,109.47,110.42,4
112,109.52,110.43,4
111,109.55,110.44,4
111,109.58,110.45,4
111,109.60,110.45,4
111,109.63,110.46,4
110,109.64,110.45,4
111,109.67,110.46,4
111,109.69,110.46,4
110,109.70,110.46,4
109,109.69,110.44,4
109,109.67,110.43,4
109,109.66,110.41,4
111,109.69,110.42,4
111,109.71,110.43,4
110,109.72,110.42,4
111,109.74,110.43,4
111,109.77,110.43,4
111,109.79,110.44,4
111,109.82,110.45,4
111,109.84,110.45,4
111,109.86,110.46,4
111,109.89,110.46,4
111,109.91,110.47,4
111,109.93,110.47,4
112,109.97,110.49,4
111,109.99,110.49,4
111,110.01,110.50,4
109,109.99,110.48,4
111,110.01,110.49,4
111,110.03,110.49,4
111,110.05,110.50,4
112,110.09,110.51,4
111,110.11,110.52,4
112,110.15,110.53,4
111,110.16,110.54,4
111,110.18,110.54,4
112,110.22,110.56,4
112,110.25,110.57,4
111,110.27,110.58,4
111,110.28,110.58,4
111,110.30,110.58,4
111,110.31,110.59,4
111,110.32,110.59,4
111,110.34,110.60,4
109,110.31,110.58,4
111,110.32,110.58,4
111,110.34,110.59,4
111,110.35,110.59,4
111,110.36,110.60,4
111,110.38,110.60,4
111,110.39,110.60,4
110,110.38,110.60,4
111,110.39,110.60,4
110,110.39,110.60,4
111,110.40,110.60,4
110,110.39,110.59,4
109,110.36,110.58,4
110,110.36,110.57,4
111,110.37,110.58,4
109,110.34,110.56,4
110,110.33,110.56,4
110,110.33,110.55,4
109,110.30,110.53,4
109,110.28,110.52,4
109,110.25,110.50,4
109,110.22,110.49,4
109,110.20,110.47,4
110,110.20,110.47,4
109,110.17,110.46,4
110,110.17,110.45,4
111,110.19,110.46,4
112,110.22,110.47,4
111,110.24,110.48,4
116,110.35,110.53,4
113,110.41,110.56,4
113,110.46,110.58,4
111,110.47,110.59,4
113,110.52,110.61,4
113,110.57,110.63,4
114,110.64,110.67,4
113,110.68,110.69,4
113,110.73,110.71,4
113,110.78,110.74,4
113,110.82,110.76,4
111,110.82,110.76,4
113,110.87,110.78,4
113,110.91,110.81,4
114,110.97,110.84,4
113,111.01,110.86,4
115,111.09,110.90,4
115,111.17,110.94,4
113,111.21,110.96,4
113,111.24,110.98,4
115,111.32,111.02,4
114,111.37,111.05,4
113,111.40,111.07,4
113,111.44,111.09,4
113,111.47,111.11,4
114,111.52,111.14,4
113,111.55,111.16,4
114,111.60,111.19,4
114,111.65,111.21,4
113,111.67,111.23,4
113,111.70,111.25,4
113,111.72,111.27,4
113,111.75,111.28,4
113,111.78,111.30,4
113,111.80,111.32,4
113,111.82,111.34,4
114,111.87,111.36,4
115,111.93,111.40,4
115,111.99,111.43,4
115,112.05,111.47,4
115,112.11,111.51,4
113,112.13,111.52,4
114,112.17,111.55,4
116,112.24,111.59,4
114,112.28,111.61,4
115,112.33,111.65,4
115,112.39,111.68,4
115,112.44,111.71,4
114,112.47,111.74,4
115,112.52,111.77,4
114,112.55,111.79,4
114,112.58,111.81,4
115,112.63,111.85,4
116,112.69,111.89,4
117,112.78,111.94,4
120,112.92,112.02,4
117,113.01,112.07,4
116,113.07,112.11,4
117,113.14,112.16,4
117,113.22,112.21,4
117,113.30,112.25,4
117,113.37,112.30,4
115,113.40,112.33,4
117,113.48,112.38,4
117,113.55,112.42,4
117,113.62,112.47,4
117,113.68,112.51,4
117,113.75,112.56,4
116,113.79,112.59,4
116,113.84,112.63,4
117,113.90,112.67,4
117,113.96,112.71,4
117,114.02,112.76,4
117,114.08,112.80,4
117,114.14,112.84,4
117,114.20,112.88,4
118,114.28,112.93,4
117,114.33,112.97,4
118,114.40,113.02,4
117,114.46,113.06,4
119,114.55,113.12,4
119,114.64,113.18,4
119,114.72,113.24,4
120,114.83,113.31,4
119,114.91,113.36,4
119,114.99,113.42,4
119,115.07,113.48,4
120,115.17,113.54,4
119,115.25,113.60,4
119,115.32,113.65,4
120,115.42,113.71,4
121,115.53,113.79,4
122,115.66,113.87,4
121,115.77,113.94,4
121,115.87,114.01,4
125,116.05,114.12,4
124,116.21,114.22,4
124,116.37,114.32,4
125,116.54,114.42,4
123,116.67,114.51,4
126,116.86,114.63,4
125,117.02,114.73,4
125,117.18,114.83,4
125,117.33,114.93,4
127,117.53,115.05,4
125,117.68,115.15,4
125,117.82,115.25,4
125,117.97,115.35,4
125,118.11,115.45,4
125,118.25,115.54,4
125,118.38,115.64,4
125,118.51,115.73,4
125,118.64,115.82,4
125,118.77,115.91,4
125,118.89,116.00,4
125,119.02,116.09,4
127,119.18,116.20,4
127,119.33,116.31,4
128,119.51,116.43,4
128,119.68,116.54,4
128,119.84,116.66,4
127,119.99,116.76,4
128,120.15,116.87,4
128,120.30,116.99,4
128,120.46,117.10,4
129,120.63,117.22,4
128,120.78,117.32,4
128,120.92,117.43,4
128,121.06,117.54,4
128,121.20,117.64,4
129,121.36,117.75,4
129,121.51,117.87,4
131,121.70,118.00,4
132,121.90,118.14,4
133,122.13,118.29,4
132,122.32,118.42,4
135,122.58,118.59,4
137,122.87,118.77,4
138,123.17,118.97,4
137,123.45,119.15,4
139,123.76,119.34,4
139,124.06,119.54,4
140,124.38,119.75,4
139,124.67,119.94,4
141,125.00,120.15,4
143,125.36,120.38,4
145,125.75,120.62,4
146,126.16,120.88,4
146,126.55,121.13,4
152,127.06,121.44,4
151,127.54,121.73,4
152,128.03,122.04,4
152,128.51,122.34,4
152,128.98,122.63,4
152,129.44,122.93,4
152,129.89,123.22,4
153,130.35,123.51,4
153,130.81,123.81,4
153,131.25,124.10,4
155,131.73,124.41,4
153,132.15,124.70,4
153,132.57,124.98,4
153,132.98,125.26,4
153,133.38,125.54,4
154,133.79,125.82,4
151,134.13,126.07,4
153,134.51,126.34,4
154,134.90,126.62,4
153,135.26,126.88,4
153,135.62,127.14,4
153,135.97,127.40,4
155,136.35,127.68,4
154,136.70,127.94,4
155,137.07,128.21,4
159,137.50,128.52,4
157,137.89,128.80,4
157,138.28,129.09,4
158,138.67,129.38,4
158,139.06,129.66,4
160,139.48,129.97,4
162,139.93,130.29,4
159,140.31,130.57,4
161,140.72,130.88,4
163,141.17,131.20,4
163,141.60,131.52,4
163,142.03,131.83,4
164,142.47,132.15,4
165,142.92,132.48,4
166,143.38,132.82,4
167,143.86,133.16,4
167,144.32,133.50,4
171,144.85,133.87,4
169,145.34,134.22,4
169,145.81,134.57,4
169,146.27,134.92,4
172,146.79,135.29,4
172,147.29,135.65,4
173,147.81,136.03,4
175,148.35,136.42,4
177,148.92,136.82,4
176,149.46,137.21,4
177,150.01,137.61,4
180,150.61,138.04,4
181,151.22,138.47,4
183,151.86,138.91,4
179,152.40,139.31,4
184,153.03,139.76,4
185,153.67,140.21,4
185,154.30,140.66,4
184,154.89,141.09,4
184,155.47,141.52,4
185,156.06,141.96,4
186,156.66,142.40,4
185,157.23,142.82,4
187,157.83,143.26,4
188,158.43,143.71,4
186,158.98,144.13,4
189,159.58,144.58,4
189,160.17,145.03,4
189,160.75,145.47,4
190,161.33,145.91,4
190,161.90,146.35,4
191,162.49,146.80,4
193,163.10,147.26,4
191,163.65,147.70,4
189,164.16,148.11,4
191,164.70,148.54,4
190,165.20,148.96,4
190,165.70,149.37,4
191,166.21,149.78,4
189,166.66,150.17,4
189,167.11,150.56,4
191,167.59,150.97,4
191,168.06,151.37,4
192,168.53,151.77,4
192,169.00,152.18,4
193,169.48,152.58,4
191,169.91,152.97,4
192,170.36,153.36,4
192,170.79,153.75,4
193,171.23,154.14,4
193,171.67,154.53,4
193,172.09,154.91,4
195,172.55,155.31,4
195,173.00,155.71,4
195,173.44,156.10,4
195,173.87,156.49,4
195,174.30,156.88,4
196,174.73,157.27,4
195,175.13,157.64,4
195,175.53,158.02,4
195,175.92,158.39,4
196,176.32,158.76,4
197,176.74,159.15,4
195,177.10,159.50,4
195,177.46,159.86,4
195,177.81,160.21,4
199,178.23,160.60,4
199,178.65,160.98,4
199,179.06,161.36,4
202,179.52,161.77,4
205,180.03,162.20,4
203,180.48,162.61,4
206,181.00,163.04,4
207,181.52,163.48,4
205,181.98,163.90,4
206,182.47,164.32,4
209,183.00,164.77,4
212,183.58,165.24,4
211,184.12,165.70,4
211,184.66,166.15,4
213,185.23,166.62,4
217,185.86,167.12,4
215,186.45,167.60,4
214,187.00,168.06,4
215,187.56,168.53,4
215,188.11,169.00,4
215,188.64,169.46,4
216,189.19,169.92,4
215,189.71,170.37,4
215,190.21,170.82,4
213,190.67,171.24,4
213,191.12,171.66,4
214,191.57,172.08,4
214,192.02,172.50,4
213,192.44,172.91,4
213,192.85,173.31,4
213,193.26,173.71,4
213,193.65,174.10,4
213,194.04,174.49,4
212,194.40,174.86,4
212,194.75,175.23,4
212,195.09,175.60,4
212,195.43,175.97,4
211,195.74,176.32,4
212,196.07,176.67,4
211,196.37,177.02,4
211,196.66,177.36,4
212,196.97,177.70,4
211,197.25,178.04,4
212,197.54,178.38,4
210,197.79,178.69,4
209,198.02,178.99,4
209,198.24,179.29,4
209,198.45,179.59,4
209,198.66,179.89,4
209,198.87,180.18,4
210,199.09,180.48,4
209,199.29,180.76,4
209,199.48,181.04,4
209,199.67,181.32,4
208,199.84,181.59,4
209,200.02,181.86,4
207,200.16,182.11,4
205,200.26,182.34,4
207,200.39,182.59,4
206,200.51,182.82,4
207,200.64,183.07,4
206,200.74,183.30,4
206,200.85,183.52,4
205,200.93,183.74,4
205,201.01,183.95,4
206,201.11,184.17,4
205,201.19,184.38,4
205,201.27,184.58,4
205,201.34,184.79,4
205,201.42,184.99,4
205,201.49,185.19,4
203,201.52,185.37,4
204,201.57,185.56,4
203,201.60,185.73,4
202,201.60,185.89,4
202,201.61,186.05,4
204,201.66,186.23,4
201,201.65,186.38,4
201,201.63,186.53,4
201,201.62,186.67,4
201,201.61,186.82,4
201,201.60,186.96,4
201,201.58,187.10,4
200,201.55,187.23,4
199,201.50,187.34,4
200,201.47,187.47,4
199,201.42,187.59,4
199,201.37,187.70,4
199,201.33,187.81,4
198,201.26,187.91,4
199,201.21,188.03,4
199,201.17,188.14,4
198,201.11,188.23,4
198,201.04,188.33,4
197,200.96,188.42,4
197,200.88,188.50,4
199,200.85,188.61,4
197,200.77,188.69,4
198,200.71,188.79,4
196,200.62,188.86,4
196,200.53,188.93,4
195,200.42,188.99,4
196,200.33,189.06,4
195,200.22,189.12,4
196,200.14,189.19,4
196,200.05,189.26,4
195,199.95,189.31,4
195,199.85,189.37,4
197,199.80,189.45,4
196,199.72,189.51,4
196,199.65,189.58,4
196,199.57,189.64,4
195,199.48,189.70,4
196,199.41,189.76,4
195,199.32,189.81,4
195,199.24,189.86,4
194,199.13,189.90,4
195,199.05,189.96,4
194,198.95,190.00,4
193,198.83,190.03,4
193,198.71,190.06,4
193,198.60,190.09,4
193,198.49,190.11,4
192,198.36,190.13,4
192,198.23,190.15,4
193,198.13,190.18,4
192,198.00,190.20,4
192,197.88,190.22,4
192,197.77,190.23,4
191,197.63,190.24,4
192,197.52,190.26,4
191,197.39,190.27,4
191,197.26,190.27,4
190,197.12,190.27,4
189,196.95,190.26,4
190,196.81,190.26,4
189,196.66,190.24,4
189,196.50,190.23,4
189,196.35,190.22,4
188,196.19,190.20,4
189,196.04,190.18,4
187,195.86,190.15,4
188,195.71,190.13,4
188,195.55,190.11,4
187,195.38,190.08,4
187,195.21,190.05,4
187,195.05,190.02,4
187,194.89,189.99,4
186,194.71,189.95,4
186,194.54,189.91,4
185,194.34,189.86,4
185,194.16,189.81,4
185,193.97,189.76,4
185,193.80,189.71,4
185,193.62,189.67,4
186,193.47,189.63,4
184,193.28,189.57,4
185,193.11,189.53,4
183,192.91,189.46,4
184,192.73,189.41,4
183,192.54,189.34,4
183,192.35,189.28,4
183,192.16,189.22,4
182,191.96,189.15,4
182,191.76,189.08,4
182,191.56,189.00,4
181,191.35,188.92,4
181,191.14,188.85,4
181,190.94,188.77,4
181,190.74,188.69,4
180,190.53,188.60,4
180,190.32,188.52,4
180,190.11,188.43,4
180,189.91,188.35,4
180,189.71,188.26,4
179,189.50,188.17,4
179,189.29,188.08,4
179,189.08,187.99,4
178,188.86,187.89,4
178,188.64,187.79,4
179,188.45,187.70,4
177,188.22,187.59,4
177,188.00,187.49,4
177,187.78,187.38,4
177,187.56,187.28,4
177,187.35,187.18,4
178,187.16,187.09,5
176,186.94,186.97,5
176,186.72,186.86,5
177,186.53,186.77,5
180,186.39,186.70,5
175,186.17,186.58,5
175,185.94,186.47,5
175,185.72,186.35,5
173,185.47,186.22,5
174,185.24,186.10,5
174,185.02,185.97,5
174,184.80,185.85,5
173,184.56,185.73,5
173,184.33,185.60,5
173,184.10,185.47,5
173,183.88,185.35,5
173,183.66,185.22,5
173,183.45,185.10,5
173,183.24,184.98,5
172,183.02,184.85,5
171,182.77,184.71,5
171,182.54,184.58,5
172,182.33,184.45,5
172,182.12,184.33,5
171,181.90,184.19,5
172,181.70,184.07,5
172,181.51,183.95,5
171,181.30,183.82,5
171,181.09,183.69,5
169,180.85,183.55,5
170,180.63,183.41,5
171,180.44,183.29,5
170,180.23,183.15,5
169,180.01,183.01,5
169,179.79,182.87,5
169,179.57,182.73,5
169,179.36,182.60,5
169,179.15,182.46,5
169,178.95,182.32,5
168,178.73,182.18,5
168,178.52,182.04,5
169,178.33,181.91,5
167,178.10,181.76,5
167,177.88,181.61,5
167,177.66,181.47,5
167,177.45,181.32,5
167,177.24,181.18,5
166,177.01,181.03,5
166,176.79,180.88,5
166,176.58,180.73,5
166,176.36,180.58,5
165,176.14,180.42,5
165,175.91,180.27,5
164,175.68,180.11,5
165,175.46,179.96,5
165,175.25,179.81,5
164,175.03,179.65,5
163,174.79,179.48,5
165,174.59,179.34,5
167,174.44,179.21,5
165,174.25,179.07,5
163,174.03,178.91,5
163,173.81,178.75,5
163,173.59,178.59,5
163,173.38,178.44,5
163,173.17,178.28,5
162,172.95,178.12,5
162,172.73,177.96,5
162,172.51,177.80,5
161,172.28,177.63,5
161,172.06,177.47,5
161,171.84,177.30,5
161,171.62,177.14,5
159,171.37,176.96,5
160,171.14,176.79,5
161,170.94,176.63,5
159,170.70,176.45,5
160,170.48,176.29,5
159,170.25,176.12,5
160,170.05,175.95,5
160,169.85,175.80,5
159,169.63,175.63,5
159,169.42,175.46,5
159,169.21,175.30,5
159,169.01,175.13,5
158,168.79,174.96,5
159,168.59,174.80,5
159,168.40,174.64,5
158,168.19,174.48,5
158,167.99,174.31,5
158,167.79,174.15,5
157,167.57,173.98,5
158,167.38,173.82,5
157,167.17,173.65,5
156,166.95,173.47,5
156,166.73,173.30,5
156,166.52,173.13,5
156,166.31,172.96,5
156,166.10,172.79,5
155,165.88,172.61,5
155,165.66,172.43,5
156,165.47,172.27,5
155,165.26,172.09,5
155,165.05,171.92,5
155,164.85,171.75,5
154,164.63,171.58,5
154,164.42,171.40,5
155,164.23,171.24,5
153,164.01,171.05,5
154,163.81,170.88,5
153,163.59,170.71,5
153,163.38,170.53,5
153,163.17,170.35,5
154,162.99,170.19,5
151,162.75,170.00,5
152,162.53,169.82,5
152,162.32,169.64,5
152,162.12,169.46,5
153,161.93,169.30,5
152,161.74,169.13,5
152,161.54,168.95,5
151,161.33,168.77,5
151,161.12,168.60,5
151,160.92,168.42,5
151,160.72,168.25,5
150,160.51,168.06,5
151,160.32,167.89,5
149,160.09,167.70,5
149,159.87,167.52,5
149,159.65,167.33,5
149,159.44,167.15,5
149,159.23,166.97,5
149,159.03,166.79,5
149,158.83,166.61,5
149,158.63,166.43,5
149,158.44,166.26,5
149,158.25,166.09,5
148,158.04,165.91,5
148,157.84,165.73,5
148,157.65,165.55,5
147,157.43,165.36,5
148,157.24,165.19,5
147,157.04,165.01,5
147,156.84,164.83,5
148,156.66,164.66,5
146,156.45,164.47,5
147,156.26,164.30,5
148,156.09,164.14,5
145,155.87,163.94,5
146,155.67,163.77,5
147,155.50,163.60,5
146,155.31,163.42,5
147,155.14,163.26,5
149,155.02,163.12,5
145,154.82,162.93,5
145,154.63,162.75,5
145,154.43,162.58,5
145,154.24,162.40,5
145,154.06,162.23,5
145,153.88,162.06,5
146,153.72,161.89,5
145,153.55,161.73,5
147,153.42,161.58,5
145,153.25,161.41,5
145,153.08,161.25,5
145,152.92,161.09,5
145,152.76,160.93,5
145,152.61,160.77,5
145,152.45,160.61,5
143,152.27,160.43,5
145,152.12,160.28,5
145,151.98,160.12,5
144,151.82,159.96,5
145,151.68,159.81,5
144,151.53,159.66,5
143,151.36,159.49,5
143,151.19,159.32,5
143,151.03,159.16,5
143,150.87,159.00,5
145,150.75,158.86,5
143,150.59,158.70,5
143,150.44,158.54,5
143,150.29,158.39,5
143,150.15,158.23,5
143,150.00,158.08,5
143,149.86,157.93,5
143,149.73,157.78,5
143,149.59,157.63,5
143,149.46,157.49,5
143,149.33,157.34,5
143,149.20,157.20,5
143,149.08,157.06,5
142,148.94,156.91,5
142,148.80,156.76,5
143,148.68,156.62,5
141,148.53,156.46,5
143,148.42,156.33,5
141,148.27,156.18,5
141,148.13,156.02,5
141,147.98,155.87,5
141,147.84,155.73,5
142,147.73,155.59,5
141,147.59,155.44,5
141,147.46,155.30,5
141,147.33,155.15,5
141,147.20,155.01,5
140,147.06,154.86,5
141,146.94,154.72,5
141,146.82,154.59,5
141,146.70,154.45,5
139,146.55,154.30,5
141,146.44,154.16,5
139,146.29,154.01,5
140,146.16,153.87,5
140,146.04,153.73,5
139,145.90,153.59,5
140,145.78,153.45,5
141,145.69,153.33,5
140,145.57,153.19,5
139,145.44,153.05,5
139,145.31,152.91,5
139,145.19,152.77,5
139,145.06,152.63,5
139,144.94,152.50,5
140,144.84,152.37,5
139,144.73,152.24,5
139,144.61,152.11,5
138,144.48,151.96,5
139,144.37,151.84,5
137,144.22,151.69,5
138,144.10,151.55,5
138,143.98,151.41,5
137,143.84,151.27,5
137,143.70,151.13,5
137,143.57,150.99,5
137,143.43,150.85,5
138,143.33,150.72,5
137,143.20,150.58,5
137,143.08,150.45,5
138,142.97,150.32,5
137,142.85,150.19,5
137,142.74,150.06,5
137,142.62,149.92,5
137,142.51,149.80,5
137,142.40,149.67,5
137,142.29,149.54,5
137,142.19,149.42,5
137,142.08,149.29,5
137,141.98,149.17,5
138,141.90,149.06,5
136,141.78,148.93,5
136,141.67,148.80,5
136,141.55,148.67,5
136,141.44,148.54,5
136,141.33,148.42,5
136,141.23,148.29,5
136,141.12,148.17,5
135,141.00,148.04,5
135,140.88,147.91,5
135,140.76,147.78,5
135,140.65,147.65,5
134,140.51,147.51,5
135,140.40,147.39,5
133,140.26,147.25,5
134,140.13,147.11,5
134,140.01,146.98,5
135,139.91,146.86,5
133,139.77,146.72,5
135,139.67,146.61,5
133,139.54,146.47,5
133,139.41,146.34,5
134,139.30,146.21,5
134,139.20,146.09,5
134,139.09,145.97,5
133,138.97,145.84,5
133,138.85,145.71,5
133,138.73,145.58,5
133,138.62,145.46,5
133,138.51,145.33,5
133,138.40,145.21,5
133,138.29,145.09,5
132,138.16,144.96,5
133,138.06,144.84,5
135,138.00,144.74,5
133,137.90,144.62,5
133,137.80,144.51,5
133,137.70,144.39,5
133,137.61,144.28,5
134,137.54,144.17,5
133,137.45,144.06,5
133,137.36,143.95,5
133,137.27,143.84,5
133,137.19,143.73,5
133,137.10,143.63,5
133,137.02,143.52,5
133,136.94,143.41,5
132,136.84,143.30,5
132,136.74,143.19,5
133,136.67,143.09,5
131,136.56,142.96,5
132,136.46,142.86,5
131,136.36,142.74,5
135,136.33,142.66,5
131,136.22,142.54,5
131,136.12,142.43,5
131,136.02,142.31,5
131,135.91,142.20,5
130,135.80,142.08,5
130,135.68,141.96,5
129,135.55,141.83,5
129,135.42,141.70,5
129,135.29,141.57,5
129,135.16,141.45,5
130,135.06,141.33,5
129,134.94,141.21,5
131,134.86,141.11,5
129,134.74,140.99,5
129,134.63,140.87,5
128,134.49,140.74,5
129,134.38,140.62,5
129,134.28,140.50,5
129,134.17,140.39,5
128,134.05,140.26,5
129,133.95,140.15,5
129,133.85,140.04,5
128,133.73,139.92,5
129,133.64,139.81,5
128,133.52,139.69,5
128,133.41,139.58,5
129,133.32,139.47,5
129,133.24,139.37,5
128,133.13,139.25,5
129,133.05,139.15,5
128,132.95,139.04,5
129,132.87,138.94,5
128,132.77,138.83,5
128,132.68,138.72,5
128,132.58,138.61,5
128,132.49,138.51,5
128,132.40,138.40,5
128,132.31,138.30,5
127,132.21,138.18,5
128,132.12,138.08,5
127,132.02,137.97,5
128,131.94,137.87,5
127,131.84,137.76,5
127,131.75,137.66,5
127,131.65,137.55,5
127,131.56,137.44,5
127,131.47,137.34,5
127,131.38,137.24,5
127,131.29,137.13,5
125,131.16,137.01,5
126,131.06,136.90,5
126,130.96,136.79,5
126,130.86,136.68,5
125,130.74,136.57,5
125,130.63,136.45,5
125,130.52,136.34,5
125,130.41,136.22,5
126,130.32,136.12,5
125,130.21,136.01,5
126,130.13,135.91,5
125,130.02,135.80,5
125,129.92,135.69,5
125,129.83,135.59,5
125,129.73,135.48,5
125,129.63,135.38,5
124,129.52,135.26,5
123,129.39,135.14,5
124,129.28,135.03,5
123,129.16,134.91,5
124,129.05,134.80,5
124,128.95,134.69,5
124,128.85,134.58,5
125,128.78,134.49,5
125,128.70,134.39,5
124,128.61,134.29,5
123,128.50,134.18,5
124,128.41,134.07,5
122,128.28,133.95,5
123,128.17,133.84,5
123,128.07,133.74,5
122,127.95,133.62,5
123,127.85,133.51,5
123,127.75,133.41,5
122,127.64,133.29,5
122,127.52,133.18,5
122,127.41,133.07,5
122,127.30,132.96,5
123,127.22,132.86,5
122,127.11,132.75,5
122,127.01,132.64,5
122,126.91,132.54,5
121,126.79,132.42,5
121,126.68,132.31,5
121,126.56,132.19,5
121,126.45,132.08,5
121,126.34,131.97,5
121,126.24,131.86,5
120,126.11,131.74,5
121,126.01,131.63,5
122,125.93,131.54,5
121,125.83,131.43,5
121,125.73,131.33,5
121,125.64,131.23,5
121,125.55,131.12,5
121,125.46,131.02,5
121,125.37,130.92,5
121,125.28,130.82,5
120,125.17,130.71,5
121,125.09,130.62,5
119,124.97,130.50,5
121,124.89,130.41,5
119,124.77,130.29,5
120,124.68,130.19,5
120,124.58,130.09,5
119,124.47,129.98,5
119,124.36,129.87,5
119,124.25,129.76,5
119,124.15,129.65,5
119,124.05,129.54,5
119,123.95,129.44,5
119,123.85,129.33,5
119,123.75,129.23,5
119,123.65,129.13,5
118,123.54,129.02,5
119,123.45,128.92,5
119,123.36,128.82,5
119,123.27,128.72,5
117,123.15,128.60,5
119,123.07,128.51,5
118,122.96,128.40,5
118,122.87,128.30,5
119,122.79,128.20,5
119,122.71,128.11,5
120,122.66,128.03,5
117,122.54,127.92,5
119,122.47,127.83,5
117,122.36,127.72,5
118,122.28,127.63,5
119,122.21,127.54,5
118,122.13,127.44,5
117,122.02,127.34,5
118,121.94,127.25,5
117,121.85,127.14,5
118,121.77,127.05,5
117,121.67,126.95,5
118,121.60,126.86,5
118,121.53,126.77,5
118,121.46,126.69,5
121,121.45,126.63,5
117,121.36,126.53,5
119,121.31,126.46,5
118,121.25,126.37,5
117,121.16,126.28,5
117,121.08,126.19,5
119,121.04,126.11,5
118,120.98,126.03,5
117,120.90,125.94,5
117,120.82,125.85,5
117,120.74,125.77,5
117,120.67,125.68,5
117,120.59,125.59,5
117,120.52,125.51,5
118,120.47,125.43,5
117,120.40,125.35,5
114,120.27,125.23,5
117,120.21,125.15,5
117,120.14,125.07,5
116,120.06,124.98,5
116,119.98,124.89,5
116,119.90,124.80,5
117,119.84,124.72,5
116,119.77,124.63,5
116,119.69,124.55,5
115,119.60,124.45,5
115,119.50,124.36,5
115,119.41,124.26,5
115,119.33,124.17,5
115,119.24,124.08,5
115,119.15,123.99,5
115,119.07,123.90,5
116,119.01,123.82,5
115,118.93,123.73,5
115,118.85,123.64,5
113,118.73,123.54,5
113,118.62,123.43,5
114,118.53,123.34,5
115,118.46,123.25,5
114,118.37,123.16,5
114,118.28,123.07,5
113,118.17,122.97,5
113,118.07,122.87,5
113,117.97,122.77,5
113,117.87,122.67,5
114,117.79,122.59,5
114,117.72,122.50,5
113,117.62,122.41,5
113,117.53,122.31,5
113,117.44,122.22,5
113,117.35,122.13,5
113,117.26,122.04,5
113,117.18,121.95,5
113,117.10,121.86,5
112,116.99,121.76,5
111,116.87,121.65,5
112,116.78,121.55,5
112,116.68,121.46,5
112,116.59,121.36,5
112,116.49,121.27,5
113,116.43,121.19,5
113,116.36,121.10,5
112,116.27,121.01,5
112,116.18,120.92,5
113,116.12,120.84,5
112,116.04,120.76,5
111,115.94,120.66,5
111,115.84,120.56,5
111,115.74,120.47,5
112,115.67,120.38,5
112,115.59,120.30,5
112,115.52,120.21,5
113,115.47,120.14,5
111,115.38,120.05,5
112,115.31,119.97,5
111,115.23,119.88,5
111,115.14,119.79,5
111,115.06,119.70,5
111,114.98,119.62,5
112,114.92,119.54,5
111,114.84,119.46,5
111,114.76,119.37,5
111,114.69,119.29,5
111,114.62,119.20,5
111,114.54,119.12,5
111,114.47,119.04,5
111,114.40,118.96,5
112,114.35,118.89,5
111,114.29,118.81,5
112,114.24,118.74,5
111,114.18,118.67,5
111,114.11,118.59,5
109,114.01,118.49,5
111,113.95,118.42,5
111,113.89,118.35,5
110,113.81,118.26,5
109,113.72,118.17,5
111,113.66,118.10,5
111,113.61,118.03,5
111,113.56,117.96,5
111,113.51,117.89,5
111,113.46,117.82,5
111,113.41,117.75,5
111,113.36,117.68,5
112,113.33,117.63,5
111,113.29,117.56,5
112,113.26,117.50,5
111,113.21,117.44,5
111,113.17,117.37,5
111,113.13,117.31,5
111,113.08,117.25,5
111,113.04,117.18,5
111,113.00,117.12,5
111,112.96,117.06,5
111,112.92,117.00,5
111,112.88,116.94,5
111,112.85,116.88,5
111,112.81,116.82,5
111,112.77,116.76,5
111,112.74,116.71,5
111,112.70,116.65,5
112,112.69,116.60,5
111,112.66,116.55,5
111,112.62,116.49,5
111,112.59,116.44,5
111,112.56,116.38,5
111,112.53,116.33,5
111,112.50,116.28,5
111,112.47,116.22,5
111,112.44,116.17,5
111,112.41,116.12,5
111,112.38,116.07,5
111,112.35,116.02,5
111,112.33,115.97,5
113,112.34,115.94,5
111,112.31,115.89,5
113,112.33,115.86,5
112,112.32,115.82,5
113,112.33,115.79,5
112,112.33,115.75,5
111,112.30,115.71,5
113,112.31,115.68,5
112,112.31,115.64,5
112,112.30,115.61,5
112,112.30,115.57,5
113,112.31,115.54,5
113,112.32,115.52,5
113,112.34,115.49,5
113,112.35,115.47,5
115,112.40,115.46,5
113,112.42,115.44,5
113,112.43,115.42,5
112,112.42,115.38,5
113,112.43,115.36,5
112,112.42,115.32,5
112,112.41,115.29,5
111,112.38,115.25,5
112,112.38,115.22,5
112,112.37,115.18,5
113,112.38,115.16,5
112,112.37,115.13,5
112,112.37,115.10,5
112,112.36,115.07,5
113,112.37,115.05,5
113,112.38,115.03,5
112,112.38,115.00,5
111,112.35,114.96,5
113,112.36,114.94,5
113,112.38,114.92,5
112,112.37,114.89,5
113,112.38,114.87,5
112,112.37,114.84,5
111,112.35,114.80,5
112,112.34,114.77,5
113,112.35,114.76,5
112,112.34,114.73,5
114,112.38,114.72,5
112,112.37,114.69,5
113,112.38,114.68,5
113,112.40,114.66,5
113,112.41,114.64,5
114,112.44,114.64,5
114,112.47,114.63,5
113,112.48,114.61,5
113,112.49,114.60,5
113,112.50,114.58,5
112,112.49,114.56,5
113,112.50,114.54,5
113,112.51,114.53,5
113,112.52,114.51,5
113,112.53,114.50,5
113,112.54,114.48,5
112,112.53,114.46,5
113,112.54,114.44,5
113,112.55,114.43,5
113,112.56,114.41,5
113,112.57,114.40,5
112,112.55,114.37,5
111,112.52,114.34,5
113,112.53,114.33,5
113,112.54,114.31,5
113,112.55,114.30,5
115,112.60,114.31,5
114,112.63,114.30,5
116,112.70,114.32,5
115,112.74,114.33,5
114,112.77,114.33,5
114,112.79,114.32,5
116,112.86,114.34,5
116,112.92,114.36,5
116,112.98,114.37,5
115,113.02,114.38,5
115,113.06,114.38,5
118,113.16,114.42,5
116,113.22,114.44,5
117,113.29,114.46,5
116,113.35,114.48,5
117,113.42,114.50,5
117,113.49,114.53,5
117,113.56,114.55,5
117,113.63,114.58,5
117,113.70,114.60,5
118,113.78,114.63,5
119,113.89,114.68,5
117,113.95,114.70,5
117,114.01,114.72,5
117,114.07,114.75,5
118,114.15,114.78,5
117,114.21,114.80,5
117,114.26,114.82,5
118,114.34,114.86,5
118,114.41,114.89,5
119,114.50,114.93,5
119,114.59,114.97,5
119,114.68,115.01,5
118,114.75,115.04,5
119,114.83,115.08,5
118,114.89,115.11,5
118,114.96,115.14,5
119,115.04,115.18,5
120,115.14,115.22,5
119,115.21,115.26,5
121,115.33,115.32,5
121,115.44,115.38,5
120,115.53,115.42,5
121,115.64,115.48,5
121,115.75,115.53,5
121,115.86,115.59,5
122,115.98,115.65,5
121,116.08,115.71,5
121,116.18,115.76,5
121,116.27,115.81,5
121,116.37,115.86,5
124,116.52,115.94,5
125,116.69,116.03,5
125,116.86,116.12,5
123,116.98,116.19,5
125,117.14,116.28,5
124,117.28,116.36,5
125,117.43,116.44,5
123,117.54,116.51,5
125,117.69,116.60,5
125,117.84,116.68,5
126,118.00,116.77,5
125,118.14,116.85,5
125,118.28,116.94,5
125,118.41,117.02,5
125,118.55,117.10,5
127,118.71,117.20,5
127,118.88,117.29,5
127,119.04,117.39,5
127,119.20,117.49,5
127,119.36,117.58,5
127,119.51,117.68,5
127,119.66,117.77,5
128,119.83,117.87,5
128,119.99,117.97,5
129,120.17,118.08,5
129,120.35,118.19,5
129,120.52,118.30,5
131,120.73,118.43,5
130,120.92,118.54,5
130,121.10,118.66,5
131,121.30,118.78,5
130,121.47,118.89,5
129,121.62,118.99,5
131,121.81,119.11,5
130,121.97,119.22,5
130,122.13,119.33,5
131,122.31,119.45,5
133,122.52,119.58,5
133,122.73,119.72,5
133,122.94,119.85,5
132,123.12,119.97,5
133,123.32,120.10,5
134,123.53,120.24,5
134,123.74,120.38,5
135,123.96,120.52,5
136,124.21,120.68,5
133,124.38,120.80,5
135,124.59,120.94,5
134,124.78,121.08,5
134,124.97,121.20,5
135,125.17,121.34,5
134,125.34,121.47,5
133,125.50,121.58,5
134,125.67,121.71,5
133,125.81,121.82,5
133,125.96,121.93,5
133,126.10,122.04,5
133,126.24,122.15,5
134,126.39,122.27,5
135,126.56,122.40,5
133,126.69,122.51,5
131,126.78,122.59,5
133,126.90,122.69,5
133,127.02,122.80,5
134,127.16,122.91,5
133,127.28,123.01,5
134,127.42,123.12,5
134,127.55,123.23,5
134,127.68,123.34,5
134,127.80,123.44,5
135,127.95,123.56,5
136,128.11,123.68,5
133,128.21,123.78,5
135,128.34,123.89,5
135,128.47,124.00,5
137,128.65,124.13,5
136,128.79,124.25,5
136,128.94,124.37,5
137,129.10,124.49,5
137,129.26,124.62,5
137,129.41,124.74,5
137,129.56,124.86,5
137,129.71,124.99,5
137,129.86,125.11,5
138,130.02,125.23,5
137,130.16,125.35,5
138,130.32,125.48,5
137,130.45,125.59,5
139,130.62,125.73,5
139,130.79,125.86,5
138,130.93,125.98,5
138,131.07,126.10,5
138,131.21,126.22,5
139,131.37,126.35,5
137,131.48,126.46,5
139,131.63,126.58,5
139,131.78,126.71,5
140,131.94,126.84,5
140,132.10,126.97,5
140,132.26,127.10,5
143,132.48,127.26,5
139,132.61,127.38,5
141,132.78,127.51,5
141,132.94,127.65,5
143,133.14,127.80,5
143,133.34,127.95,5
145,133.57,128.12,5
146,133.82,128.30,5
149,134.12,128.51,5
145,134.34,128.67,5
147,134.59,128.86,5
149,134.88,129.06,5
148,135.14,129.25,5
147,135.38,129.43,5
147,135.61,129.60,5
147,135.84,129.78,5
146,136.05,129.94,5
148,136.28,130.12,5
147,136.50,130.29,5
150,136.77,130.48,5
150,137.03,130.68,5
149,137.27,130.86,5
151,137.55,131.06,5
153,137.86,131.28,5
154,138.18,131.51,5
154,138.50,131.74,5
153,138.79,131.95,5
154,139.09,132.17,5
157,139.45,132.42,5
155,139.76,132.64,5
157,140.10,132.89,5
157,140.44,133.13,5
157,140.77,133.37,5
158,141.12,133.61,5
159,141.48,133.87,5
159,141.83,134.12,5
159,142.17,134.37,5
159,142.51,134.61,5
161,142.88,134.88,5
162,143.26,135.15,5
165,143.69,135.45,5
162,144.06,135.71,5
165,144.48,136.00,5
167,144.93,136.31,5
169,145.41,136.64,5
169,145.88,136.97,5
169,146.34,137.29,5
170,146.82,137.61,5
172,147.32,137.96,5
171,147.79,138.29,5
171,148.26,138.61,5
170,148.69,138.93,5
170,149.12,139.24,5
171,149.56,139.56,5
170,149.97,139.86,5
172,150.41,140.18,5
171,150.82,140.49,5
173,151.26,140.82,5
171,151.66,141.12,5
171,152.04,141.42,5
172,152.44,141.72,5
172,152.83,142.02,5
173,153.24,142.33,5
173,153.63,142.64,5
174,154.04,142.95,5
175,154.46,143.28,5
175,154.87,143.59,5
175,155.27,143.91,5
175,155.67,144.22,5
177,156.09,144.55,5
177,156.51,144.87,5
176,156.90,145.18,5
177,157.30,145.50,5
177,157.70,145.81,5
179,158.12,146.15,5
179,158.54,146.47,5
181,158.99,146.82,5
181,159.43,147.16,5
184,159.92,147.53,5
185,160.42,147.91,5
187,160.96,148.30,5
185,161.44,148.66,5
187,161.95,149.05,5
188,162.47,149.44,5
187,162.96,149.81,5
188,163.46,150.19,5
187,163.93,150.56,5
187,164.39,150.93,5
186,164.82,151.28,5
189,165.31,151.65,5
188,165.76,152.02,5
189,166.23,152.39,5
189,166.68,152.75,5
191,167.17,153.14,5
194,167.70,153.54,5
195,168.25,153.96,5
193,168.75,154.35,5
193,169.23,154.74,5
193,169.71,155.12,5
193,170.17,155.50,5
194,170.65,155.88,5
194,171.12,156.26,5
193,171.55,156.63,5
194,172.00,157.00,5
196,172.48,157.39,5
194,172.91,157.76,5
195,173.35,158.13,5
194,173.77,158.49,5
195,174.19,158.86,5
193,174.57,159.20,5
193,174.94,159.54,5
195,175.34,159.89,5
196,175.75,160.25,5
193,176.10,160.58,5
196,176.49,160.93,5
196,176.88,161.28,5
197,177.29,161.64,5
197,177.68,162.00,5
199,178.11,162.37,5
199,178.53,162.73,5
201,178.97,163.11,5
201,179.42,163.49,5
201,179.85,163.87,5
201,180.27,164.24,5
201,180.68,164.61,5
200,181.07,164.96,5
200,181.45,165.31,5
203,181.88,165.69,5
203,182.30,166.06,5
205,182.76,166.45,5
204,183.18,166.83,5
205,183.62,167.21,5
207,184.09,167.61,5
207,184.54,168.00,5
207,184.99,168.39,5
207,185.43,168.78,5
209,185.90,169.18,5
209,186.37,169.58,5
211,186.86,169.99,5
209,187.30,170.38,5
211,187.78,170.79,5
214,188.30,171.22,5
215,188.83,171.66,5
213,189.32,172.07,5
213,189.79,172.48,5
213,190.26,172.88,5
215,190.75,173.31,5
215,191.24,173.72,5
215,191.71,174.14,5
215,192.18,174.54,5
215,192.63,174.95,5
215,193.08,175.35,5
216,193.54,175.76,5
215,193.97,176.15,5
214,194.37,176.53,5
215,194.78,176.91,5
216,195.21,177.30,5
214,195.58,177.67,5
215,195.97,178.04,5
217,196.39,178.43,5
217,196.80,178.82,5
217,197.21,179.20,5
217,197.60,179.58,5
217,197.99,179.95,5
217,198.37,180.32,5
218,198.76,180.70,5
217,199.13,181.06,5
218,199.51,181.43,5
217,199.86,181.79,5
217,200.20,182.14,5
217,200.53,182.49,5
217,200.86,182.83,5
218,201.21,183.18,5
216,201.50,183.51,5
217,201.81,183.85,5
216,202.10,184.17,5
217,202.39,184.50,5
217,202.69,184.82,5
217,202.97,185.14,5
216,203.23,185.45,5
215,203.47,185.75,5
215,203.70,186.04,5
216,203.94,186.34,5
215,204.17,186.63,5
214,204.36,186.90,5
213,204.54,187.16,5
213,204.70,187.42,5
214,204.89,187.69,5
213,205.05,187.94,5
213,205.21,188.19,5
212,205.35,188.43,5
213,205.50,188.67,5
211,205.61,188.90,5
213,205.76,189.14,5
211,205.86,189.36,5
212,205.99,189.58,5
211,206.09,189.80,5
211,206.18,190.01,5
210,206.26,190.21,5
211,206.36,190.42,5
209,206.41,190.60,5
209,206.46,190.79,5
209,206.51,190.97,5
209,206.56,191.15,5
208,206.59,191.32,5
208,206.62,191.48,5
208,206.65,191.65,5
207,206.65,191.80,5
207,206.66,191.96,5
207,206.67,192.11,5
207,206.67,192.25,5
207,206.68,192.40,5
206,206.67,192.54,5
207,206.67,192.68,5
207,206.68,192.83,5
207,206.69,192.97,5
207,206.69,193.11,5
205,206.66,193.23,5
205,206.62,193.34,5
205,206.59,193.46,5
206,206.58,193.59,5
206,206.57,193.71,5
205,206.54,193.82,5
205,206.51,193.94,5
204,206.46,194.04,5
205,206.43,194.15,5
203,206.36,194.23,5
203,206.29,194.32,5
203,206.23,194.41,5
203,206.16,194.49,5
202,206.08,194.57,5
203,206.02,194.65,5
202,205.94,194.73,5
203,205.88,194.81,5
202,205.80,194.88,5
201,205.70,194.94,5
201,205.61,195.00,5
203,205.56,195.08,5
201,205.47,195.14,5
201,205.38,195.20,5
201,205.29,195.26,5
200,205.18,195.31,5
200,205.08,195.35,5
200,204.98,195.40,5
199,204.86,195.44,5
199,204.74,195.47,5
198,204.61,195.50,5
198,204.48,195.52,5
199,204.37,195.56,5
197,204.22,195.57,5
197,204.07,195.59,5
197,203.93,195.60,5
197,203.79,195.61,5
198,203.68,195.64,5
197,203.54,195.65,5
196,203.39,195.65,5
196,203.25,195.66,5
195,203.08,195.65,5
195,202.92,195.65,5
193,202.72,195.62,5
195,202.57,195.61,5
194,202.39,195.60,5
194,202.23,195.58,5
195,202.08,195.57,5
193,201.90,195.55,5
194,201.74,195.53,5
193,201.57,195.51,5
193,201.40,195.48,5
193,201.23,195.46,5
193,201.06,195.43,5
192,200.88,195.40,5
193,200.73,195.38,5
192,200.55,195.34,5
192,200.38,195.31,5
191,200.19,195.27,5
191,200.01,195.22,5
191,199.83,195.18,5
190,199.63,195.13,5
191,199.46,195.09,5
190,199.27,195.04,5
189,199.06,194.98,5
189,198.86,194.92,5
189,198.67,194.86,5
189,198.47,194.80,5
188,198.26,194.73,5
189,198.08,194.67,5
189,197.90,194.62,5
187,197.68,194.54,5
187,197.46,194.46,5
187,197.26,194.39,5
187,197.05,194.32,5
188,196.87,194.25,5
186,196.65,194.17,5
186,196.44,194.09,5
186,196.23,194.01,5
185,196.01,193.92,5
185,195.79,193.83,5
185,195.57,193.74,5
188,195.42,193.68,5
184,195.19,193.59,5
184,194.97,193.49,5
185,194.77,193.41,5
183,194.53,193.30,5
183,194.30,193.20,5
183,194.07,193.10,5
181,193.81,192.98,5
183,193.60,192.88,5
182,193.37,192.77,5
182,193.14,192.66,5
182,192.92,192.55,5
181,192.68,192.44,5
181,192.44,192.32,6
181,192.21,192.21,6
181,191.99,192.10,7
181,191.77,191.99,7
180,191.53,191.87,7
180,191.30,191.75,7
181,191.10,191.64,7
181,190.90,191.53,7
181,190.70,191.43,7
181,190.50,191.32,7
179,190.27,191.20,7
179,190.05,191.08,7
179,189.83,190.96,7
179,189.61,190.84,7
178,189.38,190.71,7
180,189.19,190.60,7
178,188.97,190.48,7
179,188.77,190.36,7
179,188.57,190.25,7
177,188.34,190.12,7
179,188.15,190.01,7
177,187.93,189.88,7
176,187.69,189.74,7
177,187.48,189.61,7
177,187.27,189.48,7
176,187.04,189.35,7
175,186.80,189.20,7
175,186.57,189.06,7
175,186.34,188.92,7
175,186.11,188.78,7
175,185.89,188.64,7
175,185.67,188.51,7
174,185.44,188.36,7
175,185.23,188.23,7
174,185.00,188.09,7
173,184.76,187.94,7
173,184.53,187.79,7
174,184.32,187.65,7
173,184.09,187.50,7
173,183.87,187.36,7
173,183.65,187.21,7
173,183.44,187.07,7
171,183.19,186.91,7
171,182.95,186.75,7
172,182.73,186.60,7
171,182.49,186.45,7
172,182.28,186.30,7
171,182.06,186.15,7
171,181.84,186.00,7
171,181.62,185.85,7
171,181.41,185.70,7
169,181.16,185.53,7
170,180.94,185.38,7
170,180.72,185.23,7
171,180.52,185.08,7
169,180.29,184.92,7
169,180.07,184.76,7
169,179.84,184.61,7
169,179.63,184.45,7
169,179.42,184.29,7
169,179.21,184.14,7
168,178.98,183.98,7
168,178.76,183.82,7
169,178.57,183.67,7
167,178.34,183.51,7
168,178.13,183.35,7
167,177.91,183.19,7
167,177.69,183.03,7
167,177.48,182.86,7
167,177.27,182.71,7
166,177.04,182.54,7
165,176.80,182.36,7
167,176.60,182.21,7
167,176.41,182.06,7
165,176.18,181.89,7
167,176.00,181.74,7
165,175.78,181.57,7
165,175.56,181.41,7
165,175.35,181.24,7
166,175.17,181.09,7
164,174.94,180.92,7
168,174.80,180.79,7
164,174.59,180.62,7
163,174.36,180.44,7
164,174.15,180.28,7
163,173.93,180.11,7
163,173.71,179.94,7
163,173.49,179.77,7
164,173.30,179.61,7
162,173.08,179.43,7
161,172.84,179.25,7
161,172.60,179.07,7
161,172.37,178.89,7
161,172.14,178.71,7
162,171.94,178.54,7
161,171.72,178.36,7
162,171.52,178.20,7
159,171.27,178.01,7
161,171.07,177.84,7
161,170.87,177.67,7
161,170.67,177.50,7
161,170.48,177.34,7
160,170.27,177.17,7
159,170.04,176.98,7
160,169.84,176.81,7
160,169.64,176.65,7
158,169.41,176.46,7
161,169.24,176.30,7
159,169.04,176.13,7
159,168.84,175.96,7
159,168.64,175.79,7
159,168.45,175.62,7
158,168.24,175.45,7
159,168.05,175.28,7
159,167.87,175.12,7
159,167.69,174.96,7
159,167.52,174.80,7
158,167.33,174.63,7
157,167.12,174.45,7
157,166.92,174.28,7
157,166.72,174.11,7
157,166.53,173.94,7
157,166.34,173.77,7
157,166.15,173.60,7
157,165.97,173.43,7
156,165.77,173.26,7
157,165.59,173.10,7
155,165.38,172.91,7
157,165.21,172.76,7
156,165.03,172.59,7
156,164.85,172.42,7
156,164.67,172.26,7
156,164.50,172.10,7
156,164.33,171.93,7
155,164.14,171.77,7
155,163.96,171.60,7
155,163.78,171.43,7
155,163.60,171.27,7
155,163.43,171.10,7
155,163.26,170.94,7
154,163.08,170.77,7
153,162.88,170.60,7
154,162.70,170.43,7
153,162.51,170.26,7
153,162.32,170.08,7
154,162.15,169.92,7
153,161.97,169.75,7
153,161.79,169.59,7
153,161.61,169.42,7
153,161.44,169.26,7
153,161.27,169.09,7
152,161.08,168.92,7
152,160.90,168.75,7
152,160.72,168.59,7
153,160.57,168.43,7
152,160.40,168.27,7
153,160.25,168.11,7
152,160.09,167.95,7
151,159.90,167.78,7
151,159.73,167.61,7
152,159.57,167.46,7
151,159.40,167.29,7
152,159.25,167.14,7
151,159.09,166.98,7
151,158.93,166.82,7
149,158.73,166.64,7
151,158.57,166.49,7
150,158.40,166.32,7
150,158.23,166.16,7
149,158.05,165.99,7
149,157.87,165.82,7
149,157.69,165.65,7
149,157.52,165.48,7
149,157.35,165.32,7
149,157.18,165.15,7
149,157.02,164.99,7
149,156.86,164.83,7
149,156.70,164.67,7
148,156.52,164.51,7
148,156.35,164.34,7
148,156.19,164.18,7
148,156.02,164.02,7
148,155.86,163.86,7
149,155.73,163.71,7
149,155.59,163.56,7
148,155.44,163.40,7
148,155.29,163.25,7
147,155.12,163.09,7
149,155.00,162.95,7
148,154.86,162.80,7
148,154.72,162.65,7
147,154.57,162.49,7
148,154.44,162.35,7
147,154.29,162.19,7
149,154.18,162.06,7
147,154.04,161.91,7
147,153.90,161.76,7
148,153.78,161.63,7
148,153.67,161.49,7
147,153.53,161.34,7
147,153.40,161.20,7
146,153.25,161.05,7
146,153.11,160.90,7
147,152.99,160.76,7
145,152.83,160.60,7
145,152.67,160.45,7
146,152.54,160.30,7
145,152.39,160.15,7
145,152.24,160.00,7
145,152.09,159.85,7
145,151.95,159.70,7
147,151.85,159.57,7
145,151.72,159.43,7
145,151.58,159.28,7
145,151.45,159.14,7
145,151.32,159.00,7
145,151.19,158.86,7
145,151.07,158.72,7
145,150.95,158.58,7
145,150.83,158.45,7
145,150.71,158.31,7
144,150.58,158.17,7
143,150.43,158.02,7
144,150.30,157.88,7
144,150.17,157.74,7
143,150.03,157.59,7
143,149.89,157.44,7
143,149.75,157.30,7
143,149.62,157.16,7
143,149.48,157.02,7
147,149.43,156.92,7
143,149.31,156.78,7
144,149.20,156.65,7
143,149.08,156.51,7
143,148.95,156.38,7
141,148.79,156.22,7
142,148.66,156.08,7
143,148.55,155.95,7
142,148.41,155.81,7
141,148.27,155.66,7
142,148.14,155.53,7
141,148.00,155.38,7
141,147.86,155.24,7
141,147.72,155.09,7
141,147.59,154.95,7
141,147.46,154.81,7
138,147.27,154.65,7
141,147.14,154.51,7
141,147.02,154.37,7
141,146.90,154.24,7
141,146.78,154.11,7
140,146.64,153.97,7
141,146.53,153.84,7
140,146.40,153.70,7
140,146.27,153.56,7
140,146.15,153.43,7
140,146.02,153.29,7
140,145.90,153.16,7
141,145.81,153.04,7
140,145.69,152.91,7
140,145.58,152.78,7
140,145.46,152.65,7
141,145.38,152.53,7
141,145.29,152.42,7
141,145.20,152.30,7
140,145.10,152.18,7
141,145.02,152.07,7
140,144.92,151.95,7
141,144.84,151.84,7
140,144.74,151.72,7
139,144.63,151.59,7
140,144.53,151.48,7
139,144.42,151.35,7
140,144.33,151.24,7
139,144.23,151.12,7
140,144.14,151.01,7
139,144.04,150.89,7
138,143.92,150.76,7
138,143.80,150.63,7
139,143.70,150.51,7
138,143.59,150.39,7
139,143.50,150.27,7
137,143.37,150.14,7
137,143.24,150.01,7
137,143.12,149.88,7
137,142.99,149.75,7
137,142.87,149.62,7
137,142.76,149.50,7
137,142.64,149.37,7
136,142.51,149.24,7
137,142.40,149.12,7
137,142.29,148.99,7
137,142.19,148.88,7
137,142.08,148.76,7
136,141.96,148.63,7
136,141.84,148.50,7
137,141.74,148.39,7
137,141.65,148.27,7
137,141.56,148.16,7
136,141.44,148.04,7
136,141.34,147.92,7
137,141.25,147.81,7
137,141.16,147.70,7
136,141.06,147.58,7
135,140.94,147.46,7
136,140.84,147.34,7
136,140.74,147.23,7
136,140.65,147.12,7
136,140.56,147.01,7
136,140.47,146.90,7
135,140.36,146.78,7
136,140.27,146.67,7
135,140.16,146.55,7
135,140.06,146.44,7
135,139.96,146.32,7
135,139.86,146.21,7
135,139.76,146.10,7
135,139.67,145.99,7
135,139.57,145.88,7
135,139.48,145.77,7
136,139.41,145.67,7
134,139.30,145.55,7
134,139.20,145.44,7
134,139.09,145.32,7
137,139.05,145.24,7
134,138.95,145.13,7
134,138.85,145.02,7
133,138.74,144.90,7
134,138.64,144.79,7
133,138.53,144.67,7
135,138.46,144.57,7
133,138.35,144.46,7
133,138.24,144.34,7
133,138.14,144.23,7
134,138.05,144.13,7
133,137.95,144.02,7
134,137.87,143.92,7
133,137.78,143.81,7
133,137.68,143.70,7
133,137.59,143.59,7
131,137.46,143.47,7
133,137.37,143.36,7
133,137.28,143.26,7
132,137.17,143.15,7
131,137.05,143.02,7
131,136.93,142.90,7
131,136.81,142.78,7
132,136.71,142.68,7
131,136.60,142.56,7
131,136.49,142.44,7
131,136.38,142.33,7
131,136.27,142.22,7
130,136.15,142.09,7
131,136.04,141.98,7
130,135.92,141.86,7
129,135.78,141.74,7
130,135.67,141.62,7
130,135.55,141.50,7
129,135.42,141.38,7
129,135.29,141.25,7
129,135.17,141.13,7
129,135.05,141.01,7
129,134.92,140.89,7
129,134.81,140.77,7
129,134.69,140.65,7
129,134.58,140.54,7
129,134.46,140.42,7
129,134.36,140.31,7
128,134.23,140.18,7
129,134.12,140.07,7
129,134.02,139.96,7
129,133.92,139.85,7
129,133.82,139.74,7
129,133.73,139.63,7
129,133.63,139.53,7
129,133.54,139.42,7
128,133.43,139.31,7
128,133.32,139.20,7
128,133.21,139.08,7
132,133.19,139.01,7
128,133.08,138.90,7
128,132.98,138.79,7
128,132.88,138.69,7
127,132.77,138.57,7
127,132.65,138.45,7
129,132.58,138.36,7
127,132.47,138.25,7
128,132.38,138.14,7
127,132.27,138.03,7
128,132.18,137.93,7
128,132.10,137.83,7
127,132.00,137.72,7
127,131.90,137.62,7
127,131.80,137.51,7
129,131.74,137.43,7
127,131.65,137.32,7
127,131.56,137.22,7
127,131.47,137.12,7
127,131.38,137.01,7
127,131.29,136.91,7
127,131.20,136.82,7
127,131.12,136.72,7
129,131.08,136.64,7
127,130.99,136.54,7
127,130.91,136.45,7
125,130.80,136.33,7
127,130.72,136.24,7
127,130.65,136.15,7
126,130.55,136.05,7
126,130.46,135.95,7
125,130.35,135.84,7
126,130.27,135.74,7
125,130.16,135.63,7
126,130.08,135.53,7
125,129.98,135.43,7
125,129.88,135.32,7
125,129.78,135.22,7
126,129.70,135.13,7
125,129.61,135.03,7
125,129.52,134.93,7
125,129.43,134.83,7
124,129.32,134.72,7
123,129.19,134.60,7
124,129.09,134.50,7
124,128.99,134.39,7
125,128.91,134.30,7
124,128.81,134.19,7
125,128.73,134.10,7
125,128.66,134.01,7
123,128.54,133.90,7
125,128.47,133.81,7
125,128.40,133.72,7
125,128.34,133.64,7
125,128.27,133.55,7
127,128.24,133.49,7
125,128.18,133.40,7
125,128.12,133.32,7
123,128.01,133.21,7
126,127.97,133.14,7
125,127.91,133.06,7
125,127.85,132.98,7
125,127.80,132.90,7
124,127.72,132.81,7
125,127.67,132.73,7
124,127.59,132.65,7
125,127.54,132.57,7
124,127.47,132.48,7
124,127.40,132.40,7
124,127.33,132.31,7
125,127.29,132.24,7
123,127.20,132.15,7
124,127.14,132.07,7
124,127.07,131.99,7
123,126.99,131.90,7
125,126.95,131.83,7
125,126.91,131.76,7
124,126.86,131.68,7
123,126.78,131.60,7
124,126.72,131.52,7
123,126.65,131.43,7
125,126.62,131.37,7
123,126.54,131.29,7
124,126.49,131.21,7
125,126.46,131.15,7
125,126.43,131.09,7
125,126.40,131.03,7
124,126.36,130.96,7
123,126.29,130.88,7
125,126.26,130.82,7
125,126.24,130.76,7
125,126.21,130.70,7
124,126.17,130.64,7
124,126.13,130.57,7
125,126.10,130.51,7
125,126.08,130.46,7
125,126.06,130.41,7
125,126.04,130.35,7
126,126.04,130.31,7
125,126.02,130.25,7
125,126.00,130.20,7
125,125.98,130.15,7
125,125.96,130.10,7
123,125.90,130.03,7
125,125.88,129.98,7
125,125.86,129.93,7
125,125.85,129.88,7
125,125.83,129.83,7
125,125.81,129.78,7
125,125.80,129.73,7
127,125.82,129.71,7
125,125.80,129.66,7
125,125.79,129.61,7
125,125.77,129.57,7
125,125.76,129.52,7
125,125.74,129.48,7
125,125.73,129.43,7
125,125.71,129.39,7
126,125.72,129.35,7
125,125.70,129.31,7
125,125.69,129.27,7
127,125.72,129.24,7
127,125.74,129.22,7
127,125.77,129.20,7
127,125.79,129.18,7
127,125.82,129.15,7
126,125.82,129.12,7
127,125.84,129.10,7
125,125.83,129.06,7
125,125.81,129.02,7
125,125.79,128.98,7
126,125.80,128.95,7
125,125.78,128.91,7
125,125.77,128.87,7
125,125.75,128.83,7
125,125.74,128.79,7
125,125.72,128.76,7
125,125.71,128.72,7
126,125.71,128.69,7
126,125.72,128.67,7
126,125.72,128.64,7
126,125.73,128.61,7
127,125.75,128.60,7
127,125.78,128.58,7
127,125.80,128.56,7
125,125.79,128.53,7
127,125.81,128.51,7
125,125.80,128.48,7
126,125.80,128.45,7
128,125.84,128.45,7
126,125.85,128.42,7
125,125.83,128.39,7
127,125.85,128.38,7
127,125.88,128.36,7
126,125.88,128.34,7
125,125.86,128.31,7
126,125.86,128.28,7
125,125.85,128.25,7
125,125.83,128.22,7
127,125.85,128.20,7
125,125.84,128.17,7
125,125.82,128.14,7
125,125.80,128.11,7
125,125.79,128.08,7
125,125.77,128.05,7
122,125.70,127.99,7
125,125.68,127.96,7
124,125.65,127.92,7
125,125.64,127.89,7
125,125.62,127.86,7
125,125.61,127.83,7
125,125.60,127.80,7
124,125.57,127.76,7
124,125.53,127.73,7
125,125.52,127.70,7
123,125.47,127.65,7
125,125.46,127.63,7
125,125.45,127.60,7
125,125.45,127.57,7
126,125.46,127.56,7
127,125.49,127.55,7
125,125.48,127.53,7
126,125.49,127.51,7
125,125.48,127.49,7
125,125.47,127.46,7
127,125.50,127.46,7
126,125.51,127.44,7
126,125.52,127.43,7
126,125.53,127.41,7
125,125.52,127.39,7
125,125.51,127.37,7
125,125.50,127.34,7
125,125.49,127.32,7
125,125.48,127.30,7
125,125.47,127.27,7
126,125.48,127.26,7
125,125.47,127.24,7
126,125.48,127.23,7
125,125.47,127.20,7
125,125.46,127.18,7
125,125.45,127.16,7
125,125.44,127.14,7
126,125.45,127.13,7
125,125.45,127.10,7
127,125.48,127.10,7
126,125.49,127.09,7
127,125.52,127.09,7
126,125.53,127.08,7
125,125.52,127.06,7
127,125.55,127.06,7
126,125.55,127.05,7
126,125.56,127.04,7
126,125.57,127.03,7
126,125.58,127.02,7
127,125.61,127.02,7
125,125.60,127.00,7
127,125.63,127.00,7
127,125.65,127.00,7
126,125.66,126.99,7
127,125.69,126.99,7
127,125.71,126.99,7
127,125.74,126.99,7
127,125.76,126.99,7
127,125.79,126.99,7
127,125.81,126.99,7
127,125.84,126.99,7
127,125.86,126.99,7
128,125.90,127.00,7
127,125.92,127.00,7
127,125.95,127.00,7
127,125.97,127.00,7
127,125.99,127.00,7
127,126.01,127.00,7
128,126.05,127.01,7
129,126.11,127.03,7
129,126.16,127.05,7
128,126.20,127.06,7
128,126.24,127.07,7
128,126.27,127.08,7
128,126.31,127.09,7
129,126.36,127.10,7
128,126.39,127.11,7
129,126.45,127.13,7
129,126.50,127.15,7
129,126.55,127.17,7
129,126.60,127.19,7
130,126.66,127.22,7
129,126.71,127.23,7
129,126.76,127.25,7
129,126.80,127.27,7
131,126.89,127.31,7
130,126.95,127.33,7
131,127.03,127.37,7
131,127.11,127.41,7
132,127.21,127.45,7
133,127.32,127.51,7
131,127.40,127.54,7
133,127.51,127.60,7
132,127.60,127.64,7
132,127.69,127.69,7
131,127.75,127.72,7
133,127.86,127.77,7
131,127.92,127.80,7
133,128.02,127.86,7
132,128.10,127.90,7
131,128.16,127.93,7
131,128.22,127.96,7
132,128.29,128.00,7
132,128.37,128.04,7
131,128.42,128.07,7
133,128.51,128.12,7
133,128.60,128.17,7
135,128.73,128.24,7
133,128.81,128.28,7
136,128.96,128.36,7
136,129.10,128.44,7
135,129.22,128.50,7
135,129.33,128.57,7
135,129.44,128.63,7
135,129.56,128.69,7
135,129.66,128.76,7
133,129.73,128.80,7
135,129.84,128.86,7
133,129.90,128.90,7
136,130.02,128.97,7
135,130.12,129.03,7
135,130.22,129.09,7
135,130.31,129.15,7
137,130.45,129.23,7
137,130.58,129.31,7
137,130.71,129.39,7
138,130.85,129.47,7
140,131.04,129.58,7
140,131.22,129.68,7
139,131.37,129.78,7
140,131.54,129.88,7
139,131.69,129.97,7
140,131.86,130.07,7
141,132.04,130.18,7
140,132.20,130.28,7
140,132.36,130.37,7
141,132.53,130.48,7
141,132.70,130.59,7
142,132.89,130.70,7
141,133.05,130.80,7
142,133.23,130.91,7
143,133.42,131.04,7
143,133.61,131.16,7
143,133.80,131.27,7
142,133.97,131.38,7
143,134.15,131.50,7
142,134.30,131.60,7
143,134.48,131.72,7
141,134.61,131.81,7
140,134.72,131.89,7
142,134.86,131.99,7
143,135.02,132.10,7
141,135.14,132.19,7
142,135.28,132.29,7
143,135.44,132.40,7
143,135.59,132.50,7
143,135.73,132.61,7
143,135.88,132.71,7
143,136.02,132.81,7
144,136.18,132.93,7
144,136.34,133.04,7
145,136.51,133.16,7
145,136.68,133.27,7
145,136.85,133.39,7
147,137.05,133.53,7
147,137.25,133.66,7
146,137.42,133.79,7
146,137.60,133.91,7
147,137.78,134.04,7
147,137.97,134.17,7
147,138.15,134.30,7
147,138.33,134.42,7
147,138.50,134.55,7
148,138.69,134.68,7
147,138.86,134.81,7
147,139.02,134.93,7
147,139.18,135.05,7
149,139.38,135.19,7
151,139.61,135.35,7
152,139.86,135.51,7
151,140.08,135.67,7
151,140.30,135.82,7
151,140.51,135.97,7
151,140.72,136.12,7
151,140.93,136.27,7
150,141.11,136.41,7
153,141.35,136.58,7
151,141.54,136.72,7
154,141.79,136.89,7
153,142.01,137.05,7
156,142.29,137.24,7
154,142.53,137.41,7
157,142.82,137.61,7
157,143.10,137.80,7
157,143.38,137.99,7
157,143.65,138.18,7
157,143.92,138.37,7
157,144.18,138.56,7
157,144.43,138.74,7
156,144.67,138.91,7
159,144.95,139.12,7
157,145.19,139.29,7
159,145.47,139.49,7
157,145.70,139.67,7
159,145.97,139.86,7
161,146.27,140.07,7
162,146.58,140.29,7
163,146.91,140.52,7
163,147.23,140.74,7
164,147.57,140.98,7
163,147.88,141.20,7
166,148.24,141.44,7
167,148.61,141.70,7
166,148.96,141.94,7
167,149.32,142.19,7
168,149.70,142.45,7
167,150.04,142.70,7
168,150.40,142.95,7
168,150.75,143.20,7
167,151.08,143.44,7
168,151.42,143.68,7
167,151.73,143.92,7
167,152.03,144.15,7
167,152.33,144.38,7
168,152.65,144.61,7
168,152.95,144.85,7
168,153.25,145.08,7
169,153.57,145.32,7
169,153.88,145.55,7
169,154.18,145.79,7
169,154.48,146.02,7
169,154.77,146.25,7
169,155.05,146.48,7
169,155.33,146.70,7
169,155.60,146.93,7
169,155.87,147.15,7
170,156.15,147.38,7
173,156.49,147.63,7
172,156.80,147.87,7
172,157.11,148.12,7
173,157.42,148.37,7
175,157.78,148.63,7
175,158.12,148.90,7
175,158.46,149.16,7
176,158.81,149.42,7
179,159.21,149.72,7
177,159.57,149.99,7
179,159.96,150.28,7
177,160.30,150.55,7
179,160.67,150.83,7
179,161.04,151.12,7
181,161.44,151.42,7
180,161.81,151.70,7
179,162.15,151.97,7
179,162.49,152.24,7
183,162.90,152.55,7
181,163.26,152.84,7
180,163.60,153.11,7
180,163.92,153.38,7
182,164.29,153.66,7
181,164.62,153.94,7
181,164.95,154.21,7
181,165.27,154.48,7
182,165.60,154.75,7
182,165.93,155.02,7
182,166.25,155.29,7
181,166.55,155.55,7
181,166.84,155.80,7
181,167.12,156.06,7
183,167.44,156.33,7
182,167.73,156.58,7
183,168.03,156.85,7
186,168.39,157.14,7
183,168.69,157.40,7
187,169.05,157.69,7
189,169.45,158.01,7
191,169.88,158.34,7
192,170.32,158.67,7
191,170.74,159.00,7
194,171.20,159.35,7
195,171.68,159.70,7
196,172.17,160.07,7
195,172.62,160.41,7
196,173.09,160.77,7
195,173.53,161.11,7
196,173.98,161.46,7
195,174.40,161.80,7
196,174.83,162.14,7
195,175.23,162.47,7
195,175.63,162.79,7
194,176.00,163.11,7
196,176.40,163.43,7
197,176.81,163.77,7
195,177.17,164.08,7
195,177.53,164.39,7
195,177.88,164.70,7
196,178.24,165.01,7
195,178.58,165.31,7
194,178.88,165.60,7
195,179.21,165.89,7
197,179.56,166.20,7
197,179.91,166.51,7
197,180.25,166.82,7
197,180.59,167.12,7
200,180.98,167.45,7
199,181.34,167.76,7
199,181.69,168.07,7
199,182.04,168.38,7
198,182.36,168.68,7
198,182.67,168.97,7
198,182.97,169.26,7
197,183.26,169.54,7
199,183.57,169.83,7
199,183.88,170.13,7
198,184.16,170.41,7
197,184.42,170.67,7
200,184.73,170.96,7
200,185.04,171.25,7
200,185.33,171.54,7
201,185.65,171.84,7
201,185.95,172.13,7
200,186.24,172.41,7
201,186.53,172.69,7
201,186.82,172.98,7
201,187.10,173.26,7
202,187.40,173.54,7
201,187.67,173.82,7
201,187.94,174.09,7
202,188.22,174.37,7
201,188.48,174.64,7
201,188.73,174.90,7
201,188.97,175.16,7
201,189.21,175.42,7
200,189.43,175.66,7
200,189.64,175.91,7
199,189.83,176.14,7
200,190.03,176.38,7
199,190.21,176.60,7
200,190.41,176.84,7
198,190.56,177.05,7
198,190.71,177.26,7
197,190.83,177.46,7
197,190.96,177.65,7
197,191.08,177.84,7
197,191.20,178.04,7
197,191.31,178.23,7
197,191.43,178.41,7
197,191.54,178.60,7
197,191.65,178.78,7
196,191.73,178.96,7
196,191.82,179.13,7
197,191.92,179.31,7
195,191.98,179.46,7
196,192.06,179.63,7
195,192.12,179.78,7
196,192.20,179.94,7
195,192.26,180.09,7
195,192.31,180.24,7
195,192.37,180.39,7
196,192.44,180.55,7
194,192.47,180.68,7
194,192.50,180.81,7
193,192.51,180.94,7
193,192.52,181.06,7
193,192.53,181.18,7
193,192.54,181.29,7
193,192.55,181.41,7
193,192.56,181.53,7
193,192.57,181.64,7
192,192.55,181.75,7
193,192.56,181.86,7
192,192.55,181.96,7
191,192.52,182.05,7
192,192.51,182.15,7
191,192.48,182.24,7
191,192.45,182.33,7
191,192.42,182.41,7
190,192.37,182.49,7
190,192.33,182.56,7
189,192.26,182.63,7
189,192.19,182.69,7
190,192.15,182.76,7
190,192.11,182.84,7
189,192.05,182.90,7
188,191.96,182.95,7
189,191.91,183.01,7
188,191.83,183.06,7
189,191.77,183.12,7
189,191.71,183.18,7
188,191.64,183.23,7
188,191.57,183.27,7
189,191.52,183.33,7
188,191.45,183.38,7
189,191.40,183.43,7
188,191.33,183.48,7
188,191.26,183.53,7
188,191.20,183.57,7
187,191.11,183.60,7
187,191.03,183.64,7
187,190.95,183.67,7
185,190.83,183.69,7
186,190.73,183.71,7
185,190.62,183.72,7
184,190.49,183.72,7
185,190.38,183.74,7
185,190.27,183.75,7
185,190.17,183.76,7
184,190.04,183.76,7
185,189.94,183.78,7
184,189.82,183.78,7
184,189.71,183.78,7
183,189.57,183.77,7
183,189.44,183.77,7
184,189.33,183.77,7
183,189.20,183.76,7
183,189.08,183.75,7
183,188.96,183.75,7
183,188.84,183.74,7
183,188.72,183.73,7
183,188.61,183.72,7
182,188.48,183.71,7
181,188.33,183.68,7
182,188.20,183.66,7
181,188.06,183.64,7
181,187.92,183.61,7
181,187.78,183.58,7
180,187.62,183.55,7
180,187.47,183.51,7
181,187.34,183.49,7
180,187.19,183.45,7
180,187.05,183.42,7
183,186.97,183.41,7
179,186.81,183.37,7
179,186.65,183.33,7
179,186.50,183.28,7
178,186.33,183.23,7
177,186.14,183.17,7
178,185.98,183.12,7
178,185.82,183.06,7
177,185.64,183.00,7
177,185.47,182.94,7
177,185.30,182.88,7
177,185.14,182.83,7
177,184.97,182.77,7
176,184.79,182.70,7
175,184.60,182.62,7
175,184.41,182.55,7
175,184.22,182.47,7
175,184.03,182.40,7
175,183.85,182.32,7
175,183.68,182.25,7
173,183.46,182.16,7
174,183.27,182.07,7
175,183.11,182.00,7
174,182.93,181.92,7
173,182.73,181.83,7
173,182.53,181.75,7
174,182.36,181.67,7
173,182.17,181.58,7
173,181.99,181.50,7
173,181.81,181.41,7
173,181.63,181.33,7
171,181.42,181.22,7
173,181.25,181.14,8
171,181.05,181.04,8
171,180.85,180.94,9
172,180.67,180.85,9
171,180.48,180.75,9
171,180.29,180.65,9
171,180.10,180.56,9
172,179.94,180.47,9
171,179.76,180.38,9
172,179.61,180.29,9
171,179.43,180.20,9
171,179.27,180.11,9
170,179.08,180.01,9
169,178.88,179.90,9
169,178.68,179.79,9
170,178.51,179.69,9
169,178.32,179.58,9
170,178.15,179.49,9
169,177.97,179.38,9
169,177.79,179.28,9
169,177.61,179.18,9
170,177.46,179.08,9
170,177.31,178.99,9
170,177.16,178.90,9
169,177.00,178.81,9
169,176.84,178.71,9
169,176.68,178.61,9
168,176.51,178.50,9
168,176.34,178.40,9
168,176.17,178.29,9
168,176.01,178.19,9
167,175.83,178.08,9
167,175.65,177.97,9
167,175.48,177.86,9
167,175.31,177.75,9
167,175.14,177.64,9
167,174.98,177.54,9
165,174.78,177.41,9
167,174.63,177.31,9
164,174.41,177.17,9
166,174.25,177.06,9
165,174.06,176.94,9
165,173.88,176.82,9
165,173.70,176.70,9
165,173.53,176.59,9
165,173.36,176.47,9
165,173.19,176.36,9
165,173.03,176.24,9
165,172.87,176.13,9
164,172.69,176.01,9
165,172.53,175.90,9
164,172.36,175.78,9
164,172.20,175.66,9
163,172.01,175.54,9
164,171.85,175.42,9
163,171.68,175.30,9
163,171.50,175.17,9
163,171.33,175.05,9
163,171.17,174.93,9
162,170.98,174.80,9
163,170.82,174.68,9
161,170.63,174.55,9
162,170.45,174.42,9
161,170.26,174.29,9
163,170.12,174.17,9
161,169.94,174.04,9
161,169.76,173.91,9
161,169.58,173.78,9
160,169.39,173.65,9
160,169.20,173.51,9
160,169.02,173.37,9
161,168.86,173.25,9
160,168.68,173.12,9
159,168.49,172.98,9
159,168.30,172.84,9
160,168.13,172.71,9
159,167.95,172.57,9
160,167.79,172.45,9
157,167.58,172.29,9
159,167.40,172.16,9
159,167.24,172.03,9
160,167.09,171.91,9
159,166.93,171.78,9
160,166.79,171.66,9
157,166.59,171.51,9
157,166.40,171.37,9
159,166.25,171.24,9
158,166.09,171.11,9
157,165.91,170.97,9
157,165.73,170.83,9
157,165.55,170.69,9
157,165.38,170.56,9
157,165.22,170.42,9
157,165.05,170.29,9
157,164.89,170.15,9
157,164.73,170.02,9
157,164.58,169.89,9
157,164.43,169.76,9
158,164.30,169.64,9
157,164.15,169.52,9
157,164.01,169.39,9
155,163.83,169.25,9
156,163.67,169.12,9
157,163.54,169.00,9
156,163.39,168.87,9
157,163.26,168.75,9
157,163.14,168.63,9
157,163.01,168.51,9
157,162.89,168.40,9
157,162.77,168.28,9
157,162.66,168.17,9
157,162.55,168.06,9
157,162.43,167.95,9
157,162.33,167.84,9
157,162.22,167.73,9
157,162.12,167.62,9
157,162.01,167.52,9
160,161.97,167.44,9
157,161.87,167.34,9
159,161.82,167.25,9
157,161.72,167.15,9
157,161.63,167.05,9
157,161.53,166.95,9
156,161.42,166.84,9
157,161.33,166.74,9
157,161.25,166.64,9
157,161.16,166.55,9
157,161.08,166.45,9
157,161.00,166.36,9
157,160.92,166.26,9
157,160.84,166.17,9
157,160.76,166.08,9
157,160.69,165.99,9
155,160.57,165.88,9
156,160.48,165.78,9
157,160.41,165.69,9
157,160.34,165.61,9
156,160.26,165.51,9
156,160.17,165.42,9
156,160.09,165.32,9
156,160.01,165.23,9
157,159.95,165.15,9
155,159.85,165.04,9
155,159.75,164.94,9
155,159.66,164.84,9
156,159.58,164.76,9
155,159.49,164.66,9
156,159.42,164.57,9
155,159.33,164.48,9
155,159.25,164.38,9
155,159.16,164.29,9
155,159.08,164.19,9
155,159.00,164.10,9
157,158.96,164.03,9
155,158.88,163.94,9
155,158.80,163.85,9
156,158.74,163.77,9
156,158.69,163.70,9
156,158.64,163.62,9
155,158.56,163.53,9
156,158.51,163.46,9
155,158.44,163.37,9
155,158.37,163.29,9
155,158.30,163.21,9
155,158.24,163.12,9
155,158.17,163.04,9
156,158.13,162.97,9
155,158.07,162.89,9
155,158.01,162.81,9
154,157.93,162.73,9
155,157.87,162.65,9
155,157.81,162.57,9
153,157.71,162.48,9
155,157.66,162.40,9
155,157.61,162.33,9
154,157.53,162.24,9
155,157.48,162.17,9
153,157.39,162.08,9
153,157.31,161.99,9
154,157.24,161.91,9
155,157.20,161.84,9
153,157.11,161.75,9
154,157.05,161.67,9
155,157.01,161.61,9
154,156.95,161.53,9
154,156.89,161.46,9
153,156.81,161.37,9
154,156.76,161.30,9
152,156.66,161.20,9
154,156.61,161.13,9
154,156.55,161.06,9
154,156.50,160.99,9
153,156.43,160.91,9
154,156.38,160.84,9
153,156.32,160.76,9
153,156.25,160.69,9
153,156.19,160.61,9
152,156.10,160.52,9
153,156.04,160.45,9
154,156.00,160.38,9
153,155.94,160.31,9
153,155.88,160.24,9
153,155.82,160.16,9
153,155.77,160.09,9
153,155.71,160.02,9
153,155.66,159.95,9
153,155.60,159.88,9
155,155.59,159.83,9
155,155.58,159.78,9
153,155.53,159.72,9
153,155.48,159.65,9
154,155.45,159.59,9
153,155.40,159.53,9
153,155.35,159.46,9
154,155.32,159.41,9
154,155.30,159.35,9
154,155.27,159.30,9
155,155.27,159.26,9
153,155.22,159.19,9
153,155.18,159.13,9
153,155.13,159.07,9
153,155.09,159.01,9
153,155.05,158.95,9
153,155.01,158.89,9
153,154.97,158.83,9
154,154.95,158.78,9
153,154.91,158.73,9
151,154.83,158.65,9
153,154.79,158.59,9
153,154.76,158.54,9
152,154.70,158.47,9
152,154.65,158.41,9
152,154.60,158.34,9
152,154.54,158.28,9
152,154.49,158.22,9
151,154.42,158.14,9
151,154.36,158.07,9
151,154.29,158.00,9
151,154.22,157.93,9
152,154.18,157.87,9
152,154.13,157.81,9
151,154.07,157.74,9
151,154.01,157.68,9
151,153.95,157.61,9
151,153.89,157.54,9
151,153.83,157.48,9
150,153.76,157.40,9
150,153.68,157.33,9
151,153.63,157.27,9
151,153.58,157.20,9
151,153.52,157.14,9
151,153.47,157.08,9
149,153.38,157.00,9
149,153.30,156.92,9
149,153.21,156.84,9
150,153.15,156.77,9
149,153.06,156.69,9
151,153.02,156.64,9
149,152.94,156.56,9
149,152.86,156.49,9
149,152.79,156.41,9
149,152.71,156.34,9
150,152.66,156.27,9
150,152.60,156.21,9
149,152.53,156.14,9
149,152.46,156.07,9
153,152.47,156.04,9
149,152.40,155.97,9
149,152.33,155.90,9
149,152.27,155.83,9
149,152.20,155.76,9
149,152.14,155.69,9
150,152.09,155.63,9
149,152.03,155.57,9
149,151.97,155.50,9
149,151.91,155.44,9
149,151.85,155.37,9
150,151.82,155.32,9
150,151.78,155.27,9
150,151.74,155.21,9
149,151.69,155.15,9
149,151.64,155.09,9
146,151.52,155.00,9
149,151.47,154.94,9
149,151.42,154.88,9
149,151.38,154.82,9
149,151.33,154.76,9
149,151.28,154.71,9
149,151.24,154.65,9
149,151.19,154.59,9
149,151.15,154.54,9
149,151.10,154.48,9
149,151.06,154.43,9
148,151.00,154.36,9
148,150.94,154.30,9
148,150.88,154.23,9
148,150.82,154.17,9
147,150.75,154.10,9
148,150.69,154.04,9
147,150.62,153.97,9
148,150.57,153.91,9
147,150.50,153.84,9
148,150.45,153.78,9
147,150.38,153.71,9
148,150.33,153.66,9
148,150.28,153.60,9
147,150.22,153.53,9
147,150.15,153.47,9
147,150.09,153.40,9
148,150.05,153.35,9
147,149.99,153.29,9
147,149.93,153.22,9
148,149.89,153.17,9
147,149.83,153.11,9
147,149.77,153.05,9
148,149.74,153.00,9
147,149.68,152.94,9
147,149.63,152.88,9
147,149.58,152.82,9
147,149.53,152.76,9
147,149.48,152.70,9
144,149.37,152.62,9
147,149.32,152.56,9
147,149.27,152.51,9
147,149.23,152.45,9
147,149.18,152.40,9
147,149.14,152.34,9
148,149.12,152.30,9
147,149.07,152.25,9
147,149.03,152.19,9
147,148.99,152.14,9
146,148.93,152.08,9
147,148.89,152.03,9
147,148.86,151.98,9
146,148.80,151.92,9
147,148.76,151.87,9
148,148.75,151.83,9
147,148.71,151.78,9
148,148.70,151.75,9
147,148.66,151.70,9
147,148.63,151.65,9
145,148.56,151.58,9
147,148.53,151.54,9
147,148.50,151.49,9
147,148.47,151.45,9
146,148.42,151.39,9
146,148.37,151.34,9
147,148.34,151.30,9
147,148.31,151.25,9
146,148.27,151.20,9
146,148.22,151.15,9
146,148.18,151.10,9
146,148.13,151.05,9
147,148.11,151.01,9
145,148.05,150.95,9
145,147.99,150.89,9
145,147.93,150.83,9
145,147.87,150.77,9
145,147.81,150.71,9
146,147.78,150.66,9
146,147.74,150.62,9
146,147.71,150.57,9
145,147.65,150.52,9
145,147.60,150.46,9
145,147.55,150.41,9
145,147.50,150.35,9
146,147.47,150.31,9
145,147.42,150.26,9
145,147.37,150.20,9
145,147.32,150.15,9
145,147.27,150.10,9
145,147.23,150.05,9
145,147.18,150.00,9
145,147.14,149.95,9
143,147.06,149.88,9
145,147.02,149.83,9
143,146.94,149.76,9
144,146.88,149.70,9
144,146.82,149.65,9
144,146.76,149.59,9
144,146.71,149.53,9
143,146.63,149.47,9
143,146.56,149.40,9
143,146.49,149.34,9
143,146.42,149.28,9
144,146.37,149.22,9
143,146.31,149.16,9
143,146.24,149.10,9
143,146.17,149.04,9
143,146.11,148.98,9
143,146.05,148.92,9
144,146.01,148.87,9
143,145.95,148.81,9
145,145.93,148.77,9
143,145.87,148.72,9
143,145.81,148.66,9
143,145.76,148.60,9
143,145.70,148.55,9
143,145.65,148.49,9
144,145.61,148.45,9
143,145.56,148.39,9
143,145.51,148.34,9
143,145.46,148.28,9
143,145.41,148.23,9
143,145.36,148.18,9
143,145.32,148.13,9
143,145.27,148.08,9
143,145.22,148.02,9
143,145.18,147.97,9
143,145.14,147.92,9
143,145.09,147.88,9
143,145.05,147.83,9
143,145.01,147.78,9
143,144.97,147.73,9
143,144.93,147.68,9
144,144.91,147.65,9
142,144.85,147.59,9
143,144.82,147.54,9
142,144.76,147.49,9
143,144.73,147.44,9
143,144.69,147.40,9
141,144.62,147.34,9
141,144.54,147.27,9
143,144.51,147.23,9
142,144.46,147.18,9
143,144.43,147.14,9
141,144.37,147.07,9
143,144.34,147.03,9
141,144.27,146.97,9
143,144.25,146.93,9
141,144.18,146.87,9
141,144.12,146.81,9
143,144.10,146.78,9
142,144.05,146.73,9
143,144.03,146.69,9
143,144.01,146.65,9
141,143.95,146.60,9
143,143.93,146.56,9
144,143.93,146.54,9
143,143.92,146.50,9
143,143.90,146.47,9
143,143.88,146.43,9
143,143.86,146.40,9
143,143.84,146.36,9
142,143.81,146.32,9
141,143.75,146.27,9
143,143.74,146.23,9
143,143.72,146.20,9
142,143.69,146.16,9
141,143.63,146.11,9
142,143.60,146.07,9
141,143.55,146.02,9
141,143.50,145.97,9
141,143.45,145.92,9
142,143.42,145.88,9
142,143.39,145.84,9
141,143.34,145.79,9
141,143.30,145.74,9
141,143.25,145.69,9
142,143.22,145.66,9
141,143.18,145.61,9
141,143.14,145.56,9
142,143.11,145.53,9
142,143.09,145.49,9
141,143.05,145.45,9
141,143.01,145.40,9
141,142.97,145.36,9
141,142.93,145.32,9
141,142.89,145.27,9
141,142.85,145.23,9
143,142.86,145.21,9
140,142.80,145.16,9
141,142.76,145.12,9
141,142.73,145.07,9
141,142.69,145.03,9
140,142.64,144.98,9
140,142.59,144.93,9
139,142.51,144.87,9
140,142.46,144.82,9
139,142.40,144.77,9
141,142.37,144.73,9
140,142.32,144.68,9
139,142.25,144.62,9
140,142.21,144.58,9
139,142.14,144.52,9
139,142.08,144.47,9
139,142.02,144.41,9
140,141.98,144.37,9
139,141.92,144.32,9
139,141.86,144.26,9
139,141.80,144.21,9
140,141.77,144.17,9
139,141.71,144.12,9
140,141.68,144.07,9
140,141.64,144.03,9
139,141.59,143.98,9
139,141.54,143.93,9
141,141.53,143.90,9
139,141.48,143.86,9
139,141.43,143.81,9
139,141.38,143.76,9
139,141.33,143.71,9
140,141.31,143.67,9
139,141.26,143.63,9
139,141.21,143.58,9
138,141.15,143.53,9
140,141.13,143.49,9
139,141.09,143.44,9
139,141.04,143.40,9
139,141.00,143.36,9
138,140.94,143.30,9
139,140.90,143.26,9
140,140.89,143.23,9
138,140.83,143.18,9
139,140.79,143.13,9
139,140.76,143.09,9
138,140.70,143.04,9
139,140.67,143.00,9
138,140.61,142.95,9
139,140.58,142.91,9
139,140.55,142.87,9
137,140.48,142.81,9
138,140.43,142.77,9
138,140.38,142.72,9
138,140.33,142.67,9
139,140.31,142.63,9
137,140.24,142.58,9
139,140.21,142.54,9
137,140.15,142.49,9
140,140.15,142.46,9
137,140.08,142.41,9
137,140.02,142.35,9
138,139.98,142.31,9
137,139.92,142.26,9
138,139.88,142.21,9
138,139.85,142.17,9
137,139.79,142.12,9
138,139.75,142.08,9
137,139.70,142.03,9
137,139.64,141.98,9
137,139.59,141.93,9
137,139.54,141.88,9
137,139.49,141.83,9
