Teste de posicionamento 1(EMG ao centro do bíceps (Vermelho A, Verde B) + Ref no pulso) - 16/09/2024 - teste6 - 5 contrações
long frequencia = 1000;                 //frequência de aquisição do sinal, neste caso, 1000 sinais por segundo
float fator1 = 0.02, fator2 = 0.01;
float incerteza = 0.13;
float pico_basal = 130; // Mínimo para ser considerado um pico de contração
int filtro_horizontal=200000; //intervalo de 200ms valores não pode ter mais de 1 contração

Biceps_D,mediaMovel_1,mediaMovel_2,Contracao
162,3.24,1.62,0
163,6.44,3.23,0
160,9.51,4.80,0
161,12.54,6.36,0
162,15.53,7.92,0
162,18.46,9.46,0
162,21.33,10.99,0
162,24.14,12.50,0
161,26.88,13.98,0
161,29.56,15.45,0
163,32.23,16.93,0
162,34.82,18.38,0
161,37.35,19.80,0
161,39.82,21.22,0
161,42.24,22.61,0
161,44.62,24.00,0
162,46.97,25.38,0
162,49.27,26.74,0
161,51.50,28.09,0
160,53.67,29.41,0
160,55.80,30.71,0
159,57.86,31.99,0
161,59.93,33.28,0
159,61.91,34.54,0
159,63.85,35.79,0
159,65.75,37.02,0
159,67.62,38.24,0
160,69.46,39.46,0
160,71.27,40.66,0
158,73.01,41.83,0
159,74.73,43.01,0
159,76.41,44.17,0
160,78.09,45.32,0
160,79.72,46.47,0
158,81.29,47.59,0
157,82.80,48.68,0
159,84.33,49.78,0
158,85.80,50.87,0
159,87.27,51.95,0
157,88.66,53.00,0
157,90.03,54.04,0
157,91.37,55.07,0
159,92.72,56.11,0
158,94.02,57.13,0
156,95.26,58.11,0
156,96.48,59.09,0
156,97.67,60.06,0
157,98.86,61.03,0
159,100.06,62.01,0
156,101.18,62.95,0
157,102.29,63.89,0
157,103.39,64.82,0
156,104.44,65.73,0
156,105.47,66.64,0
154,106.44,67.51,0
155,107.41,68.39,0
160,108.47,69.30,0
156,109.42,70.17,0
154,110.31,71.01,0
158,111.26,71.88,0
154,112.12,72.70,0
154,112.95,73.51,0
156,113.81,74.34,0
156,114.66,75.15,0
154,115.45,75.94,0
154,116.22,76.72,0
154,116.97,77.49,0
155,117.73,78.27,0
152,118.42,79.01,0
153,119.11,79.75,0
153,119.79,80.48,0
152,120.43,81.19,0
154,121.10,81.92,0
153,121.74,82.63,0
152,122.35,83.33,0
155,123.00,84.04,0
152,123.58,84.72,0
153,124.17,85.41,0
152,124.72,86.07,0
151,125.25,86.72,0
152,125.78,87.37,0
152,126.31,88.02,0
152,126.82,88.66,0
152,127.33,89.29,0
150,127.78,89.90,0
152,128.26,90.52,0
152,128.74,91.14,0
154,129.24,91.77,0
150,129.66,92.35,0
150,130.07,92.92,0
151,130.48,93.50,0
151,130.90,94.08,0
151,131.30,94.65,0
151,131.69,95.21,0
150,132.06,95.76,0
150,132.42,96.30,0
150,132.77,96.84,0
150,133.11,97.37,0
149,133.43,97.89,0
149,133.74,98.40,0
148,134.03,98.89,0
150,134.35,99.41,0
148,134.62,99.89,0
150,134.93,100.39,0
149,135.21,100.88,0
149,135.48,101.36,0
149,135.75,101.84,0
149,136.02,102.31,0
148,136.26,102.77,0
147,136.47,103.21,0
149,136.72,103.67,0
150,136.99,104.13,0
149,137.23,104.58,0
147,137.43,105.00,0
149,137.66,105.44,0
149,137.88,105.88,0
149,138.11,106.31,0
147,138.28,106.72,0
147,138.46,107.12,0
147,138.63,107.52,0
148,138.82,107.92,0
148,139.00,108.32,0
145,139.12,108.69,0
147,139.28,109.07,0
147,139.43,109.45,0
148,139.60,109.84,0
146,139.73,110.20,0
149,139.92,110.59,0
146,140.04,110.94,0
148,140.20,111.31,0
146,140.31,111.66,0
145,140.41,111.99,0
145,140.50,112.32,0
145,140.59,112.65,0
145,140.68,112.97,0
145,140.76,113.29,0
144,140.83,113.60,0
145,140.91,113.91,0
145,140.99,114.22,0
145,141.07,114.53,0
143,141.11,114.82,0
143,141.15,115.10,0
145,141.23,115.40,0
145,141.30,115.69,0
144,141.36,115.98,0
143,141.39,116.25,0
143,141.42,116.51,0
144,141.47,116.79,0
143,141.50,117.05,0
143,141.53,117.31,0
142,141.54,117.56,0
142,141.55,117.80,0
144,141.60,118.06,0
143,141.63,118.31,0
143,141.66,118.56,0
141,141.64,118.79,0
143,141.67,119.03,0
143,141.70,119.27,0
143,141.72,119.50,0
141,141.71,119.72,0
141,141.69,119.93,0
141,141.68,120.14,0
143,141.71,120.37,0
141,141.69,120.58,0
141,141.68,120.78,0
141,141.67,120.98,0
142,141.67,121.19,0
143,141.70,121.41,0
141,141.69,121.61,0
141,141.67,121.80,0
141,141.66,121.99,0
141,141.64,122.18,0
141,141.63,122.37,0
140,141.60,122.55,0
140,141.57,122.72,0
140,141.54,122.90,0
141,141.53,123.08,0
140,141.49,123.25,0
140,141.46,123.41,0
139,141.42,123.57,0
141,141.41,123.74,0
141,141.40,123.92,0
140,141.37,124.08,0
139,141.32,124.23,0
140,141.30,124.38,0
140,141.27,124.54,0
139,141.23,124.68,0
140,141.20,124.84,0
139,141.16,124.98,0
139,141.11,125.12,0
140,141.09,125.27,0
139,141.05,125.41,0
138,140.99,125.53,0
139,140.95,125.67,0
139,140.91,125.80,0
140,140.89,125.94,0
139,140.85,126.07,0
137,140.78,126.18,0
138,140.72,126.30,0
140,140.71,126.44,0
139,140.67,126.56,0
137,140.60,126.67,0
137,140.53,126.77,0
139,140.50,126.89,0
139,140.47,127.01,0
138,140.42,127.12,0
137,140.35,127.22,0
137,140.28,127.32,0
139,140.26,127.44,0
139,140.23,127.55,0
137,140.17,127.65,0
137,140.10,127.74,0
137,140.04,127.83,0
138,140.00,127.93,0
137,139.94,128.03,0
136,139.86,128.11,0
137,139.80,128.19,0
137,139.75,128.28,0
137,139.69,128.37,0
137,139.64,128.46,0
136,139.57,128.53,0
141,139.60,128.66,0
136,139.52,128.73,0
137,139.47,128.81,0
136,139.40,128.88,0
137,139.36,128.97,0
136,139.29,129.04,0
137,139.24,129.12,0
137,139.20,129.19,0
135,139.11,129.25,0
136,139.05,129.32,0
137,139.01,129.40,0
136,138.95,129.46,0
136,138.89,129.53,0
135,138.81,129.58,0
136,138.76,129.65,0
137,138.72,129.72,0
135,138.65,129.77,0
135,138.57,129.83,0
135,138.50,129.88,0
135,138.43,129.93,0
135,138.36,129.98,0
136,138.32,130.04,0
133,138.21,130.07,0
131,138.07,130.08,0
134,137.99,130.12,0
135,137.93,130.17,0
135,137.87,130.21,0
135,137.81,130.26,0
133,137.71,130.29,0
135,137.66,130.34,0
134,137.59,130.37,0
133,137.49,130.40,0
133,137.40,130.43,0
134,137.34,130.46,0
133,137.25,130.49,0
134,137.18,130.52,0
133,137.10,130.55,0
133,137.02,130.57,0
133,136.94,130.60,0
133,136.86,130.62,0
133,136.78,130.64,0
133,136.71,130.67,0
133,136.63,130.69,0
134,136.58,130.72,0
137,136.59,130.79,0
132,136.50,130.80,0
133,136.43,130.82,0
133,136.36,130.84,0
134,136.31,130.87,0
133,136.25,130.89,0
132,136.16,130.91,0
133,136.10,130.93,0
133,136.04,130.95,0
133,135.97,130.97,0
131,135.87,130.97,0
131,135.78,130.97,0
131,135.68,130.97,0
132,135.61,130.98,0
132,135.54,130.99,0
132,135.47,131.00,0
132,135.40,131.01,0
132,135.33,131.02,0
131,135.24,131.02,0
131,135.16,131.02,0
131,135.07,131.02,0
132,135.01,131.03,0
131,134.93,131.03,0
132,134.87,131.04,0
129,134.76,131.02,0
131,134.68,131.02,0
132,134.63,131.03,0
130,134.53,131.02,0
130,134.44,131.01,0
129,134.33,130.99,0
129,134.23,130.97,0
129,134.12,130.95,0
129,134.02,130.93,0
129,133.92,130.91,0
129,133.82,130.89,0
129,133.73,130.87,0
129,133.63,130.85,0
129,133.54,130.83,0
130,133.47,130.83,0
129,133.38,130.81,0
128,133.27,130.78,0
129,133.19,130.76,0
129,133.10,130.74,0
129,133.02,130.73,0
128,132.92,130.70,0
129,132.84,130.68,0
129,132.76,130.66,0
129,132.69,130.65,0
128,132.60,130.62,0
129,132.52,130.61,0
129,132.45,130.59,0
129,132.38,130.57,0
129,132.32,130.56,0
130,132.27,130.55,0
128,132.18,130.53,0
128,132.10,130.50,0
129,132.04,130.49,0
129,131.98,130.47,0
129,131.92,130.46,0
128,131.84,130.43,0
130,131.80,130.43,0
129,131.75,130.41,0
128,131.67,130.39,0
127,131.58,130.36,0
127,131.49,130.32,0
129,131.44,130.31,0
128,131.37,130.29,0
127,131.28,130.25,0
127,131.20,130.22,0
127,131.11,130.19,0
129,131.07,130.18,0
127,130.99,130.14,0
126,130.89,130.10,0
128,130.83,130.08,0
127,130.75,130.05,0
127,130.68,130.02,0
126,130.59,129.98,0
127,130.51,129.95,0
127,130.44,129.92,0
127,130.37,129.89,0
129,130.35,129.88,0
128,130.30,129.86,0
127,130.23,129.84,0
126,130.15,129.80,0
127,130.09,129.77,0
127,130.02,129.74,0
125,129.92,129.69,0
125,129.83,129.65,0
126,129.75,129.61,0
125,129.65,129.56,0
125,129.56,129.52,0
126,129.49,129.48,0
127,129.44,129.46,0
126,129.37,129.42,0
125,129.28,129.38,0
125,129.20,129.34,0
125,129.11,129.29,0
127,129.07,129.27,0
127,129.03,129.25,0
125,128.95,129.20,0
125,128.87,129.16,0
127,128.83,129.14,0
127,128.80,129.12,0
125,128.72,129.08,0
127,128.69,129.06,0
127,128.65,129.04,0
128,128.64,129.03,0
127,128.61,129.01,0
126,128.55,128.98,0
126,128.50,128.95,0
127,128.47,128.93,0
127,128.44,128.91,0
127,128.42,128.89,0
125,128.35,128.85,0
125,128.28,128.81,0
127,128.25,128.79,0
126,128.21,128.77,0
127,128.19,128.75,0
125,128.12,128.71,0
125,128.06,128.67,0
127,128.04,128.66,0
124,127.96,128.61,0
125,127.90,128.57,0
124,127.82,128.53,0
124,127.74,128.48,0
125,127.69,128.45,0
126,127.65,128.42,0
124,127.58,128.38,0
126,127.55,128.36,0
125,127.50,128.32,0
127,127.49,128.31,0
127,127.48,128.30,0
126,127.45,128.27,0
125,127.40,128.24,0
125,127.35,128.21,0
124,127.29,128.17,0
128,127.30,128.16,0
125,127.25,128.13,0
124,127.19,128.09,0
125,127.15,128.06,0
124,127.08,128.02,0
125,127.04,127.99,0
126,127.02,127.97,0
124,126.96,127.93,0
124,126.90,127.89,0
124,126.84,127.85,0
123,126.77,127.80,0
124,126.71,127.76,0
124,126.66,127.73,0
124,126.60,127.69,0
123,126.53,127.64,0
125,126.50,127.62,0
124,126.45,127.58,0
125,126.42,127.55,0
121,126.31,127.49,0
123,126.25,127.44,0
121,126.14,127.38,0
123,126.08,127.34,0
123,126.02,127.29,0
122,125.94,127.24,0
121,125.84,127.18,0
122,125.76,127.13,0
122,125.69,127.07,0
126,125.69,127.06,0
121,125.60,127.00,0
122,125.53,126.95,0
122,125.46,126.90,0
123,125.41,126.86,0
126,125.42,126.86,0
123,125.37,126.82,0
123,125.32,126.78,0
125,125.32,126.76,0
124,125.29,126.73,0
123,125.24,126.70,0
123,125.20,126.66,0
125,125.20,126.64,0
125,125.19,126.63,0
124,125.17,126.60,0
123,125.12,126.56,0
124,125.10,126.54,0
124,125.08,126.51,0
124,125.06,126.49,0
123,125.02,126.45,0
122,124.96,126.41,0
122,124.90,126.36,0
124,124.88,126.34,0
124,124.86,126.32,0
122,124.80,126.27,0
124,124.79,126.25,0
124,124.77,126.23,0
121,124.70,126.18,0
121,124.62,126.12,0
123,124.59,126.09,0
121,124.52,126.04,0
123,124.49,126.01,0
123,124.46,125.98,0
125,124.47,125.97,0
122,124.42,125.93,0
121,124.35,125.88,0
124,124.35,125.86,0
125,124.36,125.86,0
123,124.33,125.83,0
121,124.26,125.78,0
122,124.22,125.74,0
122,124.17,125.70,0
123,124.15,125.68,0
123,124.13,125.65,0
121,124.07,125.60,0
121,124.00,125.56,0
123,123.98,125.53,0
123,123.96,125.51,0
123,123.95,125.48,0
123,123.93,125.46,0
123,123.91,125.43,0
125,123.93,125.43,0
119,123.83,125.36,0
123,123.81,125.34,0
125,123.84,125.34,0
123,123.82,125.31,0
121,123.77,125.27,0
122,123.73,125.24,0
123,123.72,125.21,0
124,123.72,125.20,0
122,123.69,125.17,0
121,123.63,125.13,0
121,123.58,125.09,0
123,123.57,125.07,0
123,123.56,125.05,0
126,123.61,125.06,0
121,123.55,125.02,0
121,123.50,124.98,0
122,123.47,124.95,0
121,123.42,124.91,0
123,123.41,124.89,0
121,123.37,124.85,0
124,123.38,124.84,0
122,123.35,124.81,0
121,123.30,124.77,0
123,123.30,124.76,0
124,123.31,124.75,0
121,123.27,124.71,0
121,123.22,124.67,0
121,123.18,124.64,0
122,123.15,124.61,0
121,123.11,124.57,0
121,123.07,124.54,0
120,123.01,124.49,0
124,123.03,124.49,0
121,122.99,124.45,0
124,123.01,124.45,0
124,123.03,124.44,0
124,123.05,124.44,0
123,123.04,124.43,0
121,123.00,124.39,0
125,123.04,124.40,0
123,123.04,124.38,0
124,123.06,124.38,0
123,123.06,124.37,0
125,123.10,124.37,0
125,123.14,124.38,0
123,123.13,124.36,0
125,123.17,124.37,0
123,123.17,124.36,0
122,123.15,124.33,0
125,123.18,124.34,0
123,123.18,124.33,0
124,123.20,124.32,0
123,123.19,124.31,0
124,123.21,124.31,0
125,123.24,124.31,0
126,123.30,124.33,0
125,123.33,124.34,0
124,123.35,124.33,0
123,123.34,124.32,0
124,123.35,124.32,0
125,123.38,124.32,0
123,123.38,124.31,0
125,123.41,124.32,0
124,123.42,124.31,0
125,123.45,124.32,0
123,123.44,124.31,0
124,123.46,124.31,0
123,123.45,124.29,0
124,123.46,124.29,0
125,123.49,124.30,0
123,123.48,124.28,0
123,123.47,124.27,0
124,123.48,124.27,0
124,123.49,124.27,0
122,123.46,124.24,0
125,123.49,124.25,0
123,123.48,124.24,0
124,123.49,124.24,0
124,123.50,124.23,0
123,123.49,124.22,0
122,123.46,124.20,0
124,123.47,124.20,0
123,123.46,124.18,0
123,123.45,124.17,0
125,123.48,124.18,0
124,123.49,124.18,0
123,123.49,124.17,0
124,123.50,124.17,0
123,123.49,124.15,0
125,123.52,124.16,0
125,123.55,124.17,0
122,123.51,124.15,0
129,123.62,124.20,0
126,123.67,124.22,0
127,123.74,124.24,0
125,123.76,124.25,0
131,123.91,124.32,0
132,124.07,124.40,0
127,124.13,124.42,0
127,124.19,124.45,0
128,124.26,124.48,0
128,124.34,124.52,0
128,124.41,124.55,0
131,124.54,124.62,0
131,124.67,124.68,0
127,124.72,124.70,0
132,124.86,124.78,0
128,124.93,124.81,0
128,124.99,124.84,0
131,125.11,124.90,0
129,125.19,124.94,0
128,125.24,124.97,0
129,125.32,125.01,0
129,125.39,125.05,0
130,125.48,125.10,0
132,125.61,125.17,0
130,125.70,125.22,0
129,125.77,125.26,0
128,125.81,125.29,0
132,125.94,125.35,0
129,126.00,125.39,0
133,126.14,125.47,0
129,126.19,125.50,0
130,126.27,125.55,0
128,126.30,125.57,0
131,126.40,125.63,0
129,126.45,125.66,0
133,126.58,125.73,0
129,126.63,125.77,0
129,126.68,125.80,0
131,126.76,125.85,0
136,126.95,125.95,0
134,127.09,126.03,0
132,127.19,126.09,0
131,127.26,126.14,0
135,127.42,126.23,0
135,127.57,126.32,0
131,127.64,126.36,0
137,127.83,126.47,0
132,127.91,126.53,0
133,128.01,126.59,0
137,128.19,126.69,0
133,128.29,126.76,0
133,128.38,126.82,0
135,128.51,126.90,0
133,128.60,126.96,0
132,128.67,127.01,0
137,128.84,127.11,0
137,129.00,127.21,0
129,129.00,127.23,0
133,129.08,127.29,0
135,129.20,127.36,0
133,129.28,127.42,0
135,129.39,127.50,0
137,129.54,127.59,0
135,129.65,127.67,0
138,129.82,127.77,0
137,129.96,127.86,0
135,130.06,127.93,0
136,130.18,128.01,0
137,130.32,128.10,0
139,130.49,128.21,0
139,130.66,128.32,0
137,130.79,128.41,0
135,130.87,128.47,0
135,130.96,128.54,0
136,131.06,128.61,0
135,131.14,128.68,0
137,131.25,128.76,0
137,131.37,128.84,0
139,131.52,128.94,0
137,131.63,129.02,0
137,131.74,129.10,0
138,131.86,129.19,0
140,132.03,129.30,0
139,132.16,129.40,0
139,132.30,129.49,0
143,132.52,129.63,0
139,132.65,129.72,0
137,132.73,129.80,0
138,132.84,129.88,0
140,132.98,129.98,0
138,133.08,130.06,0
140,133.22,130.16,0
143,133.42,130.29,0
146,133.67,130.44,0
141,133.81,130.55,0
149,134.12,130.73,0
142,134.28,130.85,0
142,134.43,130.96,0
143,134.60,131.08,0
142,134.75,131.19,0
143,134.91,131.31,0
143,135.08,131.42,0
141,135.19,131.52,0
145,135.39,131.65,0
143,135.54,131.77,0
142,135.67,131.87,0
147,135.90,132.02,0
144,136.06,132.14,0
143,136.20,132.25,0
144,136.36,132.37,0
144,136.51,132.48,0
152,136.82,132.68,0
156,137.20,132.91,0
160,137.66,133.18,0
152,137.94,133.37,0
150,138.19,133.54,0
154,138.50,133.74,0
159,138.91,133.99,0
154,139.21,134.19,0
161,139.65,134.46,0
152,139.90,134.64,0
152,140.14,134.81,0
155,140.44,135.01,0
155,140.73,135.21,0
155,141.01,135.41,0
155,141.29,135.61,0
157,141.61,135.82,0
155,141.87,136.01,0
156,142.16,136.21,0
159,142.49,136.44,0
155,142.74,136.63,0
155,142.99,136.81,0
156,143.25,137.00,0
155,143.48,137.18,0
160,143.81,137.41,0
158,144.10,137.62,0
158,144.38,137.82,0
157,144.63,138.01,0
162,144.98,138.25,0
161,145.30,138.48,0
167,145.73,138.76,0
167,146.16,139.05,0
161,146.45,139.27,0
165,146.82,139.52,0
167,147.23,139.80,0
161,147.50,140.01,0
162,147.79,140.23,0
168,148.20,140.51,0
171,148.65,140.81,0
165,148.98,141.05,0
165,149.30,141.29,0
169,149.69,141.57,0
170,150.10,141.85,0
166,150.42,142.10,0
166,150.73,142.34,0
170,151.12,142.61,0
171,151.51,142.90,0
173,151.94,143.20,0
167,152.24,143.43,0
169,152.58,143.69,0
166,152.85,143.91,0
168,153.15,144.15,0
165,153.39,144.36,0
170,153.72,144.62,0
175,154.15,144.92,0
177,154.60,145.24,0
175,155.01,145.54,0
175,155.41,145.84,0
175,155.80,146.13,0
171,156.11,146.38,0
175,156.48,146.66,0
176,156.87,146.96,0
175,157.24,147.24,0
172,157.53,147.48,0
173,157.84,147.74,0
174,158.16,148.00,0
182,158.64,148.34,0
179,159.05,148.65,0
179,159.45,148.95,0
175,159.76,149.21,0
183,160.22,149.55,0
188,160.78,149.93,0
188,161.32,150.32,0
181,161.72,150.62,0
179,162.06,150.91,0
181,162.44,151.21,0
183,162.85,151.52,0
185,163.30,151.86,0
182,163.67,152.16,0
185,164.10,152.49,0
181,164.43,152.77,0
181,164.77,153.06,0
180,165.07,153.33,0
181,165.39,153.60,0
185,165.78,153.92,0
186,166.19,154.24,0
190,166.66,154.60,0
183,166.99,154.88,0
181,167.27,155.14,0
187,167.66,155.46,0
189,168.09,155.79,0
186,168.45,156.10,0
185,168.78,156.39,0
185,169.10,156.67,0
184,169.40,156.95,0
184,169.69,157.22,0
183,169.96,157.47,0
185,170.26,157.75,0
183,170.52,158.00,0
183,170.77,158.25,0
181,170.97,158.48,0
183,171.21,158.72,0
183,171.45,158.97,0
183,171.68,159.21,0
182,171.88,159.44,0
184,172.13,159.68,0
181,172.30,159.89,0
188,172.62,160.18,0
186,172.89,160.43,0
184,173.11,160.67,0
182,173.29,160.88,0
187,173.56,161.14,0
183,173.75,161.36,0
185,173.97,161.60,0
183,174.15,161.81,0
182,174.31,162.01,0
183,174.48,162.22,0
181,174.61,162.41,0
182,174.76,162.61,0
183,174.93,162.81,0
183,175.09,163.01,0
183,175.25,163.21,0
183,175.40,163.41,0
181,175.51,163.59,0
183,175.66,163.78,0
181,175.77,163.95,0
181,175.88,164.12,0
181,175.98,164.29,0
180,176.06,164.45,0
182,176.18,164.63,0
180,176.25,164.78,0
179,176.31,164.92,0
181,176.40,165.08,0
181,176.49,165.24,0
181,176.58,165.40,0
183,176.71,165.57,0
180,176.78,165.72,0
180,176.84,165.86,0
179,176.89,165.99,0
179,176.93,166.12,0
180,176.99,166.26,0
177,176.99,166.37,0
179,177.03,166.50,0
179,177.07,166.62,0
177,177.07,166.72,0
177,177.07,166.83,0
176,177.05,166.92,0
180,177.10,167.05,0
177,177.10,167.15,0
177,177.10,167.25,0
177,177.10,167.35,0
176,177.08,167.43,0
175,177.03,167.51,0
175,176.99,167.58,0
175,176.95,167.66,0
175,176.92,167.73,0
175,176.88,167.80,0
177,176.88,167.89,0
179,176.92,168.01,0
175,176.88,168.08,0
175,176.85,168.15,0
175,176.81,168.21,0
175,176.77,168.28,0
174,176.72,168.34,0
173,176.64,168.39,0
173,176.57,168.43,0
175,176.54,168.50,0
173,176.47,168.54,0
173,176.40,168.59,0
172,176.31,168.62,0
172,176.22,168.65,0
172,176.14,168.69,0
171,176.04,168.71,0
171,175.94,168.73,0
171,175.84,168.76,0
169,175.70,168.76,0
169,175.57,168.76,0
171,175.48,168.78,0
171,175.39,168.81,0
170,175.28,168.82,0
169,175.15,168.82,0
169,175.03,168.82,0
170,174.93,168.83,0
171,174.85,168.86,0
169,174.73,168.86,0
169,174.62,168.86,0
169,174.51,168.86,0
168,174.38,168.85,0
168,174.25,168.84,0
167,174.10,168.82,0
167,173.96,168.81,0
167,173.82,168.79,0
165,173.65,168.75,0
166,173.49,168.72,0
168,173.38,168.72,0
167,173.26,168.70,0
167,173.13,168.68,0
166,172.99,168.65,0
165,172.83,168.62,0
165,172.67,168.58,0
167,172.56,168.57,0
165,172.41,168.53,0
165,172.26,168.49,0
163,172.07,168.44,0
165,171.93,168.41,0
164,171.77,168.36,0
164,171.62,168.32,0
164,171.47,168.27,0
164,171.32,168.23,0
164,171.17,168.19,0
163,171.01,168.14,0
163,170.85,168.09,0
163,170.69,168.04,0
163,170.54,167.98,0
162,170.37,167.93,0
161,170.18,167.86,0
161,169.99,167.79,0
163,169.85,167.74,0
161,169.68,167.67,0
160,169.48,167.60,0
161,169.31,167.53,0
161,169.15,167.46,0
161,168.98,167.40,0
161,168.83,167.34,0
160,168.65,167.26,0
160,168.48,167.19,0
161,168.33,167.13,0
161,168.18,167.07,0
159,168.00,166.99,0
160,167.84,166.92,0
161,167.70,166.86,0
160,167.55,166.79,0
160,167.39,166.72,0
159,167.23,166.64,0
159,167.06,166.57,0
159,166.90,166.49,0
159,166.74,166.42,0
159,166.59,166.34,0
160,166.46,166.28,0
159,166.31,166.21,1
157,166.12,166.11,1
157,165.94,166.02,2
157,165.76,165.93,2
157,165.58,165.84,2
156,165.39,165.74,2
155,165.19,165.64,2
155,164.98,165.53,2
157,164.82,165.45,2
156,164.65,165.35,2
157,164.49,165.27,2
156,164.32,165.17,2
155,164.14,165.07,2
155,163.95,164.97,2
156,163.79,164.88,2
156,163.64,164.79,2
155,163.47,164.70,2
153,163.26,164.58,2
153,163.05,164.46,2
155,162.89,164.37,2
154,162.71,164.26,2
153,162.52,164.15,2
153,162.33,164.04,2
153,162.14,163.93,2
153,161.96,163.82,2
153,161.78,163.71,2
152,161.58,163.60,2
152,161.39,163.48,2
152,161.20,163.36,2
152,161.02,163.25,2
151,160.82,163.13,2
152,160.64,163.02,2
149,160.41,162.88,2
151,160.22,162.76,2
152,160.06,162.65,2
151,159.88,162.53,2
151,159.70,162.42,2
150,159.51,162.29,2
151,159.34,162.18,2
151,159.17,162.07,2
149,158.96,161.94,2
149,158.77,161.81,2
151,158.61,161.70,2
149,158.42,161.57,2
148,158.21,161.44,2
152,158.09,161.34,2
150,157.92,161.23,2
149,157.75,161.11,2
149,157.57,160.99,2
149,157.40,160.87,2
149,157.23,160.75,2
148,157.05,160.62,2
148,156.87,160.50,2
147,156.67,160.36,2
147,156.47,160.23,2
147,156.29,160.09,2
147,156.10,159.96,2
148,155.94,159.84,2
146,155.74,159.71,2
146,155.54,159.57,2
147,155.37,159.44,2
148,155.23,159.33,2
147,155.06,159.21,2
146,154.88,159.07,2
146,154.70,158.94,2
146,154.53,158.81,2
147,154.38,158.70,2
145,154.19,158.56,2
145,154.01,158.42,2
145,153.83,158.29,2
144,153.63,158.15,2
145,153.46,158.01,2
145,153.29,157.88,2
145,153.12,157.75,2
143,152.92,157.61,2
144,152.74,157.47,2
146,152.61,157.36,2
147,152.49,157.25,2
145,152.34,157.13,2
147,152.24,157.03,2
147,152.13,156.93,2
145,151.99,156.81,2
144,151.83,156.68,2
145,151.69,156.56,2
145,151.56,156.45,2
144,151.41,156.32,2
143,151.24,156.19,2
143,151.08,156.06,2
143,150.91,155.93,2
143,150.76,155.80,2
142,150.58,155.66,2
142,150.41,155.52,2
143,150.26,155.40,2
142,150.10,155.27,2
142,149.93,155.13,2
143,149.80,155.01,2
141,149.62,154.87,2
142,149.47,154.74,2
141,149.30,154.61,2
141,149.13,154.47,2
139,148.93,154.31,2
142,148.79,154.19,2
141,148.63,154.06,2
140,148.46,153.92,2
140,148.29,153.78,2
140,148.13,153.64,2
141,147.98,153.52,2
140,147.82,153.38,2
140,147.67,153.25,2
139,147.49,153.10,2
139,147.33,152.96,2
138,147.14,152.81,2
140,147.00,152.69,2
139,146.84,152.55,2
140,146.70,152.42,2
137,146.51,152.27,2
140,146.38,152.15,2
139,146.23,152.01,2
140,146.10,151.89,2
140,145.98,151.78,2
139,145.84,151.65,2
139,145.70,151.52,2
141,145.61,151.42,2
140,145.50,151.30,2
139,145.37,151.18,2
137,145.20,151.04,2
139,145.08,150.92,2
141,145.00,150.82,2
139,144.88,150.70,2
141,144.80,150.60,2
141,144.72,150.51,2
140,144.63,150.40,2
139,144.52,150.29,2
138,144.38,150.16,2
140,144.30,150.06,2
138,144.17,149.94,2
139,144.07,149.83,2
140,143.99,149.73,2
139,143.89,149.63,2
139,143.79,149.52,2
139,143.69,149.42,2
139,143.60,149.31,2
140,143.53,149.22,2
137,143.40,149.10,2
137,143.27,148.98,2
138,143.16,148.87,2
139,143.08,148.77,2
137,142.96,148.65,2
138,142.86,148.54,2
139,142.78,148.45,2
139,142.71,148.35,2
137,142.59,148.24,2
137,142.48,148.13,2
136,142.35,148.01,2
137,142.24,147.90,2
137,142.14,147.79,2
138,142.06,147.69,2
137,141.96,147.58,2
139,141.90,147.50,2
140,141.86,147.42,2
139,141.80,147.34,2
137,141.71,147.23,2
137,141.61,147.13,2
137,141.52,147.03,2
138,141.45,146.94,2
138,141.38,146.85,2
139,141.33,146.77,2
139,141.29,146.69,2
141,141.28,146.64,2
142,141.29,146.59,2
139,141.25,146.51,2
137,141.16,146.42,2
137,141.08,146.33,2
138,141.02,146.24,2
140,141.00,146.18,2
137,140.92,146.09,2
137,140.84,146.00,2
137,140.76,145.91,2
137,140.69,145.82,2
137,140.61,145.73,2
136,140.52,145.63,2
136,140.43,145.54,2
138,140.38,145.46,2
137,140.31,145.38,2
136,140.23,145.28,2
136,140.14,145.19,2
135,140.04,145.09,2
136,139.96,145.00,2
136,139.88,144.91,2
135,139.78,144.81,2
135,139.69,144.71,2
133,139.55,144.59,2
134,139.44,144.49,2
133,139.31,144.37,2
136,139.25,144.29,2
133,139.12,144.18,2
133,139.00,144.06,2
135,138.92,143.97,2
133,138.80,143.86,2
133,138.69,143.75,2
133,138.57,143.65,2
133,138.46,143.54,2
133,138.35,143.44,2
132,138.22,143.32,2
132,138.10,143.21,2
132,137.98,143.10,2
131,137.84,142.97,2
131,137.70,142.85,2
131,137.57,142.74,2
131,137.44,142.62,2
132,137.33,142.51,2
132,137.22,142.41,2
131,137.10,142.29,2
130,136.95,142.17,2
133,136.88,142.08,2
130,136.74,141.96,2
132,136.64,141.86,2
131,136.53,141.75,2
130,136.40,141.63,2
132,136.31,141.54,2
132,136.23,141.44,2
131,136.12,141.34,2
131,136.02,141.23,2
132,135.94,141.14,2
131,135.84,141.04,2
131,135.74,140.94,2
129,135.61,140.82,2
130,135.50,140.71,2
130,135.39,140.60,2
132,135.32,140.52,2
131,135.23,140.42,2
131,135.15,140.33,2
131,135.06,140.24,2
131,134.98,140.14,2
129,134.86,140.03,2
129,134.75,139.92,2
130,134.65,139.82,2
130,134.56,139.72,2
129,134.45,139.62,2
130,134.36,139.52,2
129,134.25,139.42,2
129,134.15,139.31,2
128,134.02,139.20,2
128,133.90,139.09,2
129,133.80,138.99,2
128,133.69,138.88,2
129,133.59,138.78,2
127,133.46,138.66,2
129,133.37,138.56,2
128,133.27,138.46,2
129,133.18,138.36,2
127,133.06,138.25,2
128,132.96,138.15,2
128,132.86,138.04,2
127,132.74,137.93,2
127,132.62,137.82,2
127,132.51,137.72,2
127,132.40,137.61,2
128,132.31,137.51,2
127,132.21,137.41,2
126,132.08,137.29,2
126,131.96,137.18,2
127,131.86,137.08,2
127,131.77,136.98,2
125,131.63,136.86,2
125,131.50,136.74,2
125,131.37,136.62,2
127,131.28,136.53,2
125,131.15,136.41,2
125,131.03,136.30,2
125,130.91,136.18,2
127,130.83,136.09,2
126,130.74,135.99,2
124,130.60,135.87,2
126,130.51,135.77,2
127,130.44,135.68,2
126,130.35,135.59,2
125,130.24,135.48,2
125,130.14,135.38,2
124,130.02,135.26,2
127,129.96,135.18,2
125,129.86,135.08,2
124,129.74,134.97,2
124,129.62,134.86,2
123,129.49,134.74,2
124,129.38,134.63,2
125,129.29,134.54,2
125,129.21,134.44,2
127,129.16,134.37,2
124,129.06,134.26,2
125,128.98,134.17,2
127,128.94,134.10,2
124,128.84,134.00,2
124,128.74,133.90,2
123,128.63,133.79,2
124,128.54,133.69,2
123,128.43,133.58,2
123,128.32,133.48,2
124,128.23,133.38,2
123,128.13,133.28,2
123,128.02,133.18,2
124,127.94,133.08,2
122,127.83,132.97,2
123,127.73,132.87,2
123,127.63,132.78,2
123,127.54,132.68,2
123,127.45,132.58,2
122,127.34,132.48,2
122,127.23,132.37,2
122,127.13,132.27,2
123,127.05,132.17,2
123,126.97,132.08,2
123,126.89,131.99,2
123,126.81,131.90,2
124,126.75,131.82,2
121,126.64,131.71,2
121,126.53,131.61,2
123,126.45,131.52,2
124,126.41,131.45,2
121,126.30,131.34,2
121,126.19,131.24,2
123,126.13,131.16,2
121,126.03,131.05,2
122,125.94,130.96,2
122,125.87,130.87,2
121,125.77,130.78,2
121,125.67,130.68,2
119,125.54,130.56,2
123,125.49,130.49,2
121,125.40,130.39,2
121,125.31,130.30,2
120,125.20,130.19,2
123,125.16,130.12,2
123,125.12,130.05,2
120,125.02,129.95,2
120,124.92,129.85,2
120,124.82,129.75,2
121,124.74,129.66,2
120,124.65,129.57,2
120,124.55,129.47,2
120,124.46,129.38,2
119,124.35,129.27,2
119,124.25,129.17,2
119,124.14,129.07,2
117,124.00,128.95,2
117,123.86,128.83,2
120,123.78,128.74,2
119,123.68,128.64,2
119,123.59,128.55,2
118,123.48,128.44,2
118,123.37,128.34,2
119,123.28,128.24,2
119,123.20,128.15,2
117,123.07,128.04,2
118,122.97,127.94,2
119,122.89,127.85,2
118,122.79,127.75,2
117,122.68,127.64,2
118,122.58,127.55,2
116,122.45,127.43,2
119,122.38,127.35,2
119,122.32,127.26,2
117,122.21,127.16,2
118,122.13,127.07,2
117,122.02,126.97,2
120,121.98,126.90,2
117,121.88,126.80,2
119,121.83,126.72,2
117,121.73,126.63,2
118,121.65,126.54,2
119,121.60,126.46,2
118,121.53,126.38,2
118,121.46,126.30,2
117,121.37,126.20,2
119,121.32,126.13,2
119,121.28,126.06,2
120,121.25,126.00,2
117,121.17,125.91,2
117,121.08,125.82,2
117,121.00,125.73,2
119,120.96,125.66,2
118,120.90,125.59,2
118,120.84,125.51,2
118,120.79,125.44,2
121,120.79,125.39,2
117,120.71,125.31,2
117,120.64,125.22,2
119,120.61,125.16,2
119,120.58,125.10,2
118,120.52,125.03,2
118,120.47,124.96,2
119,120.44,124.90,2
121,120.46,124.86,2
117,120.39,124.78,2
117,120.32,124.70,2
117,120.25,124.63,2
118,120.21,124.56,2
120,120.20,124.52,2
119,120.18,124.46,2
119,120.16,124.41,2
117,120.09,124.33,2
117,120.03,124.26,2
120,120.03,124.22,2
119,120.01,124.16,2
117,119.95,124.09,2
117,119.89,124.02,2
117,119.83,123.95,2
120,119.84,123.91,2
117,119.78,123.84,2
119,119.76,123.79,2
117,119.71,123.73,2
117,119.65,123.66,2
117,119.60,123.59,2
117,119.55,123.53,2
119,119.54,123.48,2
117,119.49,123.42,2
119,119.48,123.37,2
119,119.47,123.33,2
117,119.42,123.26,2
117,119.37,123.20,2
118,119.34,123.15,2
118,119.32,123.10,2
116,119.25,123.03,2
117,119.20,122.97,2
116,119.14,122.90,2
119,119.14,122.86,2
115,119.05,122.78,2
120,119.07,122.75,2
116,119.01,122.68,2
117,118.97,122.63,2
118,118.95,122.58,2
119,118.95,122.55,2
116,118.89,122.48,2
117,118.86,122.43,2
117,118.82,122.37,2
120,118.84,122.35,2
117,118.81,122.29,2
121,118.85,122.28,2
117,118.81,122.23,2
118,118.80,122.19,2
117,118.76,122.13,2
115,118.69,122.06,2
116,118.63,122.00,2
117,118.60,121.95,2
117,118.57,121.90,2
115,118.50,121.83,2
117,118.47,121.79,2
115,118.40,121.72,2
117,118.37,121.67,2
117,118.34,121.62,2
115,118.27,121.56,2
117,118.25,121.51,2
115,118.18,121.45,2
114,118.10,121.37,2
117,118.08,121.33,2
117,118.06,121.29,2
114,117.98,121.21,2
117,117.96,121.17,2
115,117.90,121.11,2
116,117.86,121.06,2
115,117.80,121.00,2
115,117.75,120.94,2
114,117.67,120.87,2
117,117.66,120.83,2
115,117.60,120.77,2
114,117.53,120.70,2
113,117.44,120.63,2
117,117.43,120.59,2
116,117.40,120.54,2
116,117.38,120.50,2
113,117.29,120.42,2
115,117.24,120.37,2
116,117.22,120.33,2
117,117.21,120.29,2
116,117.19,120.25,2
115,117.15,120.20,2
114,117.08,120.13,2
118,117.10,120.11,2
117,117.10,120.08,2
114,117.04,120.02,2
114,116.98,119.96,2
117,116.98,119.93,2
115,116.94,119.88,2
117,116.94,119.85,2
119,116.98,119.85,2
117,116.98,119.82,2
116,116.96,119.78,2
115,116.92,119.73,2
116,116.90,119.69,2
116,116.88,119.66,2
116,116.87,119.62,2
117,116.87,119.59,2
119,116.91,119.59,2
117,116.91,119.56,2
118,116.94,119.55,2
116,116.92,119.51,2
115,116.88,119.47,2
116,116.86,119.43,2
115,116.82,119.39,2
116,116.81,119.35,2
117,116.81,119.33,2
116,116.80,119.30,2
115,116.76,119.25,2
115,116.72,119.21,2
116,116.71,119.18,2
115,116.68,119.14,2
113,116.60,119.08,2
114,116.55,119.02,2
114,116.50,118.97,2
115,116.47,118.93,2
115,116.44,118.90,2
114,116.39,118.85,2
116,116.38,118.82,2
114,116.34,118.77,2
113,116.27,118.71,2
113,116.20,118.65,2
112,116.12,118.59,2
112,116.04,118.52,2
114,116.00,118.48,2
112,115.92,118.41,2
112,115.84,118.35,2
112,115.76,118.28,2
113,115.71,118.23,2
114,115.67,118.19,2
113,115.62,118.14,2
113,115.57,118.09,2
113,115.51,118.04,2
113,115.46,117.99,2
113,115.41,117.94,2
113,115.37,117.89,2
112,115.30,117.83,2
113,115.25,117.78,2
112,115.19,117.72,2
114,115.16,117.68,2
113,115.12,117.64,2
113,115.08,117.59,2
112,115.02,117.53,2
112,114.96,117.48,2
113,114.92,117.43,2
114,114.90,117.40,2
111,114.82,117.34,2
112,114.77,117.28,2
113,114.73,117.24,2
112,114.68,117.19,2
113,114.64,117.15,2
113,114.61,117.10,2
113,114.58,117.06,2
109,114.47,116.98,2
111,114.40,116.92,2
111,114.33,116.86,2
113,114.30,116.82,2
111,114.24,116.77,2
111,114.17,116.71,2
109,114.07,116.63,2
111,114.01,116.58,2
111,113.95,116.52,2
115,113.97,116.50,2
113,113.95,116.47,2
111,113.89,116.41,2
113,113.87,116.38,2
115,113.89,116.37,2
113,113.88,116.33,2
113,113.86,116.30,2
111,113.80,116.25,2
112,113.76,116.20,2
113,113.75,116.17,2
113,113.73,116.14,2
115,113.76,116.13,2
113,113.74,116.10,2
113,113.73,116.07,2
111,113.68,116.02,2
113,113.66,115.99,2
113,113.65,115.96,2
112,113.62,115.92,2
112,113.58,115.88,2
111,113.53,115.83,2
111,113.48,115.78,2
111,113.43,115.73,2
111,113.38,115.69,2
113,113.38,115.66,2
113,113.37,115.63,2
111,113.32,115.59,2
112,113.29,115.55,2
113,113.29,115.52,2
111,113.24,115.48,2
113,113.24,115.45,2
115,113.27,115.45,2
117,113.35,115.47,2
112,113.32,115.43,2
113,113.31,115.41,2
113,113.31,115.38,2
112,113.28,115.35,2
113,113.28,115.32,2
114,113.29,115.31,2
111,113.24,115.27,2
113,113.24,115.25,2
111,113.19,115.20,2
114,113.21,115.19,2
112,113.19,115.16,2
113,113.18,115.14,2
113,113.18,115.12,2
113,113.18,115.10,2
112,113.15,115.06,2
115,113.19,115.06,2
112,113.17,115.03,2
112,113.14,115.00,2
113,113.14,114.98,2
113,113.14,114.96,2
116,113.19,114.97,2
113,113.19,114.95,2
113,113.19,114.93,2
115,113.22,114.93,2
113,113.22,114.92,2
115,113.25,114.92,2
113,113.25,114.90,2
113,113.24,114.88,2
113,113.24,114.86,2
113,113.23,114.84,2
113,113.23,114.82,2
113,113.22,114.80,2
114,113.24,114.80,2
114,113.26,114.79,2
115,113.29,114.79,2
113,113.28,114.77,2
113,113.28,114.75,2
115,113.31,114.76,2
112,113.29,114.73,2
115,113.32,114.73,2
112,113.29,114.70,2
113,113.29,114.69,2
113,113.28,114.67,2
117,113.36,114.69,2
114,113.37,114.69,2
113,113.36,114.67,2
113,113.36,114.65,2
112,113.33,114.63,2
111,113.28,114.59,2
113,113.28,114.57,2
111,113.23,114.54,2
110,113.17,114.49,2
112,113.14,114.47,2
113,113.14,114.45,2
113,113.14,114.44,2
115,113.17,114.45,2
114,113.19,114.44,2
113,113.19,114.43,2
114,113.20,114.42,2
113,113.20,114.41,2
112,113.18,114.38,2
114,113.19,114.38,2
117,113.27,114.41,2
113,113.26,114.39,2
114,113.28,114.39,2
113,113.27,114.37,2
115,113.31,114.38,2
113,113.30,114.37,2
113,113.29,114.35,2
117,113.37,114.38,2
115,113.40,114.39,2
116,113.45,114.40,2
114,113.46,114.40,2
115,113.49,114.40,2
114,113.50,114.40,2
117,113.57,114.43,2
117,113.64,114.45,2
115,113.67,114.46,2
117,113.74,114.48,2
115,113.76,114.49,2
117,113.83,114.51,2
116,113.87,114.53,2
114,113.87,114.52,2
115,113.90,114.53,2
115,113.92,114.53,2
115,113.94,114.54,2
118,114.02,114.57,2
115,114.04,114.58,2
116,114.08,114.59,2
115,114.10,114.59,2
116,114.14,114.61,2
115,114.15,114.61,2
116,114.19,114.63,2
115,114.21,114.63,2
115,114.22,114.63,2
113,114.20,114.62,2
116,114.23,114.63,2
116,114.27,114.64,2
116,114.30,114.66,2
115,114.32,114.66,2
119,114.41,114.70,2
115,114.42,114.71,2
119,114.51,114.75,2
120,114.62,114.80,2
119,114.71,114.85,2
118,114.78,114.88,2
120,114.88,114.93,2
119,114.96,114.97,2
119,115.05,115.01,2
119,115.12,115.05,2
124,115.30,115.14,2
121,115.42,115.20,2
121,115.53,115.26,2
118,115.58,115.28,2
120,115.67,115.33,2
119,115.73,115.37,2
117,115.76,115.38,2
119,115.82,115.42,2
119,115.89,115.45,2
122,116.01,115.52,2
122,116.13,115.58,2
119,116.19,115.62,2
124,116.34,115.70,2
120,116.41,115.75,2
120,116.49,115.79,2
122,116.60,115.85,2
124,116.74,115.93,2
126,116.93,116.03,2
124,117.07,116.11,2
121,117.15,116.16,2
122,117.25,116.22,2
120,117.30,116.26,2
120,117.36,116.29,2
120,117.41,116.33,2
120,117.46,116.37,2
122,117.55,116.42,2
126,117.72,116.52,2
121,117.79,116.57,2
127,117.97,116.67,2
124,118.09,116.74,2
125,118.23,116.83,2
129,118.44,116.95,2
125,118.58,117.03,2
125,118.70,117.11,2
125,118.83,117.19,2
127,118.99,117.28,2
125,119.11,117.36,2
127,119.27,117.46,2
125,119.39,117.53,2
127,119.54,117.63,2
125,119.65,117.70,2
131,119.87,117.84,2
130,120.08,117.96,2
126,120.20,118.04,2
127,120.33,118.13,2
133,120.58,118.28,2
129,120.75,118.38,2
127,120.88,118.47,2
132,121.10,118.60,2
127,121.22,118.69,2
127,121.33,118.77,2
130,121.51,118.88,2
131,121.70,119.00,2
128,121.82,119.09,2
133,122.05,119.23,2
129,122.19,119.33,2
130,122.34,119.44,2
130,122.50,119.54,2
131,122.67,119.66,2
130,122.81,119.76,2
128,122.92,119.84,2
129,123.04,119.94,2
133,123.24,120.07,2
129,123.35,120.16,2
129,123.47,120.24,2
133,123.66,120.37,2
131,123.80,120.48,2
129,123.91,120.56,2
129,124.01,120.65,2
134,124.21,120.78,2
133,124.38,120.90,2
132,124.54,121.01,2
131,124.67,121.11,2
139,124.95,121.29,2
136,125.17,121.44,2
133,125.33,121.56,2
135,125.52,121.69,2
133,125.67,121.80,2
144,126.04,122.03,2
136,126.24,122.16,2
137,126.45,122.31,2
136,126.64,122.45,2
138,126.87,122.61,2
139,127.11,122.77,2
143,127.43,122.97,2
141,127.70,123.15,2
139,127.93,123.31,2
144,128.25,123.52,2
139,128.47,123.67,2
141,128.72,123.85,2
146,129.06,124.07,2
141,129.30,124.24,2
141,129.53,124.40,2
141,129.76,124.57,2
139,129.95,124.71,2
140,130.15,124.87,2
141,130.37,125.03,2
143,130.62,125.21,2
143,130.87,125.39,2
139,131.03,125.52,2
141,131.23,125.68,2
143,131.46,125.85,2
144,131.72,126.03,2
144,131.96,126.21,2
140,132.12,126.35,2
141,132.30,126.50,2
146,132.57,126.69,2
148,132.88,126.90,2
143,133.08,127.07,2
146,133.34,127.25,2
145,133.58,127.43,2
147,133.84,127.63,2
146,134.09,127.81,2
150,134.41,128.03,2
147,134.66,128.22,2
147,134.90,128.41,2
151,135.23,128.64,2
145,135.42,128.80,2
151,135.73,129.02,2
153,136.08,129.26,2
146,136.28,129.43,2
152,136.59,129.65,2
154,136.94,129.90,2
153,137.26,130.13,2
148,137.48,130.31,2
153,137.79,130.54,2
153,138.09,130.76,2
156,138.45,131.01,2
153,138.74,131.23,2
151,138.99,131.43,2
154,139.29,131.66,2
149,139.48,131.83,2
153,139.75,132.04,2
152,140.00,132.24,2
152,140.24,132.44,2
151,140.45,132.62,2
151,140.66,132.81,2
160,141.05,133.08,2
154,141.31,133.29,2
155,141.58,133.51,2
155,141.85,133.72,2
152,142.05,133.90,2
155,142.31,134.11,2
157,142.61,134.34,2
157,142.89,134.57,2
154,143.12,134.76,2
155,143.35,134.97,2
154,143.57,135.16,2
154,143.77,135.34,2
154,143.98,135.53,2
157,144.24,135.75,2
157,144.49,135.96,2
159,144.78,136.19,2
155,144.99,136.38,2
160,145.29,136.61,2
157,145.52,136.82,2
156,145.73,137.01,2
156,145.94,137.20,2
160,146.22,137.43,2
158,146.46,137.63,2
155,146.63,137.81,2
164,146.97,138.07,2
166,147.35,138.35,2
163,147.67,138.59,2
162,147.95,138.83,2
161,148.21,139.05,2
159,148.43,139.25,2
164,148.74,139.50,2
165,149.07,139.75,2
163,149.35,139.98,2
161,149.58,140.19,2
166,149.91,140.45,2
159,150.09,140.64,2
162,150.33,140.85,2
164,150.60,141.08,2
165,150.89,141.32,2
165,151.17,141.56,2
162,151.39,141.76,2
169,151.74,142.04,2
174,152.18,142.36,2
167,152.48,142.60,2
165,152.73,142.83,2
166,153.00,143.06,2
167,153.28,143.30,2
171,153.63,143.57,2
169,153.94,143.83,2
171,154.28,144.10,2
168,154.55,144.34,2
168,154.82,144.58,2
166,155.05,144.79,2
165,155.25,144.99,2
167,155.48,145.21,2
169,155.75,145.45,2
167,155.98,145.67,2
168,156.22,145.89,2
169,156.47,146.12,2
166,156.66,146.32,2
165,156.83,146.51,2
166,157.01,146.70,2
165,157.17,146.88,2
167,157.37,147.08,2
165,157.52,147.26,2
165,157.67,147.44,2
167,157.86,147.64,2
169,158.08,147.85,2
167,158.26,148.04,2
165,158.39,148.21,2
167,158.57,148.40,2
168,158.76,148.60,2
167,158.92,148.78,2
167,159.08,148.96,2
167,159.24,149.14,2
165,159.36,149.30,2
166,159.49,149.47,2
165,159.60,149.62,2
165,159.71,149.78,2
164,159.79,149.92,2
167,159.94,150.09,2
165,160.04,150.24,2
165,160.14,150.39,2
165,160.23,150.53,2
165,160.33,150.68,2
165,160.42,150.82,2
167,160.55,150.98,2
163,160.60,151.10,2
164,160.67,151.23,2
163,160.72,151.35,2
163,160.76,151.47,2
164,160.83,151.59,2
165,160.91,151.73,2
163,160.95,151.84,2
164,161.01,151.96,2
165,161.09,152.09,2
163,161.13,152.20,2
162,161.15,152.30,2
163,161.19,152.40,2
164,161.24,152.52,2
163,161.28,152.62,2
161,161.27,152.71,2
161,161.27,152.79,2
164,161.32,152.90,2
162,161.34,152.99,2
164,161.39,153.10,2
161,161.38,153.18,2
161,161.37,153.26,2
161,161.37,153.34,2
161,161.36,153.42,2
161,161.35,153.49,2
160,161.32,153.56,2
161,161.32,153.63,2
161,161.31,153.70,2
159,161.27,153.76,2
161,161.26,153.83,2
161,161.25,153.90,2
161,161.25,153.97,2
159,161.20,154.02,2
160,161.18,154.08,2
160,161.16,154.14,2
158,161.09,154.18,2
158,161.03,154.22,2
159,160.99,154.27,2
159,160.95,154.31,2
159,160.91,154.36,2
157,160.83,154.39,2
159,160.80,154.43,2
157,160.72,154.46,2
157,160.65,154.48,2
158,160.59,154.52,2
157,160.52,154.54,2
159,160.49,154.59,2
157,160.42,154.61,2
157,160.35,154.64,2
157,160.29,154.66,2
157,160.22,154.68,2
158,160.18,154.72,2
156,160.09,154.73,2
157,160.03,154.75,2
157,159.97,154.78,2
156,159.89,154.79,2
155,159.79,154.79,2
159,159.78,154.83,2
156,159.70,154.84,2
155,159.61,154.84,2
154,159.50,154.84,2
156,159.43,154.85,2
156,159.36,154.86,2
154,159.25,154.85,2
153,159.12,154.83,2
153,159.00,154.81,2
153,158.88,154.80,2
154,158.78,154.79,2
153,158.67,154.77,2
157,158.64,154.79,2
155,158.56,154.79,2
153,158.45,154.78,2
153,158.34,154.76,2
149,158.16,154.70,2
153,158.05,154.68,2
152,157.93,154.66,2
153,157.83,154.64,2
152,157.72,154.61,2
153,157.62,154.60,2
151,157.49,154.56,2
151,157.36,154.53,2
149,157.19,154.47,2
150,157.05,154.43,2
151,156.93,154.39,2
151,156.81,154.36,2
150,156.67,154.31,2
149,156.52,154.26,2
151,156.41,154.23,2
151,156.30,154.20,2
149,156.16,154.14,2
149,156.01,154.09,2
151,155.91,154.06,2
151,155.81,154.03,2
150,155.70,153.99,2
149,155.56,153.94,2
149,155.43,153.89,2
148,155.28,153.83,2
149,155.16,153.79,2
149,155.03,153.74,2
148,154.89,153.68,2
148,154.76,153.62,2
148,154.62,153.57,2
148,154.49,153.51,2
147,154.34,153.45,2
147,154.19,153.38,2
147,154.05,153.32,2
147,153.91,153.25,2
148,153.79,153.20,2
146,153.63,153.13,2
146,153.48,153.06,2
147,153.35,153.00,2
145,153.18,152.92,2
148,153.08,152.87,2
145,152.92,152.79,3
145,152.76,152.71,3
145,152.61,152.64,4
147,152.49,152.58,4
144,152.32,152.49,4
144,152.16,152.41,4
145,152.01,152.33,4
145,151.87,152.26,4
143,151.70,152.17,4
144,151.54,152.09,4
145,151.41,152.02,4
143,151.24,151.93,4
145,151.12,151.86,4
144,150.98,151.78,4
143,150.82,151.69,4
141,150.62,151.58,4
142,150.45,151.49,4
144,150.32,151.41,4
143,150.17,151.33,4
143,150.03,151.24,4
143,149.89,151.16,4
143,149.75,151.08,4
143,149.62,151.00,4
142,149.46,150.91,4
143,149.33,150.83,4
142,149.19,150.74,4
143,149.06,150.67,4
143,148.94,150.59,4
141,148.78,150.49,4
141,148.63,150.40,4
142,148.50,150.31,4
143,148.39,150.24,4
143,148.28,150.17,4
141,148.13,150.08,4
142,148.01,150.00,4
143,147.91,149.93,4
141,147.77,149.84,4
140,147.62,149.74,4
141,147.48,149.65,4
139,147.31,149.54,4
140,147.17,149.45,4
139,147.00,149.34,4
140,146.86,149.25,4
139,146.71,149.15,4
141,146.59,149.07,4
138,146.42,148.96,4
139,146.27,148.86,4
137,146.09,148.74,4
137,145.91,148.62,4
140,145.79,148.53,4
140,145.67,148.45,4
137,145.50,148.33,4
137,145.33,148.22,4
137,145.16,148.11,4
138,145.02,148.01,4
137,144.86,147.90,4
137,144.70,147.79,4
138,144.57,147.69,4
137,144.42,147.58,4
139,144.31,147.50,4
137,144.16,147.39,4
137,144.02,147.29,4
137,143.88,147.19,4
137,143.74,147.08,4
136,143.58,146.97,4
135,143.41,146.85,4
136,143.26,146.75,4
137,143.14,146.65,4
135,142.98,146.53,4
139,142.90,146.46,4
136,142.76,146.35,4
135,142.60,146.24,4
137,142.49,146.15,4
136,142.36,146.04,4
134,142.20,145.92,4
134,142.03,145.80,4
133,141.85,145.68,4
134,141.69,145.56,4
133,141.52,145.43,4
133,141.35,145.31,4
133,141.18,145.19,4
133,141.02,145.06,4
133,140.86,144.94,4
133,140.70,144.82,4
134,140.57,144.72,4
132,140.40,144.59,4
133,140.25,144.47,4
132,140.08,144.35,4
132,139.92,144.23,4
133,139.78,144.11,4
131,139.61,143.98,4
133,139.48,143.87,4
132,139.33,143.75,4
131,139.16,143.63,4
131,139.00,143.50,4
132,138.86,143.38,4
131,138.70,143.26,4
130,138.52,143.13,4
130,138.35,143.00,4
131,138.21,142.88,4
130,138.04,142.75,4
132,137.92,142.64,4
129,137.74,142.50,4
129,137.57,142.37,4
132,137.46,142.27,4
131,137.33,142.15,4
131,137.20,142.04,4
131,137.08,141.93,4
129,136.92,141.80,4
130,136.78,141.68,4
132,136.68,141.59,4
129,136.53,141.46,4
128,136.36,141.33,4
129,136.21,141.20,4
130,136.09,141.09,4
129,135.95,140.97,4
128,135.79,140.84,4
128,135.63,140.71,4
129,135.50,140.59,4
129,135.37,140.48,4
129,135.24,140.36,4
128,135.10,140.24,4
129,134.97,140.13,4
129,134.85,140.02,4
129,134.74,139.91,4
127,134.58,139.78,4
128,134.45,139.66,4
127,134.30,139.53,4
127,134.16,139.41,4
127,134.01,139.28,4
127,133.87,139.16,4
127,133.73,139.04,4
126,133.58,138.91,4
127,133.45,138.79,4
127,133.32,138.67,4
125,133.15,138.54,4
125,132.99,138.40,4
125,132.83,138.27,4
127,132.71,138.15,4
127,132.60,138.04,4
125,132.45,137.91,4
125,132.30,137.78,4
125,132.15,137.65,4
125,132.01,137.53,4
125,131.87,137.40,4
125,131.73,137.28,4
125,131.60,137.16,4
125,131.47,137.03,4
127,131.38,136.93,4
123,131.21,136.79,4
125,131.08,136.68,4
125,130.96,136.56,4
124,130.82,136.43,4
124,130.69,136.31,4
124,130.55,136.19,4
125,130.44,136.07,4
125,130.33,135.96,4
125,130.23,135.85,4
123,130.08,135.73,4
126,130.00,135.63,4
123,129.86,135.50,4
123,129.72,135.38,4
123,129.59,135.25,4
123,129.46,135.13,4
120,129.27,134.98,4
123,129.14,134.86,4
123,129.02,134.74,4
123,128.90,134.62,4
121,128.74,134.49,4
121,128.59,134.35,4
123,128.47,134.24,4
123,128.37,134.13,4
121,128.22,134.00,4
122,128.09,133.88,4
121,127.95,133.75,4
121,127.81,133.62,4
123,127.72,133.51,4
121,127.58,133.39,4
122,127.47,133.27,4
121,127.34,133.15,4
124,127.27,133.06,4
121,127.15,132.94,4
121,127.03,132.82,4
121,126.91,132.70,4
121,126.79,132.58,4
121,126.67,132.47,4
121,126.56,132.35,4
120,126.43,132.23,4
120,126.30,132.11,4
120,126.17,131.99,4
120,126.05,131.87,4
120,125.93,131.75,4
119,125.79,131.62,4
120,125.67,131.51,4
120,125.56,131.39,4
119,125.43,131.27,4
119,125.30,131.14,4
121,125.21,131.04,4
120,125.11,130.93,4
121,125.03,130.83,4
117,124.87,130.69,4
119,124.75,130.58,4
119,124.63,130.46,4
125,124.64,130.41,4
119,124.53,130.29,4
118,124.40,130.17,4
119,124.29,130.06,4
119,124.19,129.95,4
120,124.10,129.85,4
118,123.98,129.73,4
119,123.88,129.62,4
118,123.76,129.51,4
120,123.69,129.41,4
118,123.57,129.30,4
119,123.48,129.19,4
117,123.35,129.07,4
119,123.27,128.97,4
119,123.18,128.87,4
119,123.10,128.77,4
117,122.97,128.66,4
119,122.89,128.56,4
118,122.80,128.45,4
119,122.72,128.36,4
117,122.61,128.24,4
117,122.49,128.13,4
118,122.40,128.03,4
118,122.32,127.93,4
119,122.25,127.84,4
116,122.13,127.72,4
117,122.02,127.62,4
115,121.88,127.49,4
117,121.78,127.38,4
117,121.69,127.28,4
116,121.57,127.17,4
116,121.46,127.06,4
118,121.39,126.97,4
117,121.31,126.87,4
117,121.22,126.77,4
117,121.14,126.67,4
115,121.01,126.55,4
115,120.89,126.44,4
116,120.79,126.33,4
118,120.74,126.25,4
115,120.62,126.14,4
115,120.51,126.03,4
115,120.40,125.92,4
116,120.31,125.82,4
114,120.19,125.70,4
113,120.04,125.57,4
115,119.94,125.47,4
114,119.82,125.35,4
114,119.71,125.24,4
115,119.61,125.14,4
113,119.48,125.01,4
114,119.37,124.90,4
116,119.30,124.81,4
113,119.18,124.70,4
114,119.07,124.59,4
111,118.91,124.45,4
114,118.81,124.35,4
114,118.72,124.25,4
113,118.60,124.13,4
113,118.49,124.02,4
116,118.44,123.94,4
114,118.35,123.84,4
113,118.25,123.73,4
113,118.14,123.63,4
114,118.06,123.53,4
114,117.98,123.43,4
115,117.92,123.35,4
113,117.82,123.25,4
113,117.72,123.14,4
113,117.63,123.04,4
114,117.56,122.95,4
113,117.46,122.85,4
112,117.36,122.74,4
112,117.25,122.64,4
112,117.14,122.53,4
113,117.06,122.44,4
113,116.98,122.34,4
111,116.86,122.23,4
113,116.78,122.14,4
111,116.67,122.02,4
111,116.55,121.91,4
113,116.48,121.82,4
112,116.39,121.73,4
111,116.28,121.62,4
112,116.20,121.52,4
111,116.10,121.42,4
111,115.99,121.31,4
111,115.89,121.21,4
111,115.80,121.11,4
111,115.70,121.01,4
111,115.61,120.91,4
109,115.47,120.79,4
111,115.38,120.69,4
113,115.34,120.61,4
111,115.25,120.52,4
111,115.16,120.42,4
111,115.08,120.33,4
110,114.98,120.22,4
112,114.92,120.14,4
111,114.84,120.05,4
109,114.73,119.94,4
109,114.61,119.83,4
110,114.52,119.73,4
111,114.45,119.65,4
109,114.34,119.54,4
109,114.23,119.43,4
109,114.13,119.33,4
109,114.03,119.23,4
107,113.88,119.10,4
109,113.79,119.00,4
105,113.61,118.86,4
108,113.50,118.75,4
109,113.41,118.66,4
110,113.34,118.57,4
107,113.21,118.45,4
109,113.13,118.36,4
108,113.03,118.26,4
109,112.95,118.16,4
109,112.87,118.07,4
108,112.77,117.97,4
107,112.65,117.86,4
109,112.58,117.77,4
108,112.49,117.68,4
107,112.38,117.57,4
108,112.29,117.47,4
107,112.19,117.37,4
107,112.08,117.26,4
109,112.02,117.18,4
109,111.96,117.10,4
107,111.86,117.00,4
109,111.80,116.92,4
107,111.71,116.82,4
109,111.65,116.74,4
107,111.56,116.64,4
106,111.45,116.54,4
108,111.38,116.45,4
108,111.31,116.37,4
108,111.25,116.28,4
107,111.16,116.19,4
107,111.08,116.10,4
107,111.00,116.01,4
109,110.96,115.94,4
107,110.88,115.85,4
107,110.80,115.76,4
107,110.72,115.67,4
107,110.65,115.59,4
106,110.56,115.49,4
107,110.49,115.41,4
107,110.42,115.32,4
107,110.35,115.24,4
105,110.24,115.14,4
107,110.18,115.05,4
106,110.09,114.96,4
106,110.01,114.87,4
105,109.91,114.78,4
105,109.81,114.68,4
109,109.80,114.62,4
106,109.72,114.53,4
106,109.65,114.45,4
107,109.59,114.37,4
107,109.54,114.30,4
105,109.45,114.21,4
105,109.36,114.12,4
107,109.31,114.04,4
107,109.27,113.97,4
105,109.18,113.88,4
105,109.10,113.80,4
106,109.04,113.72,4
108,109.02,113.66,4
105,108.94,113.57,4
105,108.86,113.49,4
105,108.78,113.40,4
105,108.70,113.32,4
105,108.63,113.24,4
105,108.56,113.15,4
106,108.51,113.08,4
104,108.42,112.99,4
105,108.35,112.91,4
105,108.28,112.83,4
105,108.22,112.75,4
104,108.13,112.67,4
105,108.07,112.59,4
105,108.01,112.51,4
105,107.95,112.44,4
104,107.87,112.35,4
104,107.79,112.27,4
104,107.71,112.19,4
105,107.66,112.12,4
108,107.67,112.08,4
104,107.59,111.99,4
106,107.56,111.93,4
105,107.51,111.87,4
105,107.46,111.80,4
103,107.37,111.71,4
105,107.32,111.64,4
105,107.28,111.58,4
105,107.23,111.51,4
105,107.19,111.44,4
104,107.12,111.37,4
103,107.04,111.29,4
105,107.00,111.22,4
103,106.92,111.14,4
103,106.84,111.06,4
103,106.77,110.98,4
103,106.69,110.90,4
103,106.62,110.82,4
103,106.54,110.74,4
102,106.45,110.65,4
102,106.36,110.57,4
101,106.26,110.47,4
103,106.19,110.40,4
103,106.13,110.32,4
101,106.02,110.23,4
101,105.92,110.14,4
103,105.87,110.07,4
103,105.81,110.00,4
102,105.73,109.92,4
103,105.68,109.85,4
103,105.62,109.78,4
102,105.55,109.70,4
101,105.46,109.61,4
101,105.37,109.53,4
102,105.30,109.45,4
102,105.24,109.38,4
101,105.15,109.29,4
101,105.07,109.21,4
101,104.99,109.13,4
101,104.91,109.05,4
101,104.83,108.97,4
100,104.73,108.88,4
100,104.64,108.79,4
101,104.57,108.71,4
101,104.50,108.63,4
99,104.39,108.54,4
98,104.26,108.43,4
100,104.17,108.35,4
100,104.09,108.26,4
99,103.99,108.17,4
100,103.91,108.09,4
98,103.79,107.99,4
99,103.69,107.90,4
98,103.58,107.80,4
100,103.51,107.72,4
98,103.40,107.62,4
100,103.33,107.55,4
98,103.22,107.45,4
99,103.14,107.37,4
98,103.04,107.27,4
101,103.00,107.21,4
102,102.98,107.16,4
98,102.88,107.07,4
99,102.80,106.99,4
100,102.74,106.92,4
99,102.67,106.84,4
98,102.57,106.75,4
97,102.46,106.65,4
98,102.37,106.57,4
98,102.29,106.48,4
98,102.20,106.40,4
97,102.10,106.30,4
96,101.97,106.20,4
99,101.92,106.13,4
98,101.84,106.05,4
98,101.76,105.97,4
96,101.64,105.87,4
96,101.53,105.77,4
96,101.42,105.67,4
98,101.35,105.59,4
98,101.29,105.52,4
99,101.24,105.45,4
96,101.14,105.36,4
99,101.09,105.29,4
103,101.13,105.27,4
98,101.07,105.20,4
98,101.01,105.13,4
98,100.95,105.05,4
98,100.89,104.98,4
99,100.85,104.92,4
96,100.75,104.83,4
98,100.70,104.77,4
98,100.64,104.70,4
97,100.57,104.62,4
98,100.52,104.56,4
99,100.49,104.50,4
98,100.44,104.44,4
97,100.37,104.36,4
98,100.32,104.30,4
99,100.30,104.24,4
98,100.25,104.18,4
98,100.21,104.12,4
98,100.16,104.06,4
98,100.12,104.00,4
102,100.16,103.98,4
99,100.13,103.93,4
98,100.09,103.87,4
98,100.05,103.81,4
100,100.05,103.77,4
98,100.01,103.71,4
98,99.97,103.66,4
98,99.93,103.60,4
97,99.87,103.53,4
97,99.81,103.47,4
98,99.78,103.41,4
97,99.72,103.35,4
97,99.67,103.29,4
97,99.61,103.22,4
97,99.56,103.16,4
97,99.51,103.10,4
96,99.44,103.03,4
97,99.39,102.97,4
99,99.38,102.93,4
102,99.43,102.92,4
98,99.41,102.87,4
99,99.40,102.83,4
99,99.39,102.79,4
98,99.36,102.75,4
95,99.27,102.67,4
100,99.29,102.64,4
100,99.30,102.62,4
99,99.30,102.58,4
99,99.29,102.54,4
97,99.25,102.49,4
99,99.24,102.45,4
97,99.20,102.40,4
98,99.17,102.35,4
99,99.17,102.32,4
100,99.18,102.30,4
100,99.20,102.27,4
100,99.22,102.25,4
100,99.23,102.23,4
100,99.25,102.21,4
98,99.22,102.17,4
100,99.24,102.14,4
99,99.23,102.11,4
98,99.21,102.07,4
98,99.19,102.03,4
98,99.16,101.99,4
99,99.16,101.96,4
98,99.14,101.92,4
99,99.13,101.89,4
98,99.11,101.85,4
99,99.11,101.82,4
99,99.11,101.80,4
98,99.08,101.76,4
97,99.04,101.71,4
102,99.10,101.71,4
98,99.08,101.68,4
98,99.06,101.64,4
97,99.02,101.59,4
97,98.98,101.55,4
98,98.96,101.51,4
102,99.02,101.52,4
98,99.00,101.48,4
98,98.98,101.45,4
98,98.96,101.41,4
98,98.94,101.38,4
99,98.94,101.35,4
99,98.94,101.33,4
97,98.90,101.29,4
98,98.88,101.25,4
97,98.85,101.21,4
97,98.81,101.17,4
97,98.77,101.13,4
99,98.78,101.11,4
97,98.74,101.07,4
98,98.73,101.03,4
98,98.71,101.00,4
100,98.74,100.99,4
99,98.74,100.97,4
97,98.71,100.93,4
98,98.69,100.91,4
97,98.66,100.87,4
100,98.69,100.86,4
99,98.69,100.84,4
98,98.68,100.81,4
95,98.61,100.75,4
99,98.61,100.74,4
97,98.58,100.70,4
97,98.55,100.66,4
95,98.48,100.60,4
97,98.45,100.57,4
97,98.42,100.53,4
100,98.45,100.53,4
97,98.42,100.49,4
97,98.39,100.46,4
98,98.39,100.43,4
97,98.36,100.40,4
98,98.35,100.37,4
97,98.32,100.34,4
97,98.30,100.31,4
97,98.27,100.27,4
97,98.25,100.24,4
97,98.22,100.21,4
98,98.22,100.19,4
100,98.25,100.18,4
97,98.23,100.15,4
97,98.20,100.12,4
97,98.18,100.09,4
97,98.16,100.06,4
98,98.15,100.04,4
98,98.15,100.02,4
97,98.13,99.99,4
98,98.12,99.97,4
98,98.12,99.95,4
98,98.12,99.93,4
98,98.12,99.91,4
96,98.07,99.87,4
96,98.03,99.83,4
99,98.05,99.82,4
98,98.05,99.81,4
98,98.05,99.79,4
98,98.05,99.77,4
97,98.03,99.74,4
98,98.03,99.72,4
98,98.03,99.71,4
101,98.09,99.72,4
99,98.11,99.71,4
98,98.10,99.70,4
98,98.10,99.68,4
99,98.12,99.67,4
100,98.16,99.68,4
99,98.17,99.67,4
99,98.19,99.66,4
98,98.19,99.65,4
99,98.20,99.64,4
101,98.26,99.65,4
99,98.27,99.65,4
98,98.27,99.63,4
98,98.26,99.61,4
100,98.30,99.62,4
98,98.29,99.60,4
98,98.29,99.58,4
98,98.28,99.57,4
97,98.25,99.54,4
98,98.25,99.53,4
99,98.26,99.52,4
103,98.36,99.56,4
98,98.35,99.54,4
100,98.38,99.55,4
99,98.40,99.54,4
100,98.43,99.55,4
99,98.44,99.54,4
102,98.51,99.56,4
99,98.52,99.56,4
98,98.51,99.54,4
98,98.50,99.53,4
99,98.51,99.52,4
98,98.50,99.51,4
100,98.53,99.51,4
99,98.54,99.51,4
102,98.61,99.53,4
99,98.62,99.53,4
101,98.66,99.54,4
101,98.71,99.56,4
102,98.78,99.58,4
101,98.82,99.59,4
99,98.83,99.59,4
102,98.89,99.61,4
99,98.89,99.61,4
99,98.89,99.60,4
102,98.96,99.62,4
100,98.98,99.63,4
106,99.12,99.69,4
101,99.15,99.71,4
99,99.15,99.70,4
101,99.19,99.71,4
105,99.30,99.76,4
100,99.32,99.77,4
101,99.35,99.78,4
99,99.34,99.77,4
99,99.34,99.76,4
100,99.35,99.77,4
99,99.34,99.76,4
102,99.40,99.78,4
104,99.49,99.82,4
100,99.50,99.82,4
104,99.59,99.87,4
101,99.62,99.88,4
101,99.65,99.89,4
105,99.75,99.94,4
103,99.82,99.97,4
102,99.86,99.99,4
104,99.94,100.03,4
101,99.97,100.04,4
100,99.97,100.04,4
102,100.01,100.06,4
102,100.05,100.08,4
102,100.09,100.10,4
103,100.14,100.13,4
103,100.20,100.16,4
102,100.24,100.17,4
104,100.31,100.21,4
101,100.33,100.22,4
101,100.34,100.23,4
100,100.33,100.23,4
101,100.35,100.23,4
102,100.38,100.25,4
102,100.41,100.27,4
101,100.42,100.28,4
101,100.43,100.28,4
101,100.45,100.29,4
101,100.46,100.30,4
105,100.55,100.34,4
101,100.56,100.35,4
105,100.65,100.40,4
103,100.69,100.42,4
102,100.72,100.44,4
103,100.76,100.47,4
104,100.83,100.50,4
101,100.83,100.51,4
102,100.86,100.52,4
101,100.86,100.53,4
107,100.98,100.59,4
102,101.00,100.60,4
102,101.02,100.62,4
107,101.14,100.68,4
103,101.18,100.71,4
105,101.26,100.75,4
103,101.29,100.77,4
105,101.36,100.81,4
104,101.42,100.84,4
105,101.49,100.89,4
104,101.54,100.92,4
103,101.57,100.94,4
103,101.60,100.96,4
103,101.62,100.98,4
104,101.67,101.01,4
102,101.68,101.02,4
101,101.67,101.02,4
102,101.67,101.03,4
104,101.72,101.06,4
103,101.74,101.08,4
101,101.73,101.08,4
99,101.67,101.06,4
103,101.70,101.08,4
104,101.75,101.11,4
103,101.77,101.12,4
101,101.76,101.12,4
102,101.76,101.13,4
101,101.75,101.13,4
101,101.73,101.13,4
105,101.80,101.17,4
102,101.80,101.18,4
105,101.86,101.21,4
105,101.93,101.25,4
104,101.97,101.28,4
104,102.01,101.31,4
103,102.03,101.32,4
101,102.01,101.32,4
103,102.03,101.34,4
103,102.05,101.35,4
102,102.05,101.36,4
104,102.09,101.39,4
103,102.10,101.40,4
107,102.20,101.46,4
103,102.22,101.47,4
106,102.29,101.52,4
104,102.33,101.54,4
103,102.34,101.56,4
105,102.39,101.59,4
104,102.43,101.62,4
105,102.48,101.65,4
105,102.53,101.68,4
105,102.58,101.72,4
107,102.67,101.77,4
105,102.71,101.80,4
105,102.76,101.84,4
104,102.78,101.86,4
105,102.83,101.89,4
104,102.85,101.91,4
105,102.89,101.94,4
105,102.94,101.97,4
103,102.94,101.98,4
104,102.96,102.00,4
106,103.02,102.04,4
107,103.10,102.09,4
107,103.18,102.14,4
107,103.25,102.19,4
105,103.29,102.22,4
107,103.36,102.26,4
105,103.40,102.29,4
107,103.47,102.34,4
107,103.54,102.39,4
110,103.67,102.46,4
106,103.71,102.50,4
106,103.76,102.53,4
105,103.79,102.56,4
106,103.83,102.59,4
108,103.91,102.65,4
110,104.03,102.72,4
108,104.11,102.77,4
107,104.17,102.81,4
107,104.23,102.86,4
106,104.26,102.89,4
107,104.32,102.93,4
105,104.33,102.95,4
107,104.39,102.99,4
108,104.46,103.04,4
106,104.49,103.07,4
109,104.58,103.13,4
110,104.69,103.20,4
109,104.77,103.26,4
108,104.84,103.30,4
109,104.92,103.36,4
107,104.96,103.40,4
110,105.06,103.46,4
108,105.12,103.51,4
111,105.24,103.58,4
108,105.29,103.63,4
110,105.39,103.69,4
110,105.48,103.75,4
112,105.61,103.84,4
109,105.68,103.89,4
110,105.77,103.95,4
107,105.79,103.98,4
111,105.89,104.05,4
114,106.06,104.15,4
111,106.16,104.22,4
115,106.33,104.33,4
111,106.43,104.39,4
113,106.56,104.48,4
115,106.73,104.58,4
114,106.87,104.68,4
113,106.99,104.76,4
116,107.17,104.87,4
112,107.27,104.94,4
111,107.35,105.01,4
112,107.44,105.07,4
111,107.51,105.13,4
111,107.58,105.19,4
116,107.75,105.30,4
112,107.83,105.37,4
114,107.96,105.45,4
113,108.06,105.53,4
114,108.18,105.61,4
114,108.29,105.70,4
113,108.39,105.77,4
111,108.44,105.82,4
114,108.55,105.91,4
112,108.62,105.97,4
112,108.69,106.03,4
111,108.73,106.08,4
112,108.80,106.14,4
113,108.88,106.20,4
111,108.92,106.25,4
111,108.97,106.30,4
113,109.05,106.37,4
117,109.21,106.47,4
117,109.36,106.58,4
117,109.51,106.68,4
115,109.62,106.77,4
119,109.81,106.89,4
120,110.02,107.02,4
115,110.12,107.10,4
115,110.21,107.18,4
117,110.35,107.28,4
117,110.48,107.37,4
125,110.77,107.55,4
124,111.04,107.71,4
121,111.24,107.85,4
120,111.41,107.97,4
125,111.68,108.14,4
128,112.01,108.34,4
121,112.19,108.46,4
121,112.37,108.59,4
125,112.62,108.75,4
128,112.93,108.95,4
123,113.13,109.09,4
125,113.36,109.25,4
127,113.64,109.42,4
126,113.88,109.59,4
123,114.07,109.72,4
125,114.29,109.88,4
124,114.48,110.02,4
125,114.69,110.17,4
124,114.88,110.31,4
125,115.08,110.45,4
124,115.26,110.59,4
123,115.41,110.71,4
124,115.58,110.84,4
123,115.73,110.97,4
125,115.92,111.11,4
124,116.08,111.24,4
128,116.32,111.40,4
124,116.47,111.53,4
130,116.74,111.71,4
126,116.93,111.86,4
124,117.07,111.98,4
125,117.23,112.11,4
131,117.50,112.30,4
129,117.73,112.46,4
127,117.92,112.61,4
129,118.14,112.77,4
127,118.32,112.92,4
127,118.49,113.06,4
129,118.70,113.22,4
127,118.87,113.35,4
127,119.03,113.49,4
130,119.25,113.66,4
132,119.50,113.84,4
129,119.69,113.99,4
127,119.84,114.12,4
128,120.00,114.26,4
126,120.12,114.38,4
126,120.24,114.49,4
141,120.66,114.76,4
129,120.82,114.90,4
133,121.07,115.08,4
139,121.42,115.32,4
137,121.74,115.54,4
135,122.00,115.73,4
137,122.30,115.94,4
132,122.50,116.11,4
133,122.71,116.27,4
141,123.07,116.52,4
142,123.45,116.78,4
139,123.76,117.00,4
138,124.05,117.21,4
147,124.50,117.51,4
144,124.89,117.77,4
137,125.14,117.96,4
136,125.35,118.14,4
140,125.65,118.36,4
143,125.99,118.61,4
139,126.25,118.81,4
139,126.51,119.01,4
138,126.74,119.20,4
139,126.98,119.40,4
142,127.28,119.63,4
143,127.60,119.86,4
145,127.95,120.11,4
141,128.21,120.32,4
147,128.58,120.59,4
145,128.91,120.83,4
145,129.23,121.08,4
145,129.55,121.31,4
146,129.88,121.56,4
147,130.22,121.82,4
147,130.56,122.07,4
143,130.81,122.28,4
150,131.19,122.55,4
144,131.45,122.77,4
147,131.76,123.01,4
144,132.00,123.22,4
143,132.22,123.42,4
148,132.54,123.66,4
144,132.77,123.87,4
144,132.99,124.07,4
143,133.19,124.26,4
151,133.55,124.53,4
150,133.88,124.78,4
145,134.10,124.98,4
145,134.32,125.18,4
147,134.57,125.40,4
151,134.90,125.66,4
149,135.18,125.89,4
148,135.44,126.11,4
155,135.83,126.40,4
152,136.15,126.66,4
153,136.49,126.92,4
154,136.84,127.19,4
149,137.08,127.41,4
152,137.38,127.65,4
157,137.77,127.95,4
152,138.06,128.19,4
151,138.32,128.42,4
152,138.59,128.65,4
152,138.86,128.89,4
151,139.10,129.11,4
152,139.36,129.34,4
149,139.55,129.53,4
151,139.78,129.75,4
149,139.97,129.94,4
149,140.15,130.13,4
150,140.34,130.33,4
150,140.54,130.53,4
150,140.73,130.72,4
155,141.01,130.96,4
155,141.29,131.20,4
151,141.49,131.40,4
161,141.88,131.70,4
157,142.18,131.95,4
154,142.41,132.17,4
152,142.61,132.37,4
153,142.81,132.58,4
153,143.02,132.78,4
155,143.26,133.00,4
158,143.55,133.25,4
155,143.78,133.47,4
157,144.05,133.71,4
156,144.28,133.93,4
154,144.48,134.13,4
159,144.77,134.38,4
157,145.01,134.60,4
155,145.21,134.81,4
153,145.37,134.99,4
155,145.56,135.19,4
156,145.77,135.40,4
162,146.10,135.66,4
155,146.27,135.86,4
156,146.47,136.06,4
157,146.68,136.27,4
155,146.85,136.46,4
156,147.03,136.65,4
155,147.19,136.83,4
156,147.36,137.03,4
155,147.52,137.21,4
155,147.67,137.38,4
155,147.81,137.56,4
153,147.92,137.71,4
155,148.06,137.89,4
153,148.16,138.04,4
153,148.25,138.19,4
154,148.37,138.35,4
153,148.46,138.49,4
155,148.59,138.66,4
153,148.68,138.80,4
157,148.85,138.98,4
156,148.99,139.15,4
155,149.11,139.31,4
157,149.27,139.49,4
154,149.36,139.63,4
153,149.44,139.77,4
154,149.53,139.91,4
156,149.66,140.07,4
154,149.74,140.21,4
153,149.81,140.34,4
153,149.87,140.46,4
153,149.93,140.59,4
153,150.00,140.71,4
152,150.04,140.83,4
154,150.12,140.96,4
154,150.19,141.09,4
153,150.25,141.21,4
153,150.30,141.33,4
152,150.34,141.43,4
153,150.39,141.55,4
152,150.42,141.65,4
154,150.49,141.78,4
153,150.55,141.89,4
152,150.57,141.99,4
153,150.62,142.10,4
153,150.67,142.21,4
153,150.72,142.32,4
151,150.72,142.40,4
153,150.77,142.51,4
151,150.77,142.59,4
153,150.82,142.70,4
153,150.86,142.80,4
153,150.90,142.90,4
151,150.91,142.98,4
152,150.93,143.07,4
153,150.97,143.17,4
153,151.01,143.27,4
153,151.05,143.37,4
153,151.09,143.47,4
154,151.15,143.57,4
152,151.16,143.66,4
153,151.20,143.75,4
152,151.22,143.83,4
155,151.29,143.94,4
154,151.35,144.04,4
151,151.34,144.11,4
152,151.35,144.19,4
154,151.41,144.29,4
153,151.44,144.38,4
153,151.47,144.46,4
152,151.48,144.54,4
151,151.47,144.60,4
152,151.48,144.68,4
148,151.41,144.71,4
151,151.40,144.77,4
151,151.39,144.84,4
149,151.35,144.88,4
150,151.32,144.93,4
149,151.27,144.97,4
151,151.27,145.03,4
150,151.24,145.08,4
151,151.24,145.14,4
150,151.21,145.19,4
149,151.17,145.23,4
150,151.15,145.27,4
149,151.10,145.31,4
149,151.06,145.35,4
149,151.02,145.38,4
148,150.96,145.41,4
148,150.90,145.44,4
148,150.84,145.46,4
148,150.78,145.49,4
148,150.73,145.51,4
148,150.67,145.54,4
149,150.64,145.57,4
148,150.59,145.60,4
147,150.52,145.61,4
149,150.49,145.64,4
147,150.42,145.66,4
148,150.37,145.68,4
145,150.26,145.67,4
145,150.16,145.67,4
148,150.11,145.69,4
149,150.09,145.72,4
146,150.01,145.73,4
147,149.95,145.74,4
147,149.89,145.75,4
147,149.83,145.76,4
145,149.73,145.76,4
145,149.64,145.75,4
147,149.59,145.76,4
147,149.54,145.77,4
145,149.44,145.77,4
145,149.36,145.76,4
146,149.29,145.76,4
146,149.22,145.76,4
147,149.18,145.78,4
145,149.09,145.77,4
145,149.01,145.76,4
145,148.93,145.75,4
145,148.85,145.75,4
144,148.76,145.73,4
144,148.66,145.71,4
144,148.57,145.69,4
143,148.46,145.67,4
143,148.35,145.64,4
143,148.24,145.61,4
143,148.14,145.59,4
143,148.03,145.56,4
143,147.93,145.54,4
143,147.83,145.51,4
143,147.74,145.49,4
143,147.64,145.46,4
144,147.57,145.45,4
143,147.48,145.42,4
144,147.41,145.41,4
143,147.32,145.38,4
142,147.21,145.35,4
141,147.09,145.31,4
143,147.01,145.28,4
141,146.89,145.24,4
141,146.77,145.20,4
141,146.66,145.16,4
141,146.54,145.11,4
141,146.43,145.07,4
141,146.32,145.03,4
141,146.22,144.99,4
141,146.11,144.95,4
141,146.01,144.91,4
141,145.91,144.87,4
140,145.79,144.82,4
140,145.68,144.78,4
140,145.56,144.73,4
140,145.45,144.68,4
139,145.32,144.62,4
140,145.22,144.58,4
139,145.09,144.52,4
140,144.99,144.48,4
139,144.87,144.42,4
140,144.77,144.38,4
139,144.66,144.32,4
139,144.54,144.27,4
139,144.43,144.22,4
139,144.32,144.17,4
137,144.18,144.09,5
139,144.07,144.04,5
137,143.93,143.97,6
139,143.83,143.92,6
137,143.70,143.85,6
138,143.58,143.80,6
138,143.47,143.74,6
137,143.34,143.67,6
137,143.22,143.60,6
137,143.09,143.54,6
136,142.95,143.46,6
137,142.83,143.40,6
137,142.71,143.33,6
137,142.60,143.27,6
137,142.49,143.21,6
136,142.36,143.14,6
139,142.29,143.09,6
138,142.20,143.04,6
137,142.10,142.98,6
137,142.00,142.92,6
137,141.90,142.86,6
137,141.80,142.80,6
135,141.66,142.73,6
135,141.53,142.65,6
135,141.40,142.57,6
136,141.29,142.51,6
136,141.19,142.44,6
136,141.08,142.38,6
135,140.96,142.30,6
135,140.84,142.23,6
135,140.73,142.16,6
137,140.65,142.11,6
135,140.54,142.04,6
133,140.39,141.95,6
133,140.24,141.86,6
133,140.09,141.77,6
136,140.01,141.71,6
135,139.91,141.64,6
133,139.77,141.56,6
133,139.64,141.47,6
133,139.51,141.39,6
135,139.42,141.32,6
136,139.35,141.27,6
133,139.22,141.19,6
134,139.12,141.11,6
134,139.01,141.04,6
133,138.89,140.96,6
132,138.76,140.87,6
133,138.64,140.79,6
133,138.53,140.72,6
133,138.42,140.64,6
132,138.29,140.55,6
132,138.16,140.47,6
132,138.04,140.38,6
132,137.92,140.30,6
131,137.78,140.21,6
131,137.65,140.11,6
131,137.51,140.02,6
129,137.34,139.91,6
131,137.22,139.82,6
131,137.09,139.74,6
131,136.97,139.65,6
130,136.83,139.55,6
131,136.71,139.47,6
131,136.60,139.38,6
130,136.47,139.29,6
129,136.32,139.18,6
129,136.17,139.08,6
129,136.03,138.98,6
132,135.95,138.91,6
131,135.85,138.83,6
130,135.73,138.74,6
130,135.62,138.66,6
130,135.50,138.57,6
131,135.41,138.50,6
129,135.29,138.40,6
129,135.16,138.31,6
129,135.04,138.21,6
129,134.92,138.12,6
129,134.80,138.03,6
129,134.68,137.94,6
128,134.55,137.84,6
127,134.40,137.73,6
128,134.27,137.63,6
128,134.14,137.54,6
128,134.02,137.44,6
127,133.88,137.34,6
127,133.74,137.23,6
127,133.61,137.13,6
127,133.48,137.03,6
126,133.33,136.92,6
127,133.20,136.82,6
127,133.08,136.72,6
126,132.93,136.62,6
126,132.80,136.51,6
125,132.64,136.39,6
126,132.51,136.29,6
131,132.48,136.24,6
125,132.33,136.13,6
125,132.18,136.01,6
125,132.04,135.90,6
127,131.94,135.82,6
126,131.82,135.72,6
126,131.70,135.62,6
125,131.57,135.51,6
126,131.46,135.42,6
125,131.33,135.31,6
126,131.22,135.22,6
125,131.10,135.12,6
124,130.95,135.01,6
125,130.83,134.91,6
125,130.72,134.81,6
125,130.60,134.71,6
123,130.45,134.59,6
125,130.34,134.50,6
125,130.24,134.40,6
124,130.11,134.30,6
125,130.01,134.21,6
123,129.87,134.09,6
123,129.73,133.98,6
125,129.64,133.89,6
124,129.52,133.79,6
123,129.39,133.69,6
123,129.27,133.58,6
123,129.14,133.47,6
124,129.04,133.38,6
122,128.90,133.26,6
122,128.76,133.15,6
122,128.62,133.04,6
121,128.47,132.92,6
121,128.32,132.80,6
121,128.18,132.68,6
121,128.03,132.57,6
122,127.91,132.46,6
122,127.79,132.36,6
123,127.70,132.26,6
121,127.56,132.15,6
121,127.43,132.04,6
121,127.30,131.93,6
121,127.18,131.82,6
121,127.05,131.71,6
120,126.91,131.59,6
120,126.77,131.48,6
121,126.66,131.37,6
120,126.53,131.26,6
119,126.38,131.14,6
119,126.23,131.01,6
119,126.08,130.89,6
119,125.94,130.78,6
119,125.80,130.66,6
119,125.67,130.54,6
119,125.53,130.43,6
119,125.40,130.31,6
119,125.27,130.20,6
119,125.15,130.09,6
117,124.99,129.96,6
119,124.87,129.85,6
122,124.81,129.77,6
119,124.69,129.66,6
119,124.58,129.55,6
119,124.47,129.45,6
121,124.40,129.36,6
119,124.29,129.26,6
119,124.18,129.16,6
118,124.06,129.05,6
118,123.94,128.94,6
119,123.84,128.84,6
117,123.70,128.72,6
117,123.57,128.60,6
118,123.46,128.49,6
117,123.33,128.38,6
117,123.20,128.27,6
117,123.08,128.15,6
117,122.96,128.04,6
116,122.82,127.92,6
116,122.68,127.80,6
117,122.57,127.69,6
117,122.46,127.59,6
117,122.35,127.48,6
116,122.22,127.37,6
116,122.10,127.25,6
115,121.95,127.13,6
116,121.84,127.02,6
115,121.70,126.90,6
116,121.58,126.79,6
115,121.45,126.67,6
115,121.32,126.55,6
113,121.16,126.42,6
115,121.03,126.31,6
117,120.95,126.21,6
118,120.89,126.13,6
117,120.82,126.04,6
115,120.70,125.93,6
115,120.59,125.82,6
117,120.51,125.73,6
117,120.44,125.64,6
117,120.38,125.56,6
114,120.25,125.44,6
115,120.14,125.34,6
116,120.06,125.24,6
115,119.96,125.14,6
116,119.88,125.05,6
113,119.74,124.93,6
115,119.65,124.83,6
113,119.51,124.71,6
113,119.38,124.59,6
114,119.28,124.49,6
112,119.13,124.36,6
113,119.01,124.25,6
114,118.91,124.15,6
113,118.79,124.04,6
114,118.69,123.94,6
115,118.62,123.85,6
115,118.55,123.76,6
113,118.44,123.65,6
113,118.33,123.54,6
115,118.26,123.46,6
114,118.18,123.36,6
115,118.11,123.28,6
113,118.01,123.18,6
114,117.93,123.09,6
114,117.85,122.99,6
115,117.79,122.91,6
114,117.72,122.83,6
113,117.62,122.73,6
113,117.53,122.63,6
113,117.44,122.53,6
113,117.35,122.44,6
113,117.27,122.34,6
112,117.16,122.24,6
112,117.06,122.14,6
113,116.98,122.05,6
112,116.88,121.95,6
111,116.76,121.84,6
112,116.66,121.74,6
113,116.59,121.65,6
113,116.52,121.56,6
112,116.43,121.47,6
111,116.32,121.36,6
112,116.23,121.27,6
113,116.17,121.19,6
113,116.11,121.11,6
112,116.02,121.02,6
111,115.92,120.92,6
111,115.82,120.82,6
112,115.75,120.73,6
116,115.75,120.68,6
111,115.66,120.58,6
111,115.56,120.49,6
111,115.47,120.39,6
112,115.40,120.31,6
111,115.32,120.22,6
110,115.21,120.11,6
110,115.11,120.01,6
112,115.04,119.93,6
110,114.94,119.83,6
109,114.82,119.72,6
109,114.71,119.62,6
109,114.59,119.51,6
111,114.52,119.43,6
110,114.43,119.33,6
110,114.34,119.24,6
109,114.24,119.14,6
109,114.13,119.03,6
111,114.07,118.95,6
109,113.97,118.86,6
109,113.87,118.76,6
109,113.77,118.66,6
109,113.67,118.56,6
108,113.56,118.46,6
107,113.43,118.34,6
109,113.34,118.25,6
108,113.23,118.15,6
109,113.15,118.05,6
109,113.07,117.96,6
108,112.97,117.86,6
107,112.85,117.76,6
107,112.73,117.65,6
108,112.63,117.55,6
107,112.52,117.45,6
108,112.43,117.35,6
108,112.34,117.26,6
108,112.26,117.17,6
107,112.15,117.06,6
106,112.03,116.95,6
107,111.93,116.85,6
108,111.85,116.77,6
105,111.71,116.65,6
106,111.60,116.54,6
106,111.49,116.44,6
106,111.38,116.33,6
105,111.25,116.22,6
105,111.12,116.11,6
106,111.02,116.01,6
105,110.90,115.89,6
105,110.78,115.79,6
104,110.65,115.67,6
105,110.53,115.56,6
105,110.42,115.46,6
104,110.29,115.34,6
104,110.17,115.23,6
103,110.03,115.11,6
104,109.90,114.99,6
105,109.81,114.89,6
103,109.67,114.78,6
103,109.54,114.66,6
103,109.41,114.54,6
103,109.28,114.43,6
104,109.17,114.32,6
103,109.05,114.21,6
103,108.93,114.10,6
103,108.81,113.99,6
103,108.69,113.88,6
102,108.56,113.76,6
103,108.45,113.65,6
102,108.32,113.53,6
103,108.21,113.43,6
103,108.11,113.32,6
103,108.01,113.22,6
102,107.89,113.11,6
103,107.79,113.01,6
103,107.69,112.91,6
103,107.60,112.81,6
101,107.47,112.69,6
103,107.38,112.59,6
103,107.29,112.50,6
102,107.18,112.39,6
101,107.06,112.28,6
102,106.96,112.17,6
102,106.86,112.07,6
101,106.74,111.96,6
102,106.65,111.86,6
101,106.54,111.75,6
101,106.42,111.65,6
101,106.32,111.54,6
101,106.21,111.43,6
102,106.13,111.34,6
101,106.02,111.24,6
101,105.92,111.13,6
101,105.82,111.03,6
103,105.77,110.95,6
101,105.67,110.85,6
100,105.56,110.74,6
101,105.47,110.65,6
103,105.42,110.57,6
101,105.33,110.48,6
101,105.24,110.38,6
101,105.16,110.29,6
102,105.10,110.20,6
101,105.01,110.11,6
101,104.93,110.02,6
99,104.81,109.91,6
100,104.72,109.81,6
100,104.62,109.71,6
100,104.53,109.62,6
101,104.46,109.53,6
99,104.35,109.42,6
99,104.24,109.32,6
99,104.14,109.22,6
100,104.06,109.13,6
101,104.00,109.04,6
101,103.94,108.96,6
101,103.88,108.88,6
99,103.78,108.78,6
99,103.68,108.69,6
99,103.59,108.59,6
100,103.52,108.50,6
101,103.47,108.43,6
100,103.40,108.35,6
100,103.33,108.26,6
99,103.24,108.17,6
99,103.16,108.08,6
100,103.10,108.00,6
100,103.03,107.92,6
99,102.95,107.83,6
100,102.89,107.75,6
98,102.80,107.65,6
99,102.72,107.57,6
98,102.63,107.47,6
97,102.51,107.36,6
98,102.42,107.27,6
98,102.33,107.18,6
95,102.19,107.06,6
98,102.10,106.97,6
98,102.02,106.88,6
96,101.90,106.77,6
97,101.80,106.67,6
97,101.71,106.57,6
97,101.61,106.48,6
97,101.52,106.38,6
97,101.43,106.29,6
97,101.34,106.20,6
95,101.22,106.08,6
96,101.11,105.98,6
96,101.01,105.88,6
96,100.91,105.78,6
99,100.87,105.72,6
98,100.81,105.64,6
98,100.76,105.56,6
99,100.72,105.50,6
100,100.71,105.44,6
97,100.63,105.36,6
97,100.56,105.27,6
97,100.49,105.19,6
98,100.44,105.12,6
98,100.39,105.05,6
96,100.30,104.96,6
98,100.26,104.89,6
96,100.17,104.80,6
99,100.15,104.74,6
96,100.07,104.65,6
98,100.02,104.59,6
98,99.98,104.52,6
96,99.90,104.44,6
97,99.85,104.36,6
97,99.79,104.29,6
96,99.71,104.21,6
97,99.66,104.13,6
98,99.63,104.07,6
97,99.57,104.00,6
96,99.50,103.92,6
98,99.47,103.86,6
99,99.46,103.81,6
95,99.37,103.73,6
97,99.33,103.66,6
97,99.28,103.59,6
103,99.35,103.59,6
98,99.33,103.53,6
97,99.28,103.46,6
97,99.23,103.40,6
98,99.21,103.35,6
100,99.23,103.31,6
97,99.18,103.25,6
96,99.12,103.18,6
97,99.07,103.12,6
97,99.03,103.05,6
95,98.95,102.97,6
96,98.89,102.90,6
95,98.82,102.82,6
96,98.76,102.76,6
95,98.68,102.68,6
96,98.63,102.61,6
95,98.56,102.54,6
95,98.49,102.46,6
96,98.44,102.40,6
97,98.41,102.34,6
97,98.38,102.29,6
99,98.39,102.26,6
97,98.36,102.20,6
99,98.38,102.17,6
97,98.35,102.12,6
97,98.32,102.07,6
98,98.32,102.03,6
98,98.31,101.99,6
97,98.28,101.94,6
96,98.24,101.88,6
96,98.19,101.82,6
97,98.17,101.77,6
99,98.19,101.74,6
98,98.18,101.71,6
98,98.18,101.67,6
97,98.16,101.62,6
97,98.13,101.58,6
96,98.09,101.52,6
96,98.05,101.47,6
98,98.05,101.43,6
96,98.01,101.38,6
97,97.99,101.33,6
97,97.97,101.29,6
96,97.93,101.24,6
96,97.89,101.18,6
96,97.85,101.13,6
97,97.83,101.09,6
97,97.82,101.05,6
95,97.76,100.99,6
98,97.77,100.96,6
96,97.73,100.91,6
96,97.70,100.86,6
97,97.68,100.82,6
99,97.71,100.80,6
96,97.67,100.76,6
101,97.74,100.76,6
100,97.79,100.75,6
98,97.79,100.72,6
96,97.75,100.68,6
97,97.74,100.64,6
97,97.72,100.60,6
97,97.71,100.57,6
101,97.78,100.57,6
100,97.82,100.57,6
99,97.84,100.55,6
97,97.83,100.51,6
98,97.83,100.49,6
101,97.89,100.49,6
96,97.86,100.45,6
97,97.84,100.41,6
97,97.82,100.38,6
97,97.81,100.35,6
100,97.85,100.34,6
98,97.85,100.32,6
98,97.86,100.30,6
99,97.88,100.28,6
99,97.90,100.27,6
99,97.92,100.26,6
97,97.90,100.23,6
98,97.91,100.20,6
97,97.89,100.17,6
98,97.89,100.15,6
98,97.89,100.13,6
97,97.87,100.10,6
97,97.86,100.07,6
99,97.88,100.06,6
97,97.86,100.02,6
98,97.87,100.00,6
97,97.85,99.97,6
97,97.83,99.94,6
97,97.81,99.92,6
98,97.82,99.90,6
97,97.80,99.87,6
97,97.79,99.84,6
97,97.77,99.81,6
96,97.73,99.77,6
97,97.72,99.74,6
98,97.73,99.73,6
95,97.67,99.68,6
96,97.64,99.64,6
99,97.66,99.64,6
95,97.61,99.59,6
95,97.56,99.54,6
98,97.57,99.53,6
96,97.54,99.49,6
97,97.53,99.47,6
96,97.50,99.43,6
96,97.47,99.40,6
97,97.46,99.38,6
99,97.49,99.37,6
98,97.50,99.36,6
98,97.51,99.34,6
95,97.46,99.30,6
98,97.47,99.29,6
98,97.48,99.28,6
98,97.49,99.26,6
100,97.54,99.27,6
98,97.55,99.26,6
100,97.60,99.26,6
99,97.63,99.26,6
99,97.65,99.26,6
99,97.68,99.26,6
98,97.69,99.24,6
99,97.71,99.24,6
101,97.78,99.26,6
99,97.80,99.26,6
99,97.83,99.25,6
97,97.81,99.23,6
97,97.79,99.21,6
98,97.80,99.20,6
97,97.78,99.18,6
98,97.79,99.16,6
99,97.81,99.16,6
100,97.85,99.17,6
98,97.86,99.16,6
101,97.92,99.18,6
102,98.00,99.21,6
98,98.00,99.19,6
99,98.02,99.19,6
98,98.02,99.18,6
98,98.02,99.17,6
97,98.00,99.15,6
100,98.04,99.15,6
99,98.06,99.15,6
97,98.04,99.13,6
98,98.04,99.12,6
98,98.04,99.11,6
98,98.04,99.10,6
98,98.04,99.09,6
98,98.03,99.08,6
98,98.03,99.06,6
98,98.03,99.05,6
96,97.99,99.02,6
100,98.03,99.03,6
98,98.03,99.02,6
98,98.03,99.01,6
99,98.05,99.01,6
101,98.11,99.03,6
99,98.13,99.03,6
100,98.17,99.04,6
101,98.22,99.06,6
103,98.32,99.10,6
101,98.37,99.12,6
99,98.38,99.12,6
101,98.44,99.14,6
98,98.43,99.13,6
101,98.48,99.15,6
101,98.53,99.16,6
100,98.56,99.17,6
98,98.55,99.16,6
101,98.60,99.18,6
99,98.60,99.18,6
99,98.61,99.18,6
98,98.60,99.16,6
98,98.59,99.15,6
100,98.62,99.16,6
99,98.62,99.16,6
99,98.63,99.16,6
99,98.64,99.16,6
102,98.71,99.18,6
101,98.75,99.20,6
99,98.76,99.20,6
99,98.76,99.20,6
98,98.75,99.19,6
97,98.71,99.16,6
102,98.78,99.19,6
101,98.82,99.21,6
102,98.89,99.24,6
98,98.87,99.23,6
101,98.91,99.24,6
100,98.93,99.25,6
98,98.91,99.24,6
98,98.90,99.23,6
98,98.88,99.21,6
97,98.84,99.19,6
98,98.82,99.18,6
102,98.89,99.21,6
99,98.89,99.21,6
99,98.89,99.20,6
98,98.87,99.19,6
98,98.86,99.18,6
100,98.88,99.19,6
100,98.90,99.20,6
98,98.88,99.18,6
99,98.89,99.18,6
98,98.87,99.17,6
97,98.83,99.15,6
102,98.89,99.18,6
98,98.88,99.17,6
99,98.88,99.16,6
98,98.86,99.15,6
98,98.84,99.14,6
98,98.83,99.13,6
98,98.81,99.12,6
96,98.75,99.09,6
98,98.74,99.08,6
96,98.68,99.05,6
101,98.73,99.07,6
100,98.76,99.07,6
98,98.74,99.06,6
100,98.77,99.07,6
99,98.77,99.07,6
99,98.78,99.07,6
99,98.78,99.07,6
100,98.80,99.08,6
98,98.79,99.07,6
99,98.79,99.07,6
101,98.84,99.09,6
99,98.84,99.09,6
99,98.84,99.09,6
99,98.85,99.09,6
98,98.83,99.07,6
98,98.81,99.06,6
99,98.82,99.06,6
103,98.90,99.10,6
99,98.90,99.10,6
102,98.96,99.13,6
101,99.00,99.15,6
100,99.02,99.16,6
101,99.06,99.18,6
100,99.08,99.18,6
98,99.06,99.17,6
99,99.06,99.17,6
99,99.06,99.17,6
100,99.08,99.18,6
99,99.08,99.18,6
99,99.07,99.17,6
104,99.17,99.22,6
99,99.17,99.22,6
100,99.19,99.23,6
99,99.18,99.23,6
99,99.18,99.22,6
99,99.18,99.22,6
98,99.15,99.21,6
99,99.15,99.21,6
101,99.19,99.22,6
99,99.18,99.22,6
102,99.24,99.25,6
102,99.29,99.28,6
101,99.33,99.29,6
98,99.30,99.28,6
102,99.36,99.31,6
102,99.41,99.34,6
102,99.46,99.36,6
105,99.57,99.42,6
102,99.62,99.44,6
102,99.67,99.47,6
101,99.69,99.49,6
102,99.74,99.51,6
104,99.82,99.56,6
101,99.85,99.57,6
102,99.89,99.59,6
100,99.89,99.60,6
102,99.94,99.62,6
100,99.94,99.63,6
104,100.02,99.67,6
103,100.08,99.70,6
102,100.12,99.73,6
106,100.23,99.79,6
100,100.23,99.79,6
103,100.28,99.82,6
102,100.32,99.85,6
105,100.41,99.90,6
105,100.50,99.95,6
105,100.59,100.00,6
103,100.64,100.03,6
105,100.73,100.08,6
104,100.80,100.12,6
105,100.88,100.17,6
103,100.92,100.19,6
104,100.98,100.23,6
104,101.04,100.27,6
103,101.08,100.30,6
105,101.16,100.34,6
106,101.26,100.40,6
104,101.31,100.44,6
103,101.35,100.46,6
103,101.38,100.49,6
104,101.43,100.52,6
104,101.48,100.56,6
103,101.51,100.58,6
104,101.56,100.62,6
103,101.59,100.64,6
104,101.64,100.67,6
103,101.67,100.70,6
104,101.71,100.73,6
103,101.74,100.75,6
102,101.74,100.77,6
105,101.81,100.81,6
108,101.93,100.88,6
105,102.00,100.92,6
107,102.10,100.98,6
105,102.15,101.02,6
108,102.27,101.09,6
109,102.40,101.17,6
106,102.48,101.22,6
108,102.59,101.29,6
107,102.68,101.34,6
105,102.72,101.38,6
106,102.79,101.43,6
105,102.83,101.46,6
103,102.84,101.48,6
109,102.96,101.55,6
107,103.04,101.61,6
110,103.18,101.69,6
107,103.25,101.74,6
109,103.37,101.82,6
105,103.40,101.85,6
107,103.47,101.90,6
105,103.50,101.93,6
107,103.57,101.98,6
107,103.64,102.03,6
109,103.75,102.10,6
109,103.86,102.17,6
107,103.92,102.22,6
113,104.10,102.33,6
107,104.16,102.37,6
108,104.23,102.43,6
108,104.31,102.49,6
105,104.32,102.51,6
109,104.42,102.58,6
110,104.53,102.65,6
107,104.58,102.69,6
108,104.65,102.75,6
108,104.71,102.80,6
107,104.76,102.84,6
108,104.82,102.89,6
107,104.87,102.93,6
111,104.99,103.01,6
108,105.05,103.06,6
109,105.13,103.12,6
109,105.21,103.18,6
109,105.28,103.24,6
107,105.32,103.28,6
109,105.39,103.34,6
108,105.44,103.38,6
109,105.51,103.44,6
107,105.54,103.47,6
107,105.57,103.51,6
113,105.72,103.60,6
113,105.87,103.70,6
109,105.93,103.75,6
109,105.99,103.80,6
113,106.13,103.90,6
115,106.31,104.01,6
109,106.36,104.06,6
112,106.48,104.14,6
111,106.57,104.20,6
113,106.69,104.29,6
116,106.88,104.41,6
114,107.02,104.51,6
111,107.10,104.57,6
111,107.18,104.63,6
113,107.30,104.72,6
113,107.41,104.80,6
113,107.52,104.88,6
113,107.63,104.96,6
113,107.74,105.04,6
111,107.81,105.10,6
113,107.91,105.18,6
111,107.97,105.24,6
115,108.11,105.34,6
115,108.25,105.44,6
112,108.32,105.50,6
113,108.42,105.58,6
113,108.51,105.65,6
115,108.64,105.74,6
115,108.77,105.84,6
111,108.81,105.89,6
113,108.89,105.96,6
113,108.98,106.03,6
113,109.06,106.10,6
115,109.18,106.19,6
113,109.25,106.26,6
113,109.33,106.32,6
113,109.40,106.39,6
113,109.47,106.46,6
115,109.58,106.54,6
115,109.69,106.63,6
115,109.80,106.71,6
114,109.88,106.78,6
117,110.02,106.89,6
113,110.08,106.95,6
116,110.20,107.04,6
116,110.32,107.13,6
119,110.49,107.25,6
115,110.58,107.32,6
117,110.71,107.42,6
117,110.84,107.52,6
117,110.96,107.61,6
113,111.00,107.66,6
119,111.16,107.78,6
115,111.24,107.85,6
117,111.35,107.94,6
116,111.45,108.02,6
118,111.58,108.12,6
116,111.66,108.20,6
115,111.73,108.27,6
117,111.84,108.36,6
118,111.96,108.45,6
118,112.08,108.55,6
117,112.18,108.63,6
116,112.26,108.71,6
115,112.31,108.77,6
114,112.34,108.82,6
117,112.44,108.90,6
117,112.53,108.98,6
115,112.58,109.04,6
116,112.65,109.11,6
119,112.77,109.21,6
115,112.82,109.27,6
115,112.86,109.33,6
115,112.90,109.38,6
115,112.95,109.44,6
115,112.99,109.50,6
117,113.07,109.57,6
116,113.13,109.64,6
117,113.20,109.71,6
115,113.24,109.76,6
116,113.30,109.82,6
115,113.33,109.88,6
116,113.38,109.94,6
117,113.46,110.01,6
116,113.51,110.07,6
116,113.56,110.13,6
119,113.66,110.22,6
117,113.73,110.28,6
116,113.78,110.34,6
119,113.88,110.43,6
117,113.94,110.49,6
119,114.04,110.58,6
121,114.18,110.68,6
121,114.32,110.79,6
120,114.43,110.88,6
117,114.49,110.94,6
119,114.58,111.02,6
123,114.74,111.14,6
124,114.93,111.27,6
121,115.05,111.37,6
120,115.15,111.45,6
119,115.23,111.53,6
119,115.30,111.60,6
119,115.38,111.68,6
121,115.49,111.77,6
120,115.58,111.85,6
119,115.65,111.92,6
122,115.77,112.02,6
121,115.88,112.11,6
121,115.98,112.20,6
120,116.06,112.28,6
119,116.12,112.35,6
121,116.22,112.43,6
121,116.31,112.52,6
123,116.45,112.62,6
123,116.58,112.73,6
121,116.67,112.81,6
121,116.75,112.89,6
120,116.82,112.96,6
121,116.90,113.04,6
121,116.98,113.12,6
121,117.06,113.20,6
124,117.20,113.31,6
125,117.36,113.43,6
123,117.47,113.52,6
121,117.54,113.60,6
133,117.85,113.79,6
124,117.97,113.89,6
127,118.15,114.03,6
127,118.33,114.16,6
123,118.43,114.24,6
127,118.60,114.37,6
125,118.72,114.48,6
123,118.81,114.56,6
125,118.93,114.67,6
125,119.06,114.77,6
125,119.17,114.87,6
126,119.31,114.98,6
127,119.46,115.10,6
126,119.60,115.21,6
126,119.72,115.32,6
128,119.89,115.45,6
127,120.03,115.56,6
128,120.19,115.69,6
127,120.33,115.80,6
125,120.42,115.89,6
127,120.55,116.00,6
132,120.78,116.16,6
125,120.87,116.25,6
131,121.07,116.40,6
129,121.23,116.53,6
131,121.42,116.67,6
128,121.55,116.78,6
129,121.70,116.91,6
129,121.85,117.03,6
128,121.97,117.14,6
128,122.09,117.25,6
134,122.33,117.41,6
129,122.46,117.53,6
133,122.67,117.68,6
135,122.92,117.86,6
129,123.04,117.97,6
133,123.24,118.12,6
131,123.40,118.25,6
133,123.59,118.39,6
133,123.78,118.54,6
131,123.92,118.67,6
139,124.22,118.87,6
132,124.38,119.00,6
133,124.55,119.14,6
131,124.68,119.26,6
131,124.81,119.38,6
132,124.95,119.50,6
134,125.13,119.65,6
136,125.35,119.81,6
136,125.56,119.97,6
137,125.79,120.14,6
135,125.97,120.29,6
135,126.16,120.44,6
133,126.29,120.56,6
134,126.45,120.70,6
137,126.66,120.86,6
140,126.92,121.05,6
137,127.13,121.21,6
139,127.36,121.39,6
137,127.56,121.55,6
135,127.70,121.68,6
137,127.89,121.83,6
135,128.03,121.97,6
142,128.31,122.17,6
140,128.55,122.34,6
137,128.72,122.49,6
139,128.92,122.66,6
137,129.08,122.80,6
137,129.24,122.94,6
139,129.44,123.10,6
138,129.61,123.25,6
138,129.78,123.40,6
141,130.00,123.57,6
138,130.16,123.72,6
144,130.44,123.92,6
145,130.73,124.13,6
140,130.91,124.29,6
143,131.15,124.48,6
150,131.53,124.73,6
145,131.80,124.94,6
147,132.11,125.16,6
146,132.38,125.37,6
149,132.72,125.60,6
152,133.10,125.87,6
149,133.42,126.10,6
145,133.65,126.29,6
145,133.88,126.47,6
150,134.20,126.71,6
148,134.48,126.92,6
147,134.73,127.12,6
151,135.05,127.36,6
147,135.29,127.56,6
147,135.53,127.75,6
149,135.79,127.96,6
152,136.12,128.20,6
148,136.36,128.40,6
152,136.67,128.64,6
152,136.98,128.87,6
150,137.24,129.08,6
149,137.47,129.28,6
152,137.76,129.51,6
149,137.99,129.70,6
156,138.35,129.97,6
153,138.64,130.20,6
157,139.01,130.47,6
153,139.29,130.69,6
152,139.54,130.90,6
152,139.79,131.12,6
152,140.03,131.32,6
152,140.27,131.53,6
153,140.53,131.75,6
154,140.80,131.97,6
154,141.06,132.19,6
157,141.38,132.44,6
157,141.69,132.68,6
157,142.00,132.93,6
153,142.22,133.13,6
155,142.48,133.34,6
162,142.87,133.63,6
157,143.15,133.87,6
155,143.39,134.08,6
154,143.60,134.28,6
155,143.83,134.48,6
153,144.01,134.67,6
155,144.23,134.87,6
154,144.42,135.06,6
155,144.64,135.26,6
153,144.80,135.44,6
159,145.09,135.68,6
157,145.33,135.89,6
156,145.54,136.09,6
155,145.73,136.28,6
153,145.87,136.45,6
154,146.04,136.62,6
153,146.18,136.79,6
155,146.35,136.97,6
153,146.48,137.13,6
154,146.64,137.30,6
158,146.86,137.50,6
154,147.01,137.67,6
164,147.35,137.93,6
162,147.64,138.17,6
161,147.91,138.40,6
159,148.13,138.61,6
156,148.28,138.78,6
156,148.44,138.95,6
164,148.75,139.20,6
165,149.08,139.46,6
161,149.31,139.68,6
159,149.51,139.87,6
160,149.72,140.07,6
159,149.90,140.26,6
158,150.07,140.44,6
161,150.28,140.64,6
160,150.48,140.84,6
159,150.65,141.02,6
158,150.80,141.19,6
157,150.92,141.35,6
157,151.04,141.50,6
159,151.20,141.68,6
159,151.36,141.85,6
157,151.47,142.00,6
158,151.60,142.16,6
159,151.75,142.33,6
159,151.89,142.50,6
161,152.08,142.68,6
157,152.17,142.83,6
158,152.29,142.98,6
157,152.38,143.12,6
160,152.54,143.29,6
157,152.63,143.42,6
157,152.71,143.56,6
157,152.80,143.69,6
161,152.96,143.87,6
159,153.08,144.02,6
158,153.18,144.16,6
159,153.30,144.31,6
158,153.39,144.44,6
160,153.52,144.60,6
157,153.59,144.72,6
158,153.68,144.86,6
158,153.77,144.99,6
158,153.85,145.12,6
159,153.96,145.26,6
157,154.02,145.37,6
158,154.10,145.50,6
157,154.15,145.62,6
157,154.21,145.73,6
157,154.27,145.84,6
153,154.24,145.91,6
157,154.30,146.02,6
155,154.31,146.11,6
159,154.41,146.24,6
155,154.42,146.33,6
157,154.47,146.44,6
155,154.48,146.52,6
155,154.49,146.61,6
157,154.54,146.71,6
155,154.55,146.79,6
156,154.58,146.89,6
155,154.59,146.97,6
156,154.61,147.06,6
153,154.58,147.12,6
157,154.63,147.22,6
155,154.64,147.29,6
153,154.61,147.35,6
153,154.57,147.41,6
153,154.54,147.46,6
153,154.51,147.52,6
153,154.48,147.57,6
154,154.47,147.64,6
153,154.44,147.69,6
153,154.41,147.74,6
153,154.38,147.80,6
156,154.42,147.88,6
153,154.39,147.93,6
153,154.36,147.98,6
152,154.31,148.02,6
152,154.27,148.06,6
153,154.24,148.11,6
153,154.22,148.16,6
152,154.17,148.20,6
153,154.15,148.25,6
152,154.11,148.28,6
156,154.14,148.36,6
155,154.16,148.43,6
154,154.16,148.48,6
151,154.10,148.51,6
153,154.07,148.55,6
153,154.05,148.60,6
151,153.99,148.62,6
153,153.97,148.66,6
151,153.91,148.69,6
151,153.85,148.71,6
151,153.80,148.73,6
151,153.74,148.76,6
151,153.69,148.78,6
152,153.65,148.81,6
151,153.60,148.83,6
152,153.57,148.87,6
150,153.50,148.88,6
151,153.45,148.90,6
147,153.32,148.88,6
149,153.23,148.88,6
149,153.15,148.88,6
149,153.06,148.88,6
149,152.98,148.88,6
148,152.88,148.87,6
148,152.78,148.87,6
149,152.71,148.87,6
149,152.63,148.87,6
147,152.52,148.85,6
149,152.45,148.85,6
145,152.30,148.81,6
147,152.20,148.79,6
147,152.09,148.78,6
147,151.99,148.76,6
146,151.87,148.73,6
146,151.75,148.70,6
145,151.62,148.67,6
145,151.49,148.63,6
146,151.38,148.60,6
145,151.25,148.57,6
146,151.14,148.54,6
146,151.04,148.52,6
145,150.92,148.48,6
146,150.82,148.46,6
145,150.71,148.42,6
146,150.61,148.40,6
145,150.50,148.36,6
145,150.39,148.33,6
145,150.28,148.30,6
143,150.14,148.24,6
145,150.03,148.21,6
145,149.93,148.18,6
145,149.83,148.15,6
143,149.70,148.10,6
143,149.56,148.05,6
143,149.43,148.00,6
144,149.32,147.96,6
143,149.20,147.91,6
143,149.07,147.86,6
143,148.95,147.81,6
142,148.81,147.75,6
143,148.70,147.70,6
141,148.54,147.64,6
143,148.43,147.59,6
141,148.28,147.52,6
142,148.16,147.47,6
142,148.03,147.41,6
141,147.89,147.35,6
141,147.76,147.29,6
141,147.62,147.22,6
141,147.49,147.16,6
139,147.32,147.08,6
141,147.19,147.02,6
140,147.05,146.95,7
140,146.91,146.88,7
139,146.75,146.80,8
139,146.59,146.72,8
139,146.44,146.64,8
140,146.31,146.58,8
139,146.17,146.50,8
139,146.02,146.43,8
140,145.90,146.36,8
137,145.72,146.27,8
137,145.55,146.18,8
138,145.40,146.09,8
137,145.23,146.00,8
137,145.07,145.91,8
137,144.91,145.82,8
138,144.77,145.75,8
137,144.61,145.66,8
137,144.46,145.57,8
137,144.31,145.49,8
136,144.14,145.39,8
137,144.00,145.31,8
137,143.86,145.22,8
138,143.74,145.15,8
137,143.61,145.07,8
136,143.46,144.98,8
135,143.29,144.88,8
140,143.22,144.83,8
136,143.08,144.74,8
136,142.94,144.66,8
135,142.78,144.56,8
135,142.62,144.46,8
137,142.51,144.39,8
137,142.40,144.32,8
135,142.25,144.22,8
135,142.11,144.13,8
136,141.98,144.05,8
135,141.84,143.96,8
135,141.71,143.87,8
135,141.57,143.78,8
134,141.42,143.68,8
134,141.27,143.59,8
133,141.11,143.48,8
130,140.89,143.34,8
133,140.73,143.24,8
133,140.57,143.14,8
133,140.42,143.04,8
133,140.27,142.94,8
131,140.09,142.82,8
132,139.93,142.71,8
132,139.77,142.60,8
133,139.63,142.51,8
131,139.46,142.39,8
132,139.31,142.29,8
133,139.18,142.19,8
134,139.08,142.11,8
133,138.96,142.02,8
131,138.80,141.91,8
131,138.64,141.80,8
133,138.53,141.71,8
131,138.38,141.61,8
131,138.23,141.50,8
131,138.09,141.40,8
130,137.93,141.28,8
130,137.77,141.17,8
131,137.63,141.07,8
130,137.48,140.96,8
129,137.31,140.84,8
129,137.14,140.72,8
130,137.00,140.61,8
129,136.84,140.50,8
130,136.70,140.39,8
130,136.57,140.29,8
129,136.42,140.17,8
129,136.27,140.06,8
130,136.15,139.96,8
129,136.00,139.85,8
128,135.84,139.73,8
129,135.71,139.63,8
129,135.57,139.52,8
128,135.42,139.40,8
128,135.27,139.29,8
127,135.11,139.17,8
128,134.96,139.06,8
127,134.80,138.94,8
127,134.65,138.82,8
127,134.50,138.70,8
127,134.35,138.58,8
127,134.20,138.47,8
126,134.03,138.34,8
126,133.87,138.22,8
125,133.70,138.08,8
127,133.56,137.97,8
127,133.43,137.86,8
125,133.26,137.74,8
125,133.10,137.61,8
126,132.96,137.49,8
125,132.80,137.37,8
125,132.64,137.24,8
125,132.49,137.12,8
125,132.34,137.00,8
125,132.19,136.88,8
126,132.07,136.77,8
124,131.91,136.64,8
125,131.77,136.53,8
125,131.63,136.41,8
125,131.50,136.30,8
123,131.33,136.16,8
125,131.20,136.05,8
123,131.04,135.92,8
124,130.90,135.80,8
125,130.78,135.70,8
124,130.64,135.58,8
123,130.49,135.45,8
125,130.38,135.35,8
124,130.25,135.23,8
123,130.11,135.11,8
121,129.93,134.97,8
122,129.77,134.84,8
122,129.61,134.71,8
123,129.48,134.60,8
123,129.35,134.48,8
123,129.22,134.36,8
123,129.10,134.25,8
125,129.02,134.16,8
124,128.92,134.06,8
121,128.76,133.93,8
123,128.64,133.82,8
124,128.55,133.72,8
125,128.48,133.63,8
123,128.37,133.53,8
123,128.26,133.42,8
123,128.16,133.32,8
123,128.05,133.21,8
124,127.97,133.12,8
122,127.85,133.01,8
123,127.76,132.91,8
119,127.58,132.77,8
121,127.45,132.65,8
123,127.36,132.56,8
121,127.23,132.44,8
121,127.11,132.33,8
121,126.99,132.21,8
122,126.89,132.11,8
121,126.77,132.00,8
120,126.63,131.88,8
121,126.52,131.77,8
120,126.39,131.65,8
121,126.28,131.55,8
121,126.18,131.44,8
120,126.05,131.33,8
120,125.93,131.21,8
120,125.81,131.10,8
120,125.70,130.99,8
120,125.58,130.88,8
120,125.47,130.77,8
119,125.34,130.65,8
120,125.24,130.55,8
118,125.09,130.42,8
119,124.97,130.31,8
118,124.83,130.18,8
120,124.73,130.08,8
119,124.62,129.97,8
119,124.51,129.86,8
119,124.40,129.75,8
117,124.25,129.63,8
117,124.10,129.50,8
118,123.98,129.39,8
119,123.88,129.28,8
117,123.74,129.16,8
117,123.61,129.04,8
117,123.48,128.92,8
117,123.35,128.80,8
117,123.22,128.68,8
117,123.10,128.56,8
117,122.97,128.45,8
121,122.93,128.37,8
117,122.82,128.26,8
118,122.72,128.16,8
115,122.57,128.02,8
117,122.45,127.91,8
117,122.35,127.81,8
117,122.24,127.70,8
116,122.11,127.58,8
116,121.99,127.46,8
116,121.87,127.35,8
116,121.75,127.24,8
116,121.64,127.12,8
115,121.51,127.00,8
117,121.42,126.90,8
116,121.31,126.79,8
115,121.18,126.68,8
112,121.00,126.53,8
117,120.92,126.43,8
118,120.86,126.35,8
119,120.82,126.28,8
116,120.73,126.17,8
116,120.63,126.07,8
117,120.56,125.98,8
118,120.51,125.90,8
118,120.46,125.82,8
116,120.37,125.72,8
116,120.28,125.63,8
117,120.22,125.54,8
117,120.15,125.45,8
116,120.07,125.36,8
116,119.99,125.27,8
115,119.89,125.16,8
115,119.79,125.06,8
115,119.69,124.96,8
117,119.64,124.88,8
116,119.57,124.79,8
115,119.48,124.70,8
116,119.41,124.61,8
115,119.32,124.51,8
115,119.23,124.42,8
116,119.17,124.33,8
115,119.08,124.24,8
116,119.02,124.16,8
116,118.96,124.08,8
114,118.86,123.97,8
116,118.80,123.90,8
114,118.71,123.80,8
114,118.61,123.70,8
114,118.52,123.60,8
115,118.45,123.52,8
113,118.34,123.41,8
113,118.24,123.31,8
113,118.13,123.20,8
113,118.03,123.10,8
113,117.93,123.00,8
112,117.81,122.89,8
113,117.71,122.79,8
113,117.62,122.69,8
113,117.53,122.60,8
113,117.44,122.50,8
112,117.33,122.40,8
113,117.24,122.30,8
112,117.14,122.20,8
112,117.03,122.10,8
111,116.91,121.99,8
112,116.81,121.89,8
112,116.72,121.79,8
111,116.60,121.68,8
111,116.49,121.57,8
109,116.34,121.45,8
113,116.28,121.36,8
112,116.19,121.27,8
112,116.11,121.18,8
112,116.02,121.08,8
112,115.94,120.99,8
113,115.88,120.91,8
113,115.83,120.83,8
111,115.73,120.74,8
111,115.64,120.64,8
111,115.54,120.54,8
112,115.47,120.46,8
111,115.38,120.36,8
111,115.29,120.27,8
111,115.21,120.18,8
111,115.12,120.08,8
111,115.04,119.99,8
111,114.96,119.90,8
110,114.86,119.80,8
111,114.78,119.72,8
112,114.73,119.64,8
110,114.63,119.54,8
110,114.54,119.45,8
109,114.43,119.34,8
111,114.36,119.26,8
109,114.26,119.16,8
109,114.15,119.05,8
110,114.07,118.96,8
110,113.99,118.87,8
111,113.93,118.80,8
110,113.85,118.71,8
109,113.75,118.61,8
109,113.66,118.51,8
109,113.56,118.42,8
111,113.51,118.35,8
109,113.42,118.25,8
109,113.33,118.16,8
111,113.29,118.09,8
109,113.20,118.00,8
111,113.16,117.93,8
109,113.07,117.84,8
107,112.95,117.73,8
110,112.89,117.65,8
110,112.83,117.58,8
109,112.76,117.49,8
108,112.66,117.39,8
109,112.59,117.31,8
107,112.48,117.21,8
108,112.39,117.12,8
108,112.30,117.02,8
108,112.21,116.93,8
107,112.11,116.84,8
109,112.05,116.76,8
108,111.97,116.67,8
108,111.89,116.58,8
107,111.79,116.49,8
107,111.69,116.39,8
107,111.60,116.30,8
107,111.51,116.20,8
107,111.42,116.11,8
107,111.33,116.02,8
108,111.26,115.94,8
107,111.18,115.85,8
105,111.05,115.74,8
106,110.95,115.65,8
105,110.83,115.54,8
107,110.76,115.45,8
106,110.66,115.36,8
105,110.55,115.26,8
106,110.46,115.16,8
107,110.39,115.08,8
108,110.34,115.01,8
105,110.23,114.91,8
106,110.15,114.82,8
107,110.09,114.74,8
107,110.02,114.67,8
105,109.92,114.57,8
105,109.83,114.47,8
105,109.73,114.38,8
106,109.65,114.30,8
109,109.64,114.24,8
105,109.55,114.15,8
104,109.44,114.05,8
105,109.35,113.96,8
105,109.26,113.87,8
106,109.20,113.79,8
105,109.11,113.70,8
104,109.01,113.60,8
103,108.89,113.50,8
105,108.81,113.41,8
105,108.74,113.33,8
104,108.64,113.24,8
103,108.53,113.13,8
104,108.44,113.04,8
105,108.37,112.96,8
105,108.30,112.88,8
104,108.22,112.79,8
103,108.11,112.70,8
104,108.03,112.61,8
106,107.99,112.54,8
104,107.91,112.46,8
105,107.85,112.38,8
103,107.75,112.29,8
105,107.70,112.22,8
107,107.69,112.16,8
105,107.63,112.09,8
105,107.58,112.02,8
106,107.55,111.96,8
105,107.50,111.89,8
106,107.47,111.83,8
105,107.42,111.76,8
103,107.33,111.68,8
105,107.28,111.61,8
107,107.28,111.56,8
105,107.23,111.50,8
105,107.19,111.43,8
105,107.14,111.37,8
105,107.10,111.31,8
106,107.08,111.25,8
104,107.02,111.18,8
103,106.94,111.10,8
104,106.88,111.03,8
105,106.84,110.97,8
105,106.80,110.91,8
103,106.73,110.83,8
104,106.67,110.76,8
105,106.64,110.70,8
105,106.61,110.64,8
104,106.55,110.58,8
105,106.52,110.52,8
104,106.47,110.46,8
104,106.42,110.39,8
105,106.39,110.34,8
104,106.35,110.28,8
103,106.28,110.20,8
105,106.25,110.15,8
104,106.21,110.09,8
105,106.18,110.04,8
101,106.08,109.95,8
103,106.02,109.88,8
105,106.00,109.83,8
103,105.94,109.76,8
103,105.88,109.69,8
105,105.86,109.65,8
103,105.81,109.58,8
104,105.77,109.52,8
105,105.75,109.48,8
105,105.74,109.43,8
104,105.70,109.38,8
105,105.69,109.34,8
103,105.64,109.27,8
103,105.58,109.21,8
105,105.57,109.17,8
103,105.52,109.11,8
104,105.49,109.06,8
103,105.44,109.00,8
104,105.41,108.95,8
102,105.34,108.88,8
103,105.30,108.82,8
105,105.29,108.78,8
105,105.28,108.74,8
104,105.26,108.69,8
103,105.21,108.64,8
105,105.21,108.60,8
104,105.19,108.55,8
105,105.18,108.52,8
103,105.14,108.46,8
105,105.14,108.43,8
103,105.09,108.37,8
102,105.03,108.31,8
103,104.99,108.26,8
102,104.93,108.20,8
104,104.91,108.15,8
103,104.87,108.10,8
106,104.90,108.08,8
103,104.86,108.03,8
102,104.80,107.97,8
101,104.72,107.90,8
104,104.71,107.86,8
103,104.68,107.81,8
103,104.64,107.76,8
101,104.57,107.70,8
101,104.50,107.63,8
103,104.47,107.58,8
103,104.44,107.54,8
101,104.37,107.47,8
101,104.30,107.41,8
101,104.24,107.34,8
103,104.21,107.30,8
101,104.15,107.24,8
101,104.08,107.17,8
101,104.02,107.11,8
101,103.96,107.05,8
103,103.94,107.01,8
101,103.88,106.95,8
102,103.85,106.90,8
100,103.77,106.83,8
103,103.75,106.79,8
101,103.70,106.74,8
100,103.63,106.67,8
101,103.57,106.61,8
100,103.50,106.55,8
101,103.45,106.49,8
100,103.38,106.43,8
100,103.31,106.36,8
102,103.29,106.32,8
101,103.24,106.26,8
100,103.18,106.20,8
101,103.13,106.15,8
100,103.07,106.09,8
100,103.01,106.03,8
101,102.97,105.98,8
101,102.93,105.93,8
99,102.85,105.86,8
99,102.77,105.79,8
98,102.68,105.71,8
98,102.59,105.63,8
100,102.53,105.58,8
100,102.48,105.52,8
102,102.47,105.49,8
100,102.42,105.43,8
102,102.42,105.40,8
102,102.41,105.36,8
99,102.34,105.30,8
101,102.31,105.26,8
100,102.27,105.20,8
99,102.20,105.14,8
105,102.26,105.14,8
98,102.17,105.07,8
101,102.15,105.03,8
100,102.11,104.98,8
100,102.06,104.93,8
100,102.02,104.88,8
99,101.96,104.82,8
98,101.88,104.75,8
99,101.82,104.70,8
97,101.73,104.62,8
99,101.67,104.56,8
99,101.62,104.51,8
98,101.55,104.44,8
100,101.52,104.40,8
100,101.49,104.35,8
100,101.46,104.31,8
99,101.41,104.26,8
100,101.38,104.21,8
99,101.33,104.16,8
99,101.29,104.11,8
99,101.24,104.06,8
98,101.17,104.00,8
98,101.11,103.94,8
100,101.09,103.90,8
100,101.07,103.86,8
98,101.01,103.80,8
98,100.95,103.74,8
99,100.91,103.70,8
99,100.87,103.65,8
98,100.81,103.59,8
95,100.70,103.51,8
99,100.66,103.46,8
101,100.67,103.44,8
98,100.61,103.38,8
98,100.56,103.33,8
98,100.51,103.28,8
99,100.48,103.23,8
101,100.49,103.21,8
98,100.44,103.16,8
98,100.39,103.11,8
98,100.34,103.06,8
101,100.36,103.04,8
99,100.33,102.99,8
98,100.28,102.94,8
98,100.24,102.90,8
95,100.13,102.82,8
98,100.09,102.77,8
97,100.03,102.71,8
97,99.97,102.65,8
98,99.93,102.61,8
99,99.91,102.57,8
97,99.85,102.52,8
97,99.80,102.46,8
97,99.74,102.41,8
97,99.68,102.35,8
100,99.69,102.33,8
96,99.62,102.26,8
96,99.54,102.20,8
98,99.51,102.16,8
97,99.46,102.11,8
102,99.51,102.11,8
99,99.50,102.08,8
98,99.47,102.04,8
97,99.42,101.99,8
97,99.38,101.94,8
95,99.29,101.87,8
98,99.26,101.83,8
97,99.22,101.78,8
97,99.17,101.73,8
97,99.13,101.68,8
97,99.09,101.64,8
96,99.03,101.58,8
98,99.00,101.54,8
97,98.96,101.50,8
97,98.93,101.45,8
97,98.89,101.41,8
98,98.87,101.38,8
97,98.83,101.33,8
96,98.78,101.28,8
99,98.78,101.26,8
96,98.72,101.20,8
95,98.65,101.14,8
97,98.62,101.10,8
99,98.62,101.08,8
97,98.59,101.04,8
97,98.56,101.00,8
97,98.53,100.96,8
98,98.52,100.93,8
98,98.51,100.90,8
99,98.52,100.88,8
95,98.45,100.82,8
98,98.44,100.79,8
97,98.41,100.76,8
97,98.38,100.72,8
98,98.37,100.69,8
101,98.43,100.69,8
97,98.40,100.66,8
96,98.35,100.61,8
99,98.36,100.59,8
99,98.38,100.58,8
95,98.31,100.52,8
100,98.34,100.52,8
98,98.34,100.49,8
98,98.33,100.47,8
98,98.32,100.44,8
101,98.38,100.45,8
99,98.39,100.43,8
102,98.46,100.45,8
98,98.45,100.42,8
98,98.44,100.40,8
97,98.41,100.37,8
98,98.40,100.34,8
99,98.42,100.33,8
97,98.39,100.30,8
97,98.36,100.26,8
98,98.35,100.24,8
98,98.35,100.22,8
100,98.38,100.22,8
98,98.37,100.19,8
99,98.38,100.18,8
97,98.36,100.15,8
97,98.33,100.12,8
97,98.30,100.09,8
95,98.24,100.04,8
98,98.23,100.02,8
97,98.21,99.99,8
98,98.20,99.97,8
97,98.18,99.94,8
97,98.16,99.91,8
98,98.15,99.89,8
96,98.11,99.85,8
98,98.11,99.83,8
97,98.09,99.80,8
98,98.08,99.78,8
101,98.14,99.80,8
97,98.12,99.77,8
101,98.18,99.78,8
100,98.21,99.78,8
96,98.17,99.74,8
98,98.17,99.73,8
97,98.14,99.70,8
96,98.10,99.66,8
97,98.08,99.64,8
95,98.02,99.59,8
98,98.02,99.57,8
98,98.02,99.56,8
98,98.01,99.54,8
97,97.99,99.52,8
96,97.95,99.48,8
96,97.92,99.45,8
96,97.88,99.41,8
98,97.88,99.40,8
96,97.84,99.36,8
96,97.81,99.33,8
96,97.77,99.30,8
97,97.75,99.28,8
95,97.70,99.23,8
96,97.66,99.20,8
97,97.65,99.18,8
95,97.60,99.14,8
96,97.57,99.10,8
97,97.56,99.08,8
99,97.58,99.08,8
98,97.59,99.07,8
96,97.56,99.04,8
97,97.55,99.02,8
97,97.54,99.00,8
102,97.63,99.03,8
95,97.58,98.99,8
97,97.56,98.97,8
98,97.57,98.96,8
98,97.58,98.95,8
98,97.59,98.94,8
98,97.60,98.93,8
98,97.61,98.92,8
98,97.61,98.91,8
98,97.62,98.90,8
100,97.67,98.92,8
98,97.68,98.91,8
98,97.68,98.90,8
99,97.71,98.90,8
98,97.71,98.89,8
98,97.72,98.88,8
99,97.75,98.88,8
98,97.75,98.87,8
98,97.76,98.86,8
97,97.74,98.85,8
99,97.77,98.85,8
98,97.77,98.84,8
98,97.77,98.83,8
98,97.78,98.82,8
96,97.74,98.79,8
98,97.75,98.79,8
96,97.71,98.76,8
99,97.74,98.76,8
99,97.76,98.76,8
100,97.81,98.78,8
99,97.83,98.78,8
100,97.88,98.79,8
98,97.88,98.78,8
98,97.88,98.77,8
97,97.86,98.76,8
98,97.87,98.75,8
98,97.87,98.74,8
102,97.95,98.77,8
98,97.95,98.77,8
99,97.97,98.77,8
101,98.03,98.79,8
99,98.05,98.79,8
99,98.07,98.79,8
100,98.11,98.81,8
98,98.11,98.80,8
98,98.11,98.79,8
98,98.10,98.78,8
98,98.10,98.78,8
98,98.10,98.77,8
102,98.18,98.80,8
97,98.15,98.78,8
98,98.15,98.77,8
97,98.13,98.76,8
100,98.17,98.77,8
101,98.22,98.79,8
101,98.28,98.81,8
100,98.31,98.82,8
99,98.33,98.83,8
99,98.34,98.83,8
98,98.33,98.82,8
98,98.33,98.81,8
97,98.30,98.79,8
98,98.29,98.79,8
98,98.29,98.78,8
98,98.28,98.77,8
100,98.32,98.78,8
99,98.33,98.78,8
99,98.34,98.79,8
98,98.34,98.78,8
98,98.33,98.77,8
96,98.28,98.74,8
98,98.28,98.74,8
98,98.27,98.73,8
98,98.27,98.72,8
102,98.34,98.75,8
98,98.33,98.75,8
98,98.33,98.74,8
98,98.32,98.73,8
95,98.26,98.69,8
98,98.25,98.69,8
97,98.23,98.67,8
98,98.22,98.66,8
99,98.24,98.67,8
102,98.31,98.70,8
98,98.31,98.69,8
102,98.38,98.73,8
97,98.35,98.71,8
99,98.36,98.71,8
99,98.38,98.72,8
98,98.37,98.71,8
99,98.38,98.71,8
98,98.37,98.70,8
101,98.43,98.73,8
102,98.50,98.76,8
101,98.55,98.78,8
101,98.60,98.80,8
100,98.63,98.82,8
103,98.71,98.86,8
102,98.78,98.89,8
101,98.82,98.91,8
101,98.87,98.93,8
102,98.93,98.96,8
99,98.93,98.96,8
101,98.97,98.98,8
101,99.01,99.00,8
102,99.07,99.03,8
99,99.07,99.03,8
101,99.11,99.05,8
99,99.11,99.05,8
99,99.11,99.05,8
102,99.16,99.08,8
102,99.22,99.11,8
100,99.24,99.12,8
99,99.23,99.12,8
100,99.25,99.13,8
101,99.28,99.15,8
100,99.30,99.15,8
101,99.33,99.17,8
103,99.40,99.21,8
99,99.40,99.21,8
101,99.43,99.23,8
99,99.42,99.22,8
101,99.45,99.24,8
99,99.44,99.24,8
102,99.49,99.27,8
100,99.50,99.27,8
101,99.53,99.29,8
99,99.52,99.29,8
100,99.53,99.30,8
99,99.52,99.29,8
101,99.55,99.31,8
99,99.54,99.31,8
103,99.61,99.34,8
103,99.68,99.38,8
100,99.68,99.39,8
103,99.75,99.42,8
102,99.79,99.45,8
101,99.82,99.46,8
103,99.88,99.50,8
105,99.98,99.55,8
101,100.00,99.57,8
102,100.04,99.59,8
104,100.12,99.64,8
102,100.16,99.66,8
102,100.20,99.68,8
104,100.27,99.73,8
103,100.33,99.76,8
104,100.40,99.80,8
104,100.47,99.84,8
102,100.50,99.87,8
101,100.51,99.88,8
102,100.54,99.90,8
103,100.59,99.93,8
104,100.66,99.97,8
105,100.75,100.02,8
102,100.77,100.04,8
108,100.92,100.12,8
109,101.08,100.21,8
104,101.14,100.25,8
103,101.18,100.27,8
104,101.23,100.31,8
108,101.37,100.39,8
109,101.52,100.47,8
105,101.59,100.52,8
105,101.66,100.56,8
105,101.72,100.61,8
106,101.81,100.66,8
108,101.93,100.74,8
109,102.07,100.82,8
111,102.25,100.92,8
108,102.37,100.99,8
110,102.52,101.08,8
111,102.69,101.18,8
111,102.86,101.28,8
108,102.96,101.35,8
109,103.08,101.42,8
107,103.16,101.48,8
111,103.32,101.57,8
108,103.41,101.64,8
109,103.52,101.71,8
111,103.67,101.80,8
108,103.76,101.87,8
109,103.86,101.94,8
108,103.94,102.00,8
110,104.07,102.08,8
113,104.24,102.19,8
109,104.34,102.26,8
111,104.47,102.34,8
113,104.64,102.45,8
113,104.81,102.56,8
113,104.97,102.66,8
111,105.10,102.74,8
111,105.21,102.83,8
112,105.35,102.92,8
111,105.46,103.00,8
114,105.63,103.11,8
117,105.86,103.25,8
111,105.96,103.32,8
121,106.26,103.50,8
117,106.48,103.64,8
119,106.73,103.79,8
119,106.97,103.94,8
117,107.17,104.07,8
116,107.35,104.19,8
116,107.52,104.31,8
117,107.71,104.44,8
119,107.94,104.58,8
119,108.16,104.73,8
118,108.36,104.86,8
120,108.59,105.01,8
120,108.82,105.16,8
119,109.02,105.30,8
117,109.18,105.42,8
121,109.42,105.57,8
115,109.53,105.67,8
117,109.68,105.78,8
119,109.87,105.91,8
120,110.07,106.05,8
118,110.23,106.17,8
120,110.42,106.31,8
117,110.55,106.42,8
118,110.70,106.53,8
117,110.83,106.64,8
120,111.01,106.77,8
119,111.17,106.89,8
118,111.31,107.00,8
117,111.42,107.10,8
120,111.59,107.23,8
117,111.70,107.33,8
121,111.89,107.47,8
117,111.99,107.56,8
119,112.13,107.68,8
117,112.23,107.77,8
118,112.34,107.87,8
120,112.50,107.99,8
117,112.59,108.08,8
117,112.67,108.17,8
123,112.88,108.32,8
119,113.00,108.43,8
121,113.16,108.55,8
123,113.36,108.70,8
120,113.49,108.81,8
124,113.70,108.96,8
123,113.89,109.10,8
122,114.05,109.23,8
121,114.19,109.35,8
123,114.37,109.49,8
123,114.54,109.62,8
129,114.83,109.82,8
123,114.99,109.95,8
123,115.15,110.08,8
123,115.31,110.21,8
125,115.50,110.36,8
121,115.61,110.46,8
121,115.72,110.57,8
123,115.87,110.69,8
124,116.03,110.83,8
124,116.19,110.96,8
121,116.28,111.06,8
123,116.42,111.18,8
125,116.59,111.31,8
125,116.76,111.45,8
127,116.96,111.61,8
123,117.08,111.72,8
122,117.18,111.82,8
122,117.28,111.93,8
125,117.43,112.06,8
125,117.58,112.19,8
125,117.73,112.31,8
123,117.84,112.42,8
123,117.94,112.53,8
125,118.08,112.65,8
124,118.20,112.76,8
125,118.34,112.89,8
125,118.47,113.01,8
125,118.60,113.13,8
124,118.71,113.24,8
125,118.83,113.35,8
123,118.92,113.45,8
130,119.14,113.62,8
131,119.38,113.79,8
127,119.53,113.92,8
127,119.68,114.05,8
128,119.85,114.19,8
127,119.99,114.32,8
125,120.09,114.43,8
125,120.19,114.53,8
129,120.36,114.68,8
128,120.52,114.81,8
129,120.69,114.95,8
128,120.83,115.08,8
127,120.96,115.20,8
134,121.22,115.39,8
133,121.45,115.57,8
127,121.56,115.68,8
128,121.69,115.80,8
129,121.84,115.94,8
128,121.96,116.06,8
132,122.16,116.22,8
129,122.30,116.34,8
127,122.39,116.45,8
133,122.60,116.62,8
133,122.81,116.78,8
129,122.94,116.90,8
129,123.06,117.02,8
134,123.28,117.19,8
133,123.47,117.35,8
132,123.64,117.50,8
132,123.81,117.64,8
131,123.95,117.78,8
133,124.13,117.93,8
138,124.41,118.13,8
133,124.58,118.28,8
135,124.79,118.45,8
134,124.98,118.60,8
133,125.14,118.74,8
139,125.41,118.95,8
133,125.56,119.09,8
135,125.75,119.25,8
135,125.94,119.40,8
135,126.12,119.56,8
134,126.28,119.70,8
134,126.43,119.85,8
133,126.56,119.98,8
135,126.73,120.13,8
143,127.06,120.36,8
141,127.34,120.56,8
138,127.55,120.74,8
143,127.86,120.96,8
144,128.18,121.19,8
141,128.44,121.39,8
138,128.63,121.56,8
140,128.86,121.74,8
140,129.08,121.92,8
141,129.32,122.11,8
137,129.47,122.26,8
141,129.70,122.45,8
139,129.89,122.62,8
139,130.07,122.78,8
139,130.25,122.94,8
139,130.42,123.10,8
140,130.62,123.27,8
143,130.86,123.47,8
141,131.07,123.64,8
140,131.24,123.81,8
143,131.48,124.00,8
143,131.71,124.19,8
146,132.00,124.41,8
141,132.18,124.57,8
141,132.35,124.74,8
143,132.57,124.92,8
141,132.73,125.08,8
141,132.90,125.24,8
144,133.12,125.43,8
139,133.24,125.56,8
141,133.39,125.72,8
144,133.61,125.90,8
141,133.75,126.05,8
140,133.88,126.19,8
140,134.00,126.33,8
140,134.12,126.47,8
140,134.24,126.60,8
140,134.35,126.74,8
138,134.43,126.85,8
140,134.54,126.98,8
139,134.63,127.10,8
141,134.76,127.24,8
141,134.88,127.38,8
141,135.00,127.51,8
139,135.08,127.63,8
139,135.16,127.74,8
140,135.26,127.86,8
143,135.41,128.02,8
139,135.48,128.13,8
139,135.55,128.23,8
141,135.66,128.36,8
142,135.79,128.50,8
141,135.89,128.62,8
140,135.98,128.74,8
140,136.06,128.85,8
139,136.12,128.95,8
141,136.21,129.07,8
141,136.31,129.19,8
140,136.38,129.30,8
139,136.44,129.40,8
141,136.53,129.51,8
139,136.58,129.61,8
139,136.62,129.70,8
137,136.63,129.77,8
137,136.64,129.85,8
137,136.65,129.92,8
139,136.69,130.01,8
138,136.72,130.09,8
138,136.75,130.17,8
137,136.75,130.24,8
138,136.78,130.31,8
137,136.78,130.38,8
138,136.80,130.46,8
137,136.81,130.52,8
137,136.81,130.59,8
137,136.82,130.65,8
137,136.82,130.71,8
141,136.90,130.82,8
136,136.89,130.87,8
137,136.89,130.93,8
136,136.87,130.98,8
137,136.87,131.04,8
135,136.84,131.08,8
135,136.80,131.12,8
135,136.76,131.16,8
135,136.73,131.20,8
135,136.69,131.24,8
135,136.66,131.27,8
136,136.65,131.32,8
136,136.63,131.37,8
134,136.58,131.39,8
134,136.53,131.42,8
135,136.50,131.45,8
134,136.45,131.48,8
135,136.42,131.52,8
133,136.35,131.53,8
133,136.28,131.55,8
133,136.22,131.56,8
133,136.15,131.57,8
134,136.11,131.60,8
134,136.07,131.62,8
132,135.99,131.63,8
132,135.91,131.63,8
133,135.85,131.64,8
133,135.79,131.66,8
133,135.74,131.67,8
133,135.68,131.68,8
135,135.67,131.72,8
134,135.63,131.74,8
134,135.60,131.76,8
131,135.51,131.75,8
132,135.44,131.76,8
131,135.35,131.75,8
131,135.26,131.74,8
129,135.14,131.71,8
132,135.08,131.72,8
132,135.01,131.72,8
132,134.95,131.72,8
131,134.87,131.72,8
129,134.76,131.69,8
131,134.68,131.68,8
130,134.59,131.67,8
130,134.50,131.65,8
129,134.39,131.62,8
129,134.28,131.60,8
129,134.17,131.57,8
130,134.09,131.55,8
130,134.01,131.54,8
129,133.91,131.51,8
129,133.81,131.49,8
129,133.71,131.46,8
130,133.64,131.45,8
128,133.53,131.41,8
128,133.42,131.38,8
128,133.31,131.35,8
129,133.22,131.32,8
128,133.12,131.29,8
129,133.03,131.27,8
128,132.93,131.23,8
127,132.82,131.19,8
128,132.72,131.16,8
129,132.64,131.14,8
127,132.53,131.10,8
127,132.42,131.06,8
127,132.31,131.02,8
127,132.21,130.98,8
128,132.12,130.95,8
128,132.04,130.92,8
127,131.94,130.88,8
127,131.84,130.84,8
127,131.74,130.80,8
126,131.63,130.75,8
127,131.54,130.71,8
125,131.41,130.66,8
126,131.30,130.61,8
126,131.19,130.56,8
125,131.07,130.51,8
125,130.95,130.45,8
125,130.83,130.40,8
125,130.71,130.34,8
125,130.60,130.29,8
125,130.48,130.24,8
125,130.37,130.19,8
123,130.23,130.11,9
126,130.14,130.07,9
125,130.04,130.02,10
125,129.94,129.97,10
123,129.80,129.90,10
124,129.68,129.84,10
126,129.61,129.81,10
124,129.50,129.75,10
125,129.41,129.70,10
125,129.32,129.65,10
125,129.23,129.61,10
124,129.13,129.55,10
124,129.03,129.49,10
126,128.97,129.46,10
124,128.87,129.40,10
124,128.77,129.35,10
124,128.67,129.30,10
123,128.56,129.23,10
124,128.47,129.18,10
125,128.40,129.14,10
123,128.29,129.08,10
122,128.17,129.01,10
122,128.04,128.94,10
120,127.88,128.85,10
123,127.78,128.79,10
121,127.65,128.71,10
122,127.54,128.65,10
122,127.43,128.58,10
122,127.32,128.51,10
123,127.23,128.46,10
123,127.15,128.40,10
122,127.04,128.34,10
122,126.94,128.28,10
122,126.84,128.21,10
123,126.77,128.16,10
121,126.65,128.09,10
121,126.54,128.02,10
123,126.47,127.97,10
124,126.42,127.93,10
123,126.35,127.88,10
123,126.28,127.83,10
124,126.24,127.79,10
121,126.13,127.72,10
125,126.11,127.70,10
124,126.07,127.66,10
122,125.99,127.60,10
122,125.91,127.55,10
122,125.83,127.49,10
123,125.77,127.45,10
121,125.68,127.38,10
121,125.58,127.32,10
121,125.49,127.26,10
122,125.42,127.20,10
121,125.33,127.14,10
122,125.27,127.09,10
121,125.18,127.03,10
121,125.10,126.97,10
120,125.00,126.90,10
122,124.94,126.85,10
121,124.86,126.79,10
119,124.74,126.71,10
123,124.70,126.68,10
119,124.59,126.60,10
121,124.52,126.54,10
120,124.43,126.48,10
119,124.32,126.40,10
121,124.25,126.35,10
119,124.15,126.28,10
119,124.05,126.20,10
125,124.06,126.19,10
121,124.00,126.14,10
119,123.90,126.07,10
118,123.79,125.99,10
119,123.69,125.92,10
122,123.66,125.88,10
119,123.56,125.81,10
122,123.53,125.77,10
121,123.48,125.72,10
122,123.45,125.69,10
119,123.36,125.62,10
120,123.29,125.56,10
123,123.29,125.54,10
122,123.26,125.50,10
121,123.22,125.46,10
123,123.21,125.43,10
124,123.23,125.42,10
123,123.22,125.39,10
123,123.22,125.37,10
122,123.20,125.34,10
123,123.19,125.31,10
124,123.21,125.30,10
121,123.16,125.26,10
122,123.14,125.22,10
120,123.08,125.17,10
123,123.08,125.15,10
123,123.07,125.13,10
121,123.03,125.09,10
122,123.01,125.06,10
122,122.99,125.03,10
121,122.95,124.99,10
121,122.91,124.95,10
123,122.92,124.93,10
121,122.88,124.89,10
122,122.86,124.86,10
127,122.94,124.88,10
122,122.92,124.85,10
121,122.88,124.81,10
125,122.93,124.81,10
123,122.93,124.80,10
121,122.89,124.76,10
122,122.87,124.73,10
121,122.83,124.69,10
124,122.86,124.69,10
124,122.88,124.68,10
123,122.88,124.66,10
124,122.91,124.66,10
124,122.93,124.65,10
123,122.93,124.63,10
122,122.91,124.61,10
121,122.87,124.57,10
124,122.89,124.56,10
127,122.98,124.59,10
123,122.98,124.57,10
122,122.96,124.55,10
124,122.98,124.54,10
125,123.02,124.55,10
125,123.06,124.55,10
124,123.08,124.55,10
123,123.08,124.53,10
124,123.09,124.53,10
126,123.15,124.54,10
125,123.19,124.54,10
122,123.17,124.52,10
123,123.16,124.50,10
125,123.20,124.51,10
123,123.20,124.49,10
127,123.27,124.52,10
122,123.25,124.49,10
127,123.32,124.52,10
128,123.41,124.55,10
127,123.49,124.58,10
125,123.52,124.58,10
125,123.55,124.59,10
126,123.60,124.60,10
126,123.64,124.61,10
126,123.69,124.63,10
124,123.70,124.62,10
124,123.70,124.62,10
126,123.75,124.63,10
126,123.79,124.64,10
126,123.84,124.66,10
125,123.86,124.66,10
125,123.88,124.66,10
127,123.95,124.69,10
125,123.97,124.69,10
123,123.95,124.67,10
126,123.99,124.69,10
129,124.09,124.73,10
128,124.17,124.76,10
126,124.20,124.77,10
128,124.28,124.81,10
128,124.35,124.84,10
129,124.45,124.88,10
126,124.48,124.89,10
126,124.51,124.90,10
128,124.58,124.93,10
130,124.69,124.98,10
128,124.75,125.01,10
127,124.80,125.03,10
128,124.86,125.06,10
128,124.93,125.09,10
127,124.97,125.11,10
129,125.05,125.15,10
126,125.07,125.16,10
126,125.08,125.17,10
129,125.16,125.21,10
129,125.24,125.24,10
127,125.28,125.26,10
128,125.33,125.29,10
128,125.38,125.32,10
126,125.40,125.32,10
126,125.41,125.33,10
126,125.42,125.34,10
128,125.47,125.36,10
129,125.54,125.40,10
128,125.59,125.43,10
127,125.62,125.44,10
127,125.65,125.46,10
130,125.73,125.50,10
130,125.82,125.55,10
128,125.86,125.57,10
127,125.89,125.59,10
129,125.95,125.62,10
131,126.05,125.67,10
128,126.09,125.70,10
127,126.11,125.71,10
127,126.12,125.72,10
129,126.18,125.76,10
129,126.24,125.79,10
128,126.27,125.81,10
128,126.31,125.83,10
130,126.38,125.87,10
129,126.43,125.91,10
126,126.43,125.91,10
127,126.44,125.92,10
128,126.47,125.94,10
128,126.50,125.96,10
129,126.55,125.99,10
127,126.56,126.00,10
128,126.59,126.02,10
132,126.69,126.08,10
130,126.76,126.12,10
129,126.81,126.15,10
130,126.87,126.19,10
130,126.93,126.22,10
131,127.01,126.27,10
131,127.09,126.32,10
129,127.13,126.35,10
131,127.21,126.39,10
134,127.34,126.47,10
130,127.40,126.50,10
130,127.45,126.54,10
133,127.56,126.60,10
131,127.63,126.65,10
130,127.68,126.68,10
129,127.70,126.70,10
132,127.79,126.76,10
130,127.83,126.79,10
131,127.90,126.83,10
131,127.96,126.87,10
129,127.98,126.89,10
129,128.00,126.92,10
130,128.04,126.95,10
133,128.14,127.01,10
131,128.20,127.05,10
131,128.25,127.09,10
131,128.31,127.13,10
134,128.42,127.19,10
131,128.47,127.23,10
130,128.50,127.26,10
132,128.57,127.31,10
134,128.68,127.37,10
133,128.77,127.43,10
132,128.83,127.48,10
131,128.88,127.51,10
134,128.98,127.58,10
135,129.10,127.65,10
133,129.18,127.70,10
134,129.27,127.77,10
134,129.37,127.83,10
135,129.48,127.90,10
131,129.51,127.93,10
135,129.62,128.00,10
132,129.67,128.04,10
135,129.78,128.11,10
138,129.94,128.21,10
133,130.00,128.26,10
132,130.04,128.30,10
135,130.14,128.36,10
135,130.24,128.43,10
133,130.29,128.48,10
132,130.33,128.51,10
132,130.36,128.55,10
135,130.45,128.61,10
136,130.56,128.68,10
133,130.61,128.73,10
134,130.68,128.78,10
134,130.75,128.83,10
135,130.83,128.89,10
134,130.90,128.95,10
132,130.92,128.98,10
133,130.96,129.02,10
134,131.02,129.07,10
136,131.12,129.14,10
136,131.22,129.20,10
135,131.29,129.26,10
134,131.35,129.31,10
136,131.44,129.38,10
136,131.53,129.44,10
134,131.58,129.49,10
135,131.65,129.54,10
137,131.76,129.62,10
136,131.84,129.68,10
135,131.90,129.73,10
134,131.95,129.78,10
135,132.01,129.83,10
138,132.13,129.91,10
137,132.22,129.98,10
134,132.26,130.02,10
136,132.33,130.08,10
141,132.51,130.19,10
139,132.64,130.28,10
135,132.69,130.33,10
135,132.73,130.37,10
135,132.78,130.42,10
137,132.86,130.49,10
134,132.88,130.52,10
134,132.91,130.56,10
135,132.95,130.60,10
138,133.05,130.67,10
136,133.11,130.73,10
134,133.13,130.76,10
136,133.18,130.81,10
135,133.22,130.85,10
136,133.28,130.91,10
137,133.35,130.97,10
134,133.36,131.00,10
136,133.42,131.05,10
139,133.53,131.13,10
136,133.58,131.17,10
137,133.65,131.23,10
136,133.69,131.28,10
136,133.74,131.33,10
139,133.84,131.40,10
138,133.93,131.47,10
135,133.95,131.51,10
137,134.01,131.56,10
139,134.11,131.64,10
138,134.19,131.70,10
135,134.20,131.73,10
