Teste de posicionamento 1.1(EMG ao centro do bíceps (Verde A, Vermelho B) + Ref no pulso) - 19/10/2024 - teste10 - 5 contrações
long frequencia = 1000;                 //frequência de aquisição do sinal, neste caso, 1000 sinais por segundo
float fator1 = 0.02, fator2 = 0.01;
float incerteza = 0.13;
float pico_basal = 130; // Mínimo para ser considerado um pico de contração
int filtro_horizontal=200000; //intervalo de 200ms valores não pode ter mais de 1 contração

Biceps_D,mediaMovel_1,mediaMovel_2,Contracao
126,2.52,1.26,0
126,4.99,2.51,0
127,7.43,3.75,0
125,9.78,4.96,0
126,12.11,6.18,0
126,14.38,7.37,0
126,16.62,8.56,0
126,18.80,9.73,0
126,20.95,10.90,0
126,23.05,12.05,0
127,25.13,13.20,0
129,27.20,14.36,0
126,29.18,15.47,0
127,31.14,16.59,0
128,33.07,17.70,0
126,34.93,18.78,0
127,36.77,19.87,0
124,38.52,20.91,0
126,40.27,21.96,0
127,42.00,23.01,0
130,43.76,24.08,0
127,45.43,25.11,0
127,47.06,26.13,0
128,48.68,27.15,0
127,50.24,28.14,0
127,51.78,29.13,0
127,53.28,30.11,0
126,54.74,31.07,0
127,56.18,32.03,0
129,57.64,33.00,0
128,59.05,33.95,0
127,60.41,34.88,0
126,61.72,35.79,0
127,63.02,36.70,0
127,64.30,37.61,0
127,65.56,38.50,0
127,66.79,39.39,0
127,67.99,40.26,0
127,69.17,41.13,0
127,70.33,41.99,0
127,71.46,42.84,0
127,72.57,43.68,0
127,73.66,44.51,0
127,74.73,45.34,0
126,75.75,46.14,0
127,76.78,46.95,0
127,77.78,47.75,0
127,78.77,48.55,0
125,79.69,49.31,0
127,80.64,50.09,0
127,81.56,50.86,0
127,82.47,51.62,0
129,83.40,52.39,0
128,84.30,53.15,0
126,85.13,53.88,0
123,85.89,54.57,0
126,86.69,55.28,0
125,87.46,55.98,0
125,88.21,56.67,0
127,88.98,57.37,0
126,89.72,58.06,0
125,90.43,58.73,0
126,91.14,59.40,0
126,91.84,60.07,0
127,92.54,60.74,0
125,93.19,61.38,0
125,93.83,62.01,0
125,94.45,62.64,0
125,95.06,63.27,0
125,95.66,63.89,0
126,96.27,64.51,0
125,96.84,65.11,0
125,97.40,65.71,0
125,97.96,66.30,0
125,98.50,66.89,0
125,99.03,67.47,0
125,99.55,68.05,0
124,100.03,68.61,0
125,100.53,69.17,0
124,101.00,69.72,0
124,101.46,70.26,0
125,101.93,70.81,0
124,102.38,71.34,0
125,102.83,71.88,0
124,103.25,72.40,0
125,103.69,72.92,0
124,104.09,73.44,0
124,104.49,73.94,0
124,104.88,74.44,0
123,105.24,74.93,0
124,105.62,75.42,0
124,105.99,75.90,0
122,106.31,76.36,0
124,106.66,76.84,0
122,106.97,77.29,0
123,107.29,77.75,0
124,107.62,78.21,0
121,107.89,78.64,0
122,108.17,79.07,0
123,108.47,79.51,0
124,108.78,79.96,0
123,109.06,80.39,0
123,109.34,80.81,0
122,109.60,81.23,0
122,109.84,81.63,0
124,110.13,82.06,0
122,110.36,82.46,0
122,110.60,82.85,0
122,110.82,83.24,0
122,111.05,83.63,0
122,111.27,84.02,0
121,111.46,84.38,0
122,111.67,84.76,0
122,111.88,85.13,0
120,112.04,85.48,0
121,112.22,85.84,0
121,112.40,86.19,0
121,112.57,86.54,0
120,112.72,86.87,0
121,112.88,87.21,0
121,113.05,87.55,0
120,113.18,87.88,0
120,113.32,88.20,0
122,113.49,88.53,0
120,113.62,88.85,0
123,113.81,89.19,0
120,113.94,89.50,0
121,114.08,89.81,0
120,114.20,90.12,0
121,114.33,90.42,0
120,114.44,90.72,0
120,114.56,91.01,0
120,114.66,91.30,0
120,114.77,91.59,0
120,114.88,91.87,0
120,114.98,92.16,0
120,115.08,92.43,0
122,115.22,92.73,0
120,115.31,93.00,0
119,115.39,93.26,0
120,115.48,93.53,0
120,115.57,93.79,0
120,115.66,94.06,0
119,115.72,94.31,0
119,115.79,94.55,0
121,115.89,94.82,0
119,115.96,95.06,0
119,116.02,95.30,0
119,116.08,95.54,0
118,116.12,95.76,0
118,116.15,95.98,0
118,116.19,96.20,0
118,116.23,96.42,0
118,116.26,96.64,0
118,116.30,96.85,0
118,116.33,97.06,0
118,116.36,97.27,0
117,116.38,97.47,0
118,116.41,97.67,0
118,116.44,97.88,0
118,116.47,98.08,0
118,116.50,98.28,0
116,116.49,98.45,0
119,116.54,98.66,0
118,116.57,98.85,0
118,116.60,99.04,0
118,116.63,99.23,0
118,116.66,99.42,0
118,116.68,99.61,0
117,116.69,99.78,0
116,116.68,99.94,0
117,116.68,100.11,0
117,116.69,100.28,0
118,116.71,100.46,0
117,116.72,100.63,0
117,116.73,100.79,0
117,116.73,100.95,0
117,116.74,101.11,0
117,116.74,101.27,0
116,116.73,101.42,0
117,116.73,101.57,0
116,116.72,101.72,0
116,116.70,101.86,0
115,116.67,101.99,0
117,116.68,102.14,0
115,116.64,102.27,0
116,116.63,102.41,0
115,116.60,102.53,0
115,116.57,102.66,0
115,116.53,102.78,0
115,116.50,102.90,0
115,116.47,103.03,0
115,116.44,103.15,0
115,116.41,103.26,0
116,116.41,103.39,0
115,116.38,103.51,0
115,116.35,103.62,0
115,116.32,103.74,0
115,116.30,103.85,0
116,116.29,103.97,0
114,116.25,104.07,0
115,116.22,104.18,0
115,116.20,104.29,0
115,116.17,104.40,0
114,116.13,104.49,0
115,116.11,104.60,0
113,116.04,104.68,0
115,116.02,104.78,0
113,115.96,104.87,0
114,115.92,104.96,0
113,115.87,105.04,0
116,115.87,105.15,0
113,115.81,105.23,0
113,115.75,105.30,0
113,115.70,105.38,0
113,115.65,105.46,0
115,115.63,105.55,0
114,115.60,105.64,0
113,115.55,105.71,0
113,115.50,105.78,0
113,115.45,105.86,0
113,115.40,105.93,0
113,115.35,106.00,0
113,115.30,106.07,0
113,115.26,106.14,0
113,115.21,106.21,0
114,115.19,106.28,0
113,115.14,106.35,0
113,115.10,106.42,0
113,115.06,106.48,0
113,115.02,106.55,0
113,114.98,106.61,0
113,114.94,106.68,0
113,114.90,106.74,0
114,114.88,106.81,0
114,114.86,106.88,0
114,114.85,106.96,0
113,114.81,107.02,0
113,114.77,107.08,0
115,114.78,107.15,0
113,114.74,107.21,0
113,114.71,107.27,0
113,114.67,107.33,0
113,114.64,107.39,0
113,114.61,107.44,0
117,114.65,107.54,0
113,114.62,107.59,0
113,114.59,107.65,0
113,114.56,107.70,0
113,114.53,107.75,0
114,114.52,107.81,0
112,114.47,107.86,0
112,114.42,107.90,0
112,114.37,107.94,0
113,114.34,107.99,0
112,114.29,108.03,0
113,114.27,108.08,0
112,114.22,108.12,0
113,114.20,108.17,0
113,114.17,108.22,0
113,114.15,108.26,0
110,114.07,108.28,0
111,114.01,108.31,0
111,113.95,108.33,0
111,113.89,108.36,0
111,113.83,108.39,0
111,113.77,108.41,0
111,113.72,108.44,0
111,113.66,108.47,0
111,113.61,108.49,0
111,113.56,108.52,0
111,113.51,108.54,0
111,113.46,108.57,0
111,113.41,108.59,0
111,113.36,108.61,0
111,113.31,108.64,0
111,113.27,108.66,0
112,113.24,108.69,0
111,113.20,108.72,0
111,113.15,108.74,0
111,113.11,108.76,0
112,113.09,108.80,0
111,113.04,108.82,0
111,113.00,108.84,0
115,113.04,108.90,0
111,113.00,108.92,0
112,112.98,108.95,0
111,112.94,108.97,0
111,112.90,108.99,0
112,112.89,109.02,0
111,112.85,109.04,0
110,112.79,109.05,0
112,112.78,109.08,0
111,112.74,109.10,0
111,112.71,109.12,0
109,112.63,109.12,0
111,112.60,109.14,0
111,112.57,109.16,0
111,112.54,109.18,0
111,112.50,109.19,0
111,112.47,109.21,0
111,112.45,109.23,0
110,112.40,109.24,0
110,112.35,109.24,0
109,112.28,109.24,0
111,112.26,109.26,0
111,112.23,109.28,0
111,112.21,109.29,0
111,112.18,109.31,0
110,112.14,109.32,0
111,112.12,109.34,0
111,112.09,109.35,0
109,112.03,109.35,0
112,112.03,109.37,0
110,111.99,109.38,0
111,111.97,109.40,0
111,111.95,109.41,0
110,111.91,109.42,0
111,111.89,109.44,0
110,111.86,109.44,0
110,111.82,109.45,0
110,111.78,109.45,0
109,111.73,109.45,0
109,111.67,109.44,0
111,111.66,109.46,0
109,111.61,109.45,0
111,111.59,109.47,0
109,111.54,109.46,0
109,111.49,109.46,0
109,111.44,109.46,0
109,111.39,109.45,0
108,111.32,109.44,0
108,111.26,109.42,0
108,111.19,109.41,0
107,111.11,109.38,0
109,111.07,109.38,0
108,111.01,109.37,0
108,110.95,109.35,0
107,110.87,109.33,0
107,110.79,109.31,0
107,110.71,109.28,0
109,110.68,109.28,0
107,110.61,109.26,0
107,110.53,109.23,0
107,110.46,109.21,0
108,110.41,109.20,0
107,110.34,109.18,0
107,110.28,109.16,0
107,110.21,109.13,0
107,110.15,109.11,0
107,110.09,109.09,0
105,109.98,109.05,0
108,109.94,109.04,0
107,109.89,109.02,0
107,109.83,109.00,0
103,109.69,108.94,0
109,109.68,108.94,0
107,109.62,108.92,0
109,109.61,108.92,0
108,109.58,108.91,0
109,109.57,108.91,0
107,109.52,108.89,0
109,109.51,108.90,0
109,109.50,108.90,0
108,109.47,108.89,0
109,109.46,108.89,0
109,109.45,108.89,0
109,109.44,108.89,0
110,109.45,108.90,0
109,109.44,108.90,0
109,109.43,108.90,0
109,109.42,108.90,0
109,109.41,108.91,0
109,109.41,108.91,0
109,109.40,108.91,0
109,109.39,108.91,0
110,109.40,108.92,0
108,109.37,108.91,0
108,109.35,108.90,0
110,109.36,108.91,0
109,109.35,108.91,0
109,109.35,108.91,0
109,109.34,108.91,0
108,109.31,108.91,0
110,109.33,108.92,0
109,109.32,108.92,0
109,109.31,108.92,0
109,109.31,108.92,0
109,109.30,108.92,0
109,109.29,108.92,0
109,109.29,108.92,0
109,109.28,108.92,0
109,109.28,108.92,0
109,109.27,108.92,0
112,109.33,108.95,0
109,109.32,108.96,0
109,109.31,108.96,0
109,109.31,108.96,0
109,109.30,108.96,0
109,109.29,108.96,0
109,109.29,108.96,0
110,109.30,108.97,0
109,109.30,108.97,0
109,109.29,108.97,0
109,109.29,108.97,0
109,109.28,108.97,0
109,109.27,108.97,0
109,109.27,108.97,0
110,109.28,108.98,0
110,109.30,108.99,0
107,109.25,108.97,0
111,109.29,108.99,0
111,109.32,109.01,0
111,109.35,109.03,0
111,109.39,109.05,0
111,109.42,109.07,0
111,109.45,109.09,0
113,109.52,109.13,0
112,109.57,109.16,0
112,109.62,109.19,0
113,109.69,109.22,0
113,109.75,109.26,0
113,109.82,109.30,0
113,109.88,109.34,0
114,109.97,109.38,0
114,110.05,109.43,0
115,110.14,109.48,0
114,110.22,109.53,0
115,110.32,109.58,0
113,110.37,109.62,0
113,110.42,109.65,0
113,110.48,109.69,0
115,110.57,109.74,0
114,110.63,109.78,0
114,110.70,109.82,0
115,110.79,109.88,0
114,110.85,109.92,0
115,110.93,109.97,0
115,111.02,110.02,0
113,111.06,110.05,0
114,111.11,110.09,0
114,111.17,110.13,0
114,111.23,110.16,0
115,111.30,110.21,0
115,111.38,110.26,0
116,111.47,110.32,0
113,111.50,110.35,0
116,111.59,110.40,0
116,111.68,110.46,0
120,111.85,110.55,0
117,111.95,110.62,0
117,112.05,110.68,0
117,112.15,110.74,0
117,112.25,110.81,0
119,112.38,110.89,0
117,112.47,110.95,0
118,112.58,111.02,0
118,112.69,111.09,0
117,112.78,111.15,0
118,112.88,111.22,0
119,113.01,111.30,0
118,113.11,111.36,0
119,113.22,111.44,0
120,113.36,111.52,0
119,113.47,111.60,0
119,113.58,111.67,0
119,113.69,111.75,0
119,113.80,111.82,0
119,113.90,111.89,0
119,114.00,111.96,0
119,114.10,112.03,0
120,114.22,112.11,0
121,114.36,112.20,0
120,114.47,112.28,0
119,114.56,112.35,0
121,114.69,112.43,0
120,114.79,112.51,0
121,114.92,112.59,0
121,115.04,112.68,0
122,115.18,112.77,0
121,115.30,112.85,0
122,115.43,112.94,0
123,115.58,113.05,0
123,115.73,113.14,0
124,115.90,113.25,0
124,116.06,113.36,0
124,116.22,113.47,0
123,116.35,113.56,0
124,116.50,113.67,0
124,116.65,113.77,0
124,116.80,113.87,0
124,116.95,113.97,0
123,117.07,114.06,0
123,117.19,114.15,0
125,117.34,114.26,0
124,117.47,114.36,0
123,117.59,114.45,0
124,117.71,114.54,0
124,117.84,114.64,0
124,117.96,114.73,0
123,118.06,114.81,0
125,118.20,114.91,0
124,118.32,115.00,0
125,118.45,115.10,0
123,118.54,115.18,0
125,118.67,115.28,0
125,118.80,115.38,0
125,118.92,115.48,0
125,119.04,115.57,0
125,119.16,115.66,0
124,119.26,115.75,0
125,119.37,115.84,0
125,119.49,115.93,0
125,119.60,116.02,0
125,119.71,116.11,0
127,119.85,116.22,0
126,119.97,116.32,0
127,120.11,116.43,0
127,120.25,116.53,0
127,120.39,116.64,0
127,120.52,116.74,0
128,120.67,116.85,0
128,120.82,116.96,0
128,120.96,117.07,0
129,121.12,117.19,0
129,121.28,117.31,0
129,121.43,117.43,0
129,121.58,117.54,0
129,121.73,117.66,0
129,121.88,117.77,0
130,122.04,117.89,0
129,122.18,118.01,0
129,122.32,118.12,0
128,122.43,118.21,0
129,122.56,118.32,0
129,122.69,118.43,0
129,122.82,118.54,0
130,122.96,118.65,0
130,123.10,118.76,0
130,123.24,118.88,0
129,123.35,118.98,0
130,123.49,119.09,0
130,123.62,119.20,0
134,123.82,119.34,0
132,123.99,119.47,0
132,124.15,119.60,0
131,124.29,119.71,0
133,124.46,119.84,0
133,124.63,119.97,0
133,124.80,120.10,0
133,124.96,120.23,0
133,125.12,120.36,0
134,125.30,120.50,0
136,125.51,120.65,0
135,125.70,120.80,0
136,125.91,120.95,0
137,126.13,121.11,0
137,126.35,121.27,0
139,126.60,121.45,0
136,126.79,121.59,0
139,127.03,121.76,0
139,127.27,121.94,0
140,127.53,122.12,0
139,127.76,122.29,0
140,128.00,122.46,0
140,128.24,122.64,0
139,128.46,122.80,0
140,128.69,122.97,0
140,128.91,123.14,0
141,129.16,123.32,0
141,129.39,123.50,0
142,129.65,123.69,0
141,129.87,123.86,0
143,130.13,124.05,0
143,130.39,124.24,0
143,130.64,124.43,0
143,130.89,124.61,0
142,131.11,124.79,0
143,131.35,124.97,0
145,131.62,125.17,0
145,131.89,125.37,0
145,132.15,125.56,0
144,132.39,125.75,0
146,132.66,125.95,0
148,132.97,126.17,0
147,133.25,126.38,0
148,133.55,126.60,0
148,133.83,126.81,0
148,134.12,127.02,0
147,134.38,127.22,0
149,134.67,127.44,0
150,134.97,127.66,0
152,135.32,127.91,0
151,135.63,128.14,0
152,135.96,128.38,0
153,136.30,128.62,0
153,136.63,128.87,0
153,136.96,129.11,0
156,137.34,129.38,0
157,137.73,129.65,0
159,138.16,129.95,0
159,138.57,130.24,0
161,139.02,130.55,0
161,139.46,130.85,0
161,139.89,131.15,0
161,140.32,131.45,0
161,140.73,131.75,0
161,141.13,132.04,0
161,141.53,132.33,0
162,141.94,132.62,0
161,142.32,132.91,0
163,142.74,133.21,0
165,143.18,133.53,0
168,143.68,133.87,0
167,144.14,134.20,0
167,144.60,134.53,0
169,145.09,134.88,0
171,145.61,135.24,0
171,146.12,135.59,0
172,146.63,135.96,0
173,147.16,136.33,0
172,147.66,136.69,0
172,148.14,137.04,0
173,148.64,137.40,0
173,149.13,137.75,0
174,149.63,138.12,0
176,150.15,138.50,0
177,150.69,138.88,0
179,151.26,139.28,0
181,151.85,139.70,0
181,152.43,140.11,0
181,153.01,140.52,0
184,153.63,140.96,0
186,154.27,141.41,0
189,154.97,141.88,0
189,155.65,142.35,0
188,156.30,142.81,0
189,156.95,143.27,0
189,157.59,143.73,0
190,158.24,144.19,0
189,158.85,144.64,0
189,159.46,145.08,0
192,160.11,145.55,0
192,160.75,146.02,0
191,161.35,146.47,0
193,161.98,146.93,0
193,162.60,147.39,0
193,163.21,147.85,0
193,163.81,148.30,0
194,164.41,148.76,0
193,164.98,149.20,0
193,165.54,149.64,0
193,166.09,150.07,0
194,166.65,150.51,0
195,167.22,150.96,0
196,167.79,151.41,0
199,168.42,151.88,0
199,169.03,152.35,0
198,169.61,152.81,0
198,170.18,153.26,0
198,170.73,153.71,0
201,171.34,154.18,0
203,171.97,154.67,0
205,172.63,155.17,0
207,173.32,155.69,0
207,173.99,156.20,0
209,174.69,156.73,0
210,175.40,157.27,0
211,176.11,157.80,0
211,176.81,158.33,0
211,177.49,158.86,0
213,178.20,159.40,0
213,178.90,159.94,0
213,179.58,160.47,0
215,180.29,161.01,0
219,181.06,161.59,0
220,181.84,162.18,0
221,182.63,162.77,0
219,183.35,163.33,0
219,184.07,163.89,0
222,184.82,164.47,0
223,185.59,165.05,0
223,186.34,165.63,0
225,187.11,166.23,0
225,187.87,166.81,0
225,188.61,167.40,0
228,189.40,168.00,0
227,190.15,168.59,0
228,190.91,169.19,0
228,191.65,169.77,0
227,192.36,170.35,0
228,193.07,170.92,0
231,193.83,171.52,0
227,194.49,172.08,0
229,195.18,172.65,0
227,195.82,173.19,0
227,196.44,173.73,0
228,197.07,174.27,0
227,197.67,174.80,0
229,198.30,175.34,0
228,198.89,175.87,0
228,199.47,176.39,0
229,200.06,176.91,0
231,200.68,177.46,0
230,201.27,177.98,0
231,201.86,178.51,0
232,202.47,179.05,0
232,203.06,179.58,0
232,203.64,180.10,0
236,204.28,180.66,0
236,204.92,181.21,0
239,205.60,181.79,0
239,206.27,182.36,0
239,206.92,182.93,0
238,207.54,183.48,0
238,208.15,184.02,0
238,208.75,184.56,0
237,209.31,185.09,0
237,209.87,185.61,0
237,210.41,186.12,0
238,210.96,186.64,0
239,211.52,187.16,0
239,212.07,187.68,0
239,212.61,188.20,0
239,213.14,188.70,0
241,213.70,189.23,0
241,214.24,189.74,0
241,214.78,190.26,0
241,215.30,190.76,0
241,215.82,191.27,0
244,216.38,191.79,0
244,216.93,192.32,0
245,217.49,192.84,0
244,218.02,193.35,0
246,218.58,193.88,0
248,219.17,194.42,0
247,219.73,194.95,0
250,220.33,195.50,0
250,220.93,196.04,0
251,221.53,196.59,0
251,222.12,197.14,0
253,222.74,197.70,0
255,223.38,198.27,0
257,224.05,198.86,0
256,224.69,199.43,0
257,225.34,200.00,0
259,226.01,200.59,0
264,226.77,201.23,0
260,227.44,201.82,0
259,228.07,202.39,0
260,228.71,202.96,0
261,229.35,203.54,0
261,229.98,204.12,0
261,230.61,204.69,0
261,231.21,205.25,0
261,231.81,205.81,0
261,232.39,206.36,0
260,232.94,206.90,0
260,233.49,207.43,0
261,234.04,207.96,0
261,234.58,208.49,0
260,235.08,209.01,0
260,235.58,209.52,0
260,236.07,210.02,0
261,236.57,210.53,0
260,237.04,211.03,0
260,237.50,211.52,0
260,237.95,212.00,0
260,238.39,212.48,0
260,238.82,212.96,0
259,239.22,213.42,0
259,239.62,213.87,0
258,239.99,214.31,0
258,240.35,214.75,0
257,240.68,215.17,0
257,241.01,215.59,0
257,241.33,216.01,0
257,241.64,216.42,0
256,241.93,216.81,0
257,242.23,217.21,0
256,242.50,217.60,0
257,242.79,218.00,0
255,243.04,218.37,0
255,243.28,218.73,0
254,243.49,219.08,0
256,243.74,219.45,0
253,243.93,219.79,0
253,244.11,220.12,0
253,244.29,220.45,0
252,244.44,220.77,0
253,244.61,221.09,0
252,244.76,221.40,0
252,244.90,221.70,0
251,245.03,222.00,0
251,245.15,222.29,0
251,245.26,222.57,0
252,245.40,222.87,0
249,245.47,223.13,0
250,245.56,223.40,0
249,245.63,223.65,0
249,245.70,223.91,0
249,245.76,224.16,0
247,245.79,224.39,0
247,245.81,224.61,0
247,245.84,224.84,0
247,245.86,225.06,0
246,245.86,225.27,0
247,245.88,225.49,0
246,245.89,225.69,0
246,245.89,225.89,0
245,245.87,226.08,0
245,245.85,226.27,0
243,245.80,226.44,0
245,245.78,226.63,0
244,245.75,226.80,0
244,245.71,226.97,0
245,245.70,227.15,0
243,245.64,227.31,0
243,245.59,227.47,0
242,245.52,227.61,0
242,245.45,227.76,0
242,245.38,227.90,0
242,245.31,228.04,0
241,245.22,228.17,0
242,245.16,228.31,0
242,245.10,228.45,0
241,245.01,228.57,0
240,244.91,228.69,0
241,244.84,228.81,0
239,244.72,228.91,0
241,244.65,229.03,0
239,244.53,229.13,0
239,244.42,229.23,0
237,244.27,229.31,0
239,244.17,229.40,0
237,244.02,229.48,0
237,243.88,229.56,0
237,243.75,229.63,0
237,243.61,229.70,0
237,243.48,229.78,0
236,243.33,229.84,0
239,243.24,229.93,0
235,243.08,229.98,0
235,242.92,230.03,0
235,242.76,230.08,0
236,242.62,230.14,0
233,242.43,230.17,0
233,242.24,230.20,0
233,242.06,230.22,0
232,241.86,230.24,0
232,241.66,230.26,0
233,241.49,230.29,0
232,241.30,230.30,0
231,241.09,230.31,0
231,240.89,230.32,0
231,240.69,230.33,0
232,240.52,230.34,0
228,240.27,230.32,0
231,240.08,230.33,0
231,239.90,230.33,0
231,239.72,230.34,0
230,239.53,230.34,0
230,239.34,230.33,0
229,239.13,230.32,0
230,238.95,230.32,0
229,238.75,230.30,0
230,238.57,230.30,0
229,238.38,230.29,0
229,238.19,230.27,0
229,238.01,230.26,0
228,237.81,230.24,0
228,237.61,230.22,0
227,237.40,230.18,0
228,237.21,230.16,0
227,237.01,230.13,0
227,236.81,230.10,0
227,236.61,230.07,0
227,236.42,230.04,0
227,236.23,230.01,0
228,236.07,229.99,0
226,235.87,229.95,0
225,235.65,229.90,0
225,235.44,229.85,0
227,235.27,229.82,0
225,235.06,229.77,0
225,234.86,229.72,0
225,234.66,229.68,0
224,234.45,229.62,0
224,234.24,229.56,0
223,234.02,229.50,0
223,233.80,229.43,0
222,233.56,229.36,0
223,233.35,229.30,0
222,233.12,229.22,0
222,232.90,229.15,0
221,232.66,229.07,0
222,232.45,229.00,0
221,232.22,228.92,0
221,232.00,228.84,0
221,231.78,228.76,0
221,231.56,228.68,0
221,231.35,228.61,0
219,231.10,228.51,0
219,230.86,228.42,0
219,230.62,228.32,0
219,230.39,228.23,0
218,230.14,228.13,0
217,229.88,228.01,0
217,229.62,227.90,0
217,229.37,227.80,0
217,229.12,227.69,0
217,228.88,227.58,0
216,228.62,227.46,0
215,228.35,227.34,0
215,228.08,227.22,0
216,227.84,227.10,0
215,227.58,226.98,0
213,227.29,226.84,0
213,227.01,226.70,0
214,226.75,226.58,0
213,226.47,226.44,1
214,226.22,226.32,1
213,225.96,226.18,1
212,225.68,226.04,1
213,225.42,225.91,1
212,225.16,225.77,1
213,224.91,225.65,1
212,224.65,225.51,1
212,224.40,225.37,1
211,224.13,225.23,1
211,223.87,225.09,1
210,223.59,224.94,1
210,223.32,224.79,1
210,223.06,224.64,1
209,222.77,224.48,1
212,222.56,224.36,1
209,222.29,224.20,1
209,222.02,224.05,1
208,221.74,223.89,1
208,221.47,223.73,1
208,221.20,223.58,1
208,220.93,223.42,1
207,220.65,223.26,1
207,220.38,223.09,1
207,220.11,222.93,1
206,219.83,222.76,1
206,219.56,222.60,1
206,219.28,222.43,1
205,219.00,222.26,1
205,218.72,222.08,1
205,218.44,221.91,1
205,218.18,221.74,1
205,217.91,221.58,1
204,217.63,221.40,1
204,217.36,221.23,1
204,217.09,221.05,1
204,216.83,220.88,1
203,216.56,220.70,1
203,216.28,220.53,1
203,216.02,220.35,1
203,215.76,220.18,1
203,215.50,220.01,1
203,215.25,219.84,1
202,214.99,219.66,1
203,214.75,219.49,1
201,214.47,219.31,1
201,214.20,219.12,1
201,213.94,218.94,1
201,213.68,218.76,1
200,213.41,218.58,1
201,213.16,218.40,1
201,212.92,218.23,1
200,212.66,218.04,1
200,212.40,217.86,1
200,212.16,217.68,1
200,211.91,217.51,1
199,211.65,217.32,1
199,211.40,217.14,1
199,211.15,216.96,1
199,210.91,216.78,1
198,210.65,216.59,1
197,210.38,216.39,1
197,210.11,216.20,1
197,209.85,216.01,1
197,209.59,215.82,1
198,209.36,215.64,1
197,209.11,215.45,1
197,208.87,215.27,1
197,208.63,215.09,1
196,208.38,214.90,1
199,208.19,214.74,1
196,207.95,214.55,1
197,207.73,214.37,1
196,207.50,214.19,1
196,207.27,214.01,1
195,207.02,213.82,1
197,206.82,213.65,1
196,206.60,213.47,1
197,206.41,213.31,1
196,206.20,213.14,1
195,205.98,212.95,1
195,205.76,212.77,1
194,205.52,212.59,1
195,205.31,212.41,1
195,205.11,212.24,1
194,204.89,212.05,1
192,204.63,211.85,1
194,204.42,211.68,1
193,204.19,211.49,1
193,203.96,211.30,1
193,203.74,211.12,1
193,203.53,210.94,1
192,203.30,210.75,1
192,203.07,210.56,1
192,202.85,210.38,1
192,202.63,210.19,1
191,202.40,210.00,1
192,202.19,209.82,1
191,201.97,209.63,1
192,201.77,209.46,1
191,201.56,209.27,1
191,201.34,209.09,1
191,201.14,208.91,1
190,200.91,208.72,1
191,200.72,208.54,1
190,200.50,208.36,1
189,200.27,208.16,1
189,200.05,207.97,1
189,199.83,207.78,1
188,199.59,207.58,1
188,199.36,207.39,1
188,199.13,207.19,1
188,198.91,207.00,1
187,198.67,206.80,1
189,198.48,206.62,1
187,198.25,206.43,1
187,198.02,206.23,1
187,197.80,206.04,1
187,197.58,205.85,1
187,197.37,205.66,1
187,197.17,205.48,1
186,196.94,205.28,1
186,196.72,205.09,1
187,196.53,204.91,1
185,196.30,204.71,1
189,196.15,204.55,1
185,195.93,204.36,1
185,195.71,204.16,1
185,195.50,203.97,1
185,195.29,203.78,1
184,195.06,203.58,1
185,194.86,203.40,1
185,194.66,203.21,1
183,194.43,203.01,1
184,194.22,202.82,1
183,194.00,202.62,1
184,193.80,202.44,1
183,193.58,202.24,1
183,193.37,202.05,1
183,193.16,201.86,1
183,192.96,201.67,1
183,192.76,201.48,1
183,192.56,201.30,1
182,192.35,201.11,1
183,192.17,200.93,1
183,191.98,200.75,1
183,191.80,200.57,1
182,191.61,200.38,1
181,191.39,200.19,1
181,191.19,200.00,1
181,190.98,199.81,1
181,190.78,199.62,1
181,190.59,199.43,1
181,190.40,199.25,1
180,190.19,199.06,1
181,190.00,198.88,1
180,189.80,198.69,1
181,189.63,198.51,1
179,189.42,198.31,1
180,189.23,198.13,1
180,189.04,197.95,1
180,188.86,197.77,1
180,188.68,197.59,1
180,188.51,197.42,1
179,188.32,197.23,1
179,188.13,197.05,1
177,187.91,196.85,1
178,187.71,196.66,1
179,187.54,196.49,1
178,187.35,196.30,1
177,187.14,196.11,1
177,186.94,195.92,1
177,186.74,195.73,1
176,186.52,195.53,1
177,186.33,195.34,1
176,186.13,195.15,1
176,185.93,194.96,1
176,185.73,194.77,1
176,185.53,194.58,1
175,185.32,194.39,1
176,185.14,194.20,1
176,184.95,194.02,1
176,184.77,193.84,1
176,184.60,193.66,1
175,184.41,193.48,1
175,184.22,193.29,1
175,184.03,193.11,1
175,183.85,192.93,1
175,183.68,192.75,1
175,183.50,192.57,1
175,183.33,192.39,1
175,183.17,192.22,1
175,183.00,192.05,1
175,182.84,191.88,1
174,182.67,191.70,1
174,182.49,191.52,1
173,182.30,191.34,1
175,182.16,191.17,1
173,181.97,190.99,1
173,181.79,190.81,1
173,181.62,190.63,1
172,181.43,190.45,1
172,181.24,190.26,1
172,181.05,190.08,1
172,180.87,189.90,1
171,180.67,189.71,1
172,180.50,189.53,1
171,180.31,189.35,1
171,180.12,189.16,1
170,179.92,188.97,1
170,179.72,188.78,1
170,179.53,188.60,1
171,179.36,188.42,1
169,179.15,188.23,1
170,178.97,188.04,1
169,178.77,187.85,1
169,178.57,187.66,1
169,178.38,187.48,1
170,178.21,187.30,1
173,178.11,187.16,1
169,177.93,186.98,1
168,177.73,186.79,1
168,177.53,186.60,1
169,177.36,186.42,1
168,177.18,186.24,1
168,176.99,186.06,1
168,176.81,185.88,1
169,176.66,185.71,1
169,176.50,185.54,1
170,176.37,185.39,1
169,176.23,185.22,1
169,176.08,185.06,1
169,175.94,184.90,1
168,175.78,184.73,1
169,175.65,184.57,1
166,175.45,184.39,1
169,175.32,184.23,1
168,175.18,184.07,1
168,175.03,183.91,1
168,174.89,183.75,1
168,174.76,183.59,1
167,174.60,183.43,1
167,174.45,183.26,1
167,174.30,183.10,1
168,174.17,182.95,1
167,174.03,182.79,1
166,173.87,182.62,1
166,173.71,182.46,1
167,173.58,182.30,1
167,173.45,182.15,1
167,173.32,182.00,1
166,173.17,181.84,1
166,173.03,181.68,1
165,172.87,181.51,1
166,172.73,181.36,1
166,172.59,181.20,1
165,172.44,181.04,1
166,172.31,180.89,1
165,172.17,180.73,1
165,172.02,180.57,1
165,171.88,180.42,1
165,171.75,180.26,1
163,171.57,180.09,1
165,171.44,179.94,1
164,171.29,179.78,1
164,171.15,179.62,1
163,170.98,179.46,1
165,170.86,179.31,1
163,170.71,179.15,1
163,170.55,178.99,1
164,170.42,178.84,1
163,170.27,178.68,1
162,170.11,178.51,1
163,169.96,178.36,1
159,169.75,178.16,1
162,169.59,178.00,1
163,169.46,177.85,1
161,169.29,177.68,1
163,169.16,177.54,1
162,169.02,177.38,1
161,168.86,177.22,1
164,168.76,177.09,1
163,168.65,176.95,1
162,168.51,176.80,1
162,168.38,176.65,1
161,168.24,176.49,1
161,168.09,176.34,1
161,167.95,176.18,1
161,167.81,176.03,1
159,167.63,175.86,1
160,167.48,175.70,1
161,167.35,175.56,1
160,167.21,175.40,1
160,167.06,175.25,1
160,166.92,175.09,1
161,166.80,174.95,1
159,166.65,174.79,1
160,166.51,174.64,1
159,166.36,174.49,1
161,166.26,174.35,1
159,166.11,174.20,1
159,165.97,174.05,1
159,165.83,173.90,1
159,165.69,173.75,1
158,165.54,173.59,1
158,165.39,173.44,1
158,165.24,173.28,1
158,165.09,173.13,1
157,164.93,172.97,1
157,164.77,172.81,1
157,164.62,172.65,1
157,164.47,172.49,1
157,164.32,172.34,1
157,164.17,172.18,1
158,164.05,172.04,1
157,163.91,171.89,1
158,163.79,171.75,1
157,163.65,171.61,1
157,163.52,171.46,1
157,163.39,171.31,1
157,163.26,171.17,1
157,163.14,171.03,1
157,163.01,170.89,1
157,162.89,170.75,1
157,162.78,170.61,1
157,162.66,170.48,1
157,162.55,170.34,1
157,162.44,170.21,1
157,162.33,170.08,1
155,162.18,169.93,1
156,162.06,169.79,1
157,161.96,169.66,1
156,161.84,169.52,1
156,161.72,169.39,1
156,161.61,169.25,1
156,161.49,169.12,1
156,161.38,168.99,1
156,161.28,168.86,1
155,161.15,168.72,1
155,161.03,168.58,1
155,160.91,168.45,1
155,160.79,168.31,1
156,160.69,168.19,1
156,160.60,168.07,1
155,160.49,167.94,1
155,160.38,167.81,1
156,160.29,167.69,1
155,160.18,167.56,1
156,160.10,167.45,1
155,160.00,167.32,1
156,159.92,167.21,1
156,159.84,167.10,1
156,159.76,166.99,1
155,159.67,166.87,1
156,159.59,166.76,1
156,159.52,166.65,1
155,159.43,166.53,1
156,159.36,166.43,1
155,159.28,166.31,1
155,159.19,166.20,1
155,159.11,166.09,1
155,159.02,165.98,1
155,158.94,165.87,1
156,158.89,165.77,1
155,158.81,165.66,1
157,158.77,165.58,1
156,158.72,165.48,1
156,158.66,165.39,1
158,158.65,165.31,1
156,158.60,165.22,1
156,158.54,165.13,1
156,158.49,165.04,1
156,158.44,164.94,1
156,158.39,164.86,1
156,158.35,164.77,1
155,158.28,164.67,1
155,158.21,164.57,1
155,158.15,164.48,1
155,158.09,164.38,1
155,158.02,164.29,1
156,157.98,164.21,1
155,157.92,164.11,1
153,157.83,164.00,1
153,157.73,163.89,1
154,157.66,163.79,1
155,157.60,163.71,1
156,157.57,163.63,1
155,157.52,163.54,1
154,157.45,163.45,1
153,157.36,163.34,1
153,157.27,163.24,1
153,157.19,163.14,1
153,157.10,163.03,1
153,157.02,162.93,1
153,156.94,162.84,1
153,156.86,162.74,1
153,156.78,162.64,1
153,156.71,162.54,1
152,156.61,162.44,1
152,156.52,162.33,1
152,156.43,162.23,1
153,156.36,162.14,1
151,156.26,162.03,1
152,156.17,161.93,1
151,156.07,161.82,1
151,155.97,161.71,1
152,155.89,161.61,1
151,155.79,161.51,1
151,155.69,161.40,1
151,155.60,161.30,1
151,155.51,161.19,1
151,155.42,161.09,1
153,155.37,161.01,1
151,155.28,160.91,1
152,155.22,160.82,1
152,155.15,160.73,1
152,155.09,160.65,1
152,155.03,160.56,1
154,155.01,160.49,1
153,154.97,160.42,1
153,154.93,160.34,1
154,154.91,160.28,1
153,154.87,160.21,1
153,154.83,160.14,1
153,154.80,160.06,1
153,154.76,159.99,1
153,154.72,159.92,1
153,154.69,159.85,1
152,154.64,159.78,1
153,154.60,159.71,1
153,154.57,159.64,1
152,154.52,159.57,1
152,154.47,159.49,1
152,154.42,159.41,1
152,154.37,159.34,1
154,154.36,159.29,1
152,154.32,159.21,1
152,154.27,159.14,1
153,154.25,159.08,1
153,154.22,159.02,1
155,154.24,158.98,1
154,154.23,158.93,1
154,154.23,158.88,1
155,154.24,158.84,1
155,154.26,158.80,1
155,154.27,158.77,1
153,154.25,158.71,1
155,154.26,158.67,1
155,154.28,158.63,1
155,154.29,158.60,1
156,154.33,158.57,1
155,154.34,158.54,1
155,154.35,158.50,1
155,154.37,158.47,1
154,154.36,158.42,1
155,154.37,158.39,1
154,154.36,158.34,1
154,154.36,158.30,1
154,154.35,158.26,1
153,154.32,158.20,1
154,154.32,158.16,1
153,154.29,158.11,1
154,154.28,158.07,1
156,154.32,158.05,1
153,154.29,158.00,1
153,154.27,157.95,1
154,154.26,157.91,1
155,154.28,157.88,1
155,154.29,157.85,1
156,154.32,157.83,1
155,154.34,157.80,1
155,154.35,157.78,1
156,154.38,157.76,1
157,154.44,157.75,1
157,154.49,157.74,1
157,154.54,157.74,1
156,154.57,157.72,1
156,154.60,157.70,1
157,154.64,157.69,1
157,154.69,157.69,1
157,154.74,157.68,1
157,154.78,157.67,1
157,154.83,157.67,1
157,154.87,157.66,1
157,154.91,157.65,1
157,154.95,157.65,1
157,155.00,157.64,1
158,155.06,157.64,1
158,155.11,157.65,1
159,155.19,157.66,1
158,155.25,157.66,1
159,155.32,157.68,1
160,155.42,157.70,1
160,155.51,157.72,1
159,155.58,157.74,1
161,155.69,157.77,1
159,155.75,157.78,1
159,155.82,157.79,1
159,155.88,157.81,1
160,155.96,157.83,1
159,156.02,157.84,1
159,156.08,157.85,1
157,156.10,157.84,1
159,156.16,157.85,1
160,156.24,157.88,1
160,156.31,157.90,1
159,156.37,157.91,1
158,156.40,157.91,1
159,156.45,157.92,1
159,156.50,157.93,1
159,156.55,157.94,1
159,156.60,157.95,1
159,156.65,157.96,1
158,156.68,157.96,1
159,156.72,157.97,1
160,156.79,157.99,1
162,156.89,158.03,1
164,157.03,158.09,1
161,157.11,158.12,1
161,157.19,158.15,1
163,157.31,158.20,1
164,157.44,158.26,1
163,157.55,158.30,1
162,157.64,158.34,1
162,157.73,158.38,1
161,157.79,158.40,1
162,157.88,158.44,1
162,157.96,158.48,1
161,158.02,158.50,1
161,158.08,158.53,1
161,158.14,158.55,1
163,158.24,158.60,1
161,158.29,158.62,1
162,158.37,158.65,1
161,158.42,158.68,1
161,158.47,158.70,1
161,158.52,158.72,1
163,158.61,158.77,1
162,158.68,158.80,2
161,158.72,158.82,2
162,158.79,158.85,3
161,158.83,158.87,3
163,158.92,158.91,4
162,158.98,158.95,4
162,159.04,158.98,5
163,159.12,159.02,5
161,159.16,159.04,6
162,159.21,159.07,6
163,159.29,159.11,6
162,159.34,159.13,6
163,159.42,159.17,6
162,159.47,159.20,6
162,159.52,159.23,6
164,159.61,159.28,6
164,159.70,159.32,6
163,159.76,159.36,6
164,159.85,159.41,6
164,159.93,159.45,6
163,159.99,159.49,6
164,160.07,159.53,6
163,160.13,159.57,6
163,160.19,159.60,6
163,160.24,159.64,6
163,160.30,159.67,6
163,160.35,159.70,6
165,160.45,159.76,6
164,160.52,159.80,6
164,160.59,159.84,6
164,160.66,159.88,6
166,160.76,159.94,6
165,160.85,159.99,6
165,160.93,160.04,6
165,161.01,160.09,6
165,161.09,160.14,6
164,161.15,160.18,6
164,161.21,160.22,6
165,161.28,160.27,6
165,161.36,160.31,6
164,161.41,160.35,6
164,161.46,160.39,6
165,161.53,160.43,6
163,161.56,160.46,6
165,161.63,160.51,6
163,161.66,160.53,6
163,161.68,160.56,6
163,161.71,160.58,6
164,161.76,160.61,6
163,161.78,160.64,6
163,161.81,160.66,6
164,161.85,160.69,6
163,161.87,160.72,6
164,161.92,160.75,6
163,161.94,160.77,6
164,161.98,160.81,6
164,162.02,160.84,6
164,162.06,160.87,6
162,162.06,160.88,6
165,162.12,160.92,6
165,162.17,160.96,6
165,162.23,161.00,6
165,162.29,161.04,6
164,162.32,161.07,6
164,162.35,161.10,6
166,162.43,161.15,6
165,162.48,161.19,6
165,162.53,161.23,6
165,162.58,161.26,6
165,162.63,161.30,6
165,162.67,161.34,6
166,162.74,161.39,6
165,162.79,161.42,6
164,162.81,161.45,6
165,162.85,161.48,6
163,162.86,161.50,6
165,162.90,161.53,6
164,162.92,161.56,6
164,162.94,161.58,6
164,162.96,161.61,6
164,162.98,161.63,6
163,162.99,161.64,6
165,163.03,161.68,6
164,163.04,161.70,6
164,163.06,161.72,6
165,163.10,161.76,6
165,163.14,161.79,6
166,163.20,161.83,6
164,163.21,161.85,6
163,163.21,161.86,6
166,163.27,161.91,6
165,163.30,161.94,6
167,163.37,161.99,6
167,163.45,162.04,6
166,163.50,162.08,6
166,163.55,162.12,6
166,163.60,162.16,6
167,163.66,162.20,6
166,163.71,162.24,6
167,163.78,162.29,6
165,163.80,162.32,6
167,163.87,162.36,6
168,163.95,162.42,6
168,164.03,162.48,6
168,164.11,162.53,6
168,164.19,162.59,6
169,164.28,162.65,6
170,164.40,162.72,6
171,164.53,162.81,6
170,164.64,162.88,6
172,164.79,162.97,6
172,164.93,163.06,6
173,165.09,163.16,6
173,165.25,163.26,6
175,165.44,163.37,6
173,165.60,163.47,6
176,165.80,163.60,6
177,166.03,163.73,6
176,166.23,163.85,6
177,166.44,163.98,6
178,166.67,164.12,6
178,166.90,164.26,6
177,167.10,164.39,6
177,167.30,164.52,6
177,167.49,164.64,6
179,167.72,164.78,6
177,167.91,164.91,6
178,168.11,165.04,6
184,168.43,165.23,6
183,168.72,165.41,6
183,169.01,165.58,6
184,169.31,165.77,6
185,169.62,165.96,6
185,169.93,166.15,6
185,170.23,166.34,6
185,170.52,166.52,6
184,170.79,166.70,6
184,171.06,166.87,6
184,171.32,167.04,6
184,171.57,167.21,6
185,171.84,167.39,6
186,172.12,167.58,6
187,172.42,167.77,6
188,172.73,167.97,6
188,173.04,168.17,6
187,173.32,168.36,6
191,173.67,168.59,6
190,174.00,168.80,6
191,174.34,169.02,6
190,174.65,169.23,6
190,174.96,169.44,6
190,175.26,169.65,6
191,175.57,169.86,6
192,175.90,170.08,6
191,176.20,170.29,6
195,176.58,170.54,6
195,176.95,170.78,6
196,177.33,171.03,6
195,177.68,171.27,6
197,178.07,171.53,6
197,178.45,171.79,6
197,178.82,172.04,6
197,179.18,172.29,6
197,179.54,172.54,6
197,179.89,172.78,6
197,180.23,173.02,6
197,180.57,173.26,6
197,180.89,173.50,6
197,181.22,173.73,6
198,181.55,173.98,6
199,181.90,174.23,6
200,182.26,174.48,6
201,182.64,174.75,6
200,182.98,175.00,6
202,183.36,175.27,6
204,183.78,175.56,6
203,184.16,175.83,6
202,184.52,176.10,6
203,184.89,176.36,6
202,185.23,176.62,6
203,185.59,176.88,6
203,185.93,177.15,6
203,186.28,177.40,6
204,186.63,177.67,6
205,187.00,177.94,6
204,187.34,178.20,6
205,187.69,178.47,6
205,188.04,178.74,6
207,188.42,179.02,6
205,188.75,179.28,6
207,189.11,179.56,6
206,189.45,179.82,6
207,189.80,180.09,6
209,190.19,180.38,6
209,190.56,180.67,6
209,190.93,180.95,6
209,191.29,181.23,6
209,191.65,181.51,6
209,191.99,181.79,6
210,192.35,182.07,6
209,192.69,182.34,6
209,193.01,182.60,6
209,193.33,182.87,6
210,193.67,183.14,6
211,194.01,183.42,6
211,194.35,183.69,6
213,194.73,183.99,6
213,195.09,184.28,6
213,195.45,184.56,6
213,195.80,184.85,6
213,196.14,185.13,6
213,196.48,185.41,6
215,196.85,185.70,6
214,197.19,185.99,6
213,197.51,186.26,6
216,197.88,186.55,6
219,198.30,186.88,6
219,198.72,187.20,6
220,199.14,187.53,6
220,199.56,187.85,6
222,200.01,188.19,6
223,200.47,188.54,6
224,200.94,188.90,6
223,201.38,189.24,6
224,201.83,189.59,6
225,202.30,189.94,6
225,202.75,190.29,6
225,203.19,190.64,6
224,203.61,190.97,6
224,204.02,191.30,6
223,204.40,191.62,6
224,204.79,191.94,6
225,205.19,192.27,6
226,205.61,192.61,6
225,206.00,192.93,6
225,206.38,193.25,6
227,206.79,193.59,6
229,207.24,193.95,6
232,207.73,194.33,6
231,208.20,194.69,6
232,208.67,195.07,6
234,209.18,195.46,6
236,209.71,195.86,6
236,210.24,196.26,6
236,210.76,196.66,6
235,211.24,197.04,6
235,211.72,197.42,6
235,212.18,197.80,6
236,212.66,198.18,6
234,213.08,198.54,6
236,213.54,198.91,6
236,213.99,199.28,6
237,214.45,199.66,6
237,214.90,200.04,6
237,215.35,200.40,6
237,215.78,200.77,6
239,216.24,201.15,6
239,216.70,201.53,6
239,217.14,201.91,6
239,217.58,202.28,6
239,218.01,202.64,6
241,218.47,203.03,6
239,218.88,203.39,6
239,219.28,203.74,6
240,219.70,204.11,6
241,220.12,204.48,6
240,220.52,204.83,6
240,220.91,205.18,6
239,221.27,205.52,6
239,221.63,205.86,6
239,221.97,206.19,6
240,222.33,206.52,6
239,222.67,206.85,6
239,222.99,207.17,6
240,223.33,207.50,6
240,223.67,207.82,6
240,223.99,208.15,6
243,224.37,208.49,6
240,224.69,208.81,6
241,225.01,209.13,6
241,225.33,209.45,6
240,225.63,209.76,6
241,225.93,210.07,6
241,226.24,210.38,6
241,226.53,210.68,6
241,226.82,210.99,6
241,227.10,211.29,6
241,227.38,211.58,6
239,227.61,211.86,6
239,227.84,212.13,6
239,228.06,212.40,6
237,228.24,212.64,6
238,228.44,212.90,6
239,228.65,213.16,6
239,228.86,213.42,6
239,229.06,213.67,6
238,229.24,213.92,6
239,229.43,214.17,6
237,229.58,214.40,6
238,229.75,214.63,6
237,229.90,214.86,6
237,230.04,215.08,6
237,230.18,215.30,6
236,230.30,215.50,6
235,230.39,215.70,6
236,230.50,215.90,6
235,230.59,216.09,6
233,230.64,216.26,6
235,230.73,216.45,6
235,230.81,216.63,6
234,230.88,216.81,6
233,230.92,216.97,6
234,230.98,217.14,6
233,231.02,217.30,6
233,231.06,217.46,6
232,231.08,217.60,6
233,231.12,217.76,6
233,231.16,217.91,6
232,231.17,218.05,6
233,231.21,218.20,6
233,231.24,218.35,6
231,231.24,218.47,6
231,231.24,218.60,6
231,231.23,218.72,6
231,231.23,218.84,6
232,231.24,218.98,6
231,231.24,219.10,6
230,231.21,219.21,6
230,231.19,219.31,6
229,231.14,219.41,6
229,231.10,219.51,6
231,231.10,219.62,6
228,231.04,219.70,6
228,230.98,219.79,6
228,230.92,219.87,6
229,230.88,219.96,6
227,230.80,220.03,6
228,230.74,220.11,6
227,230.67,220.18,6
226,230.58,220.24,6
226,230.48,220.30,6
225,230.38,220.34,6
226,230.29,220.40,6
226,230.20,220.46,6
225,230.10,220.50,6
225,230.00,220.55,6
225,229.90,220.59,6
224,229.78,220.62,6
225,229.68,220.67,6
223,229.55,220.69,6
222,229.40,220.70,6
224,229.29,220.74,6
224,229.18,220.77,6
222,229.04,220.78,6
223,228.92,220.80,6
222,228.78,220.82,6
221,228.63,220.82,6
222,228.49,220.83,6
221,228.34,220.83,6
221,228.20,220.83,6
220,228.03,220.83,6
221,227.89,220.83,6
220,227.73,220.82,6
221,227.60,220.82,6
219,227.43,220.80,6
219,227.26,220.78,6
219,227.09,220.77,6
218,226.91,220.74,6
218,226.73,220.71,6
219,226.58,220.69,6
217,226.39,220.66,6
217,226.20,220.62,6
217,226.02,220.58,6
217,225.84,220.55,6
217,225.66,220.51,6
216,225.47,220.47,6
216,225.28,220.42,6
215,225.07,220.37,6
216,224.89,220.33,6
214,224.67,220.26,6
215,224.48,220.21,6
213,224.25,220.14,6
213,224.02,220.07,6
213,223.80,220.00,6
214,223.61,219.94,6
211,223.35,219.85,6
212,223.13,219.77,6
211,222.89,219.68,6
212,222.67,219.60,6
212,222.45,219.53,6
211,222.23,219.44,6
212,222.02,219.37,6
211,221.80,219.28,6
211,221.58,219.20,6
210,221.35,219.11,6
211,221.15,219.03,6
210,220.92,218.94,6
209,220.68,218.84,6
209,220.45,218.74,6
211,220.26,218.66,6
210,220.06,218.58,6
209,219.84,218.48,6
209,219.62,218.39,6
209,219.41,218.29,6
209,219.20,218.20,6
209,218.99,218.11,6
210,218.81,218.03,6
209,218.62,217.94,6
209,218.43,217.85,6
208,218.22,217.75,6
207,217.99,217.64,6
207,217.77,217.53,6
209,217.60,217.45,6
207,217.39,217.34,7
207,217.18,217.24,7
207,216.97,217.14,7
206,216.75,217.03,7
206,216.54,216.92,7
207,216.35,216.82,7
205,216.12,216.70,7
205,215.90,216.58,7
206,215.70,216.48,7
205,215.49,216.36,7
205,215.28,216.25,7
205,215.07,216.14,7
204,214.85,216.01,7
207,214.69,215.92,7
204,214.48,215.80,7
203,214.25,215.68,7
204,214.05,215.56,7
203,213.82,215.43,7
202,213.59,215.30,7
202,213.36,215.17,7
201,213.11,215.03,7
201,212.87,214.89,7
201,212.63,214.75,7
201,212.40,214.61,7
201,212.17,214.47,7
201,211.95,214.34,7
200,211.71,214.19,7
201,211.49,214.06,7
199,211.24,213.91,7
200,211.02,213.77,7
199,210.78,213.63,7
200,210.56,213.49,7
197,210.29,213.32,7
199,210.06,213.18,7
199,209.84,213.04,7
199,209.63,212.90,7
198,209.39,212.75,7
199,209.19,212.61,7
197,208.94,212.46,7
197,208.70,212.30,7
197,208.47,212.15,7
197,208.24,212.00,7
197,208.02,211.85,7
196,207.78,211.69,7
196,207.54,211.53,7
195,207.29,211.37,7
195,207.04,211.20,7
195,206.80,211.04,7
196,206.59,210.89,7
195,206.35,210.73,7
195,206.13,210.57,7
194,205.88,210.41,7
194,205.65,210.24,7
194,205.41,210.08,7
195,205.21,209.93,7
193,204.96,209.76,7
193,204.72,209.59,7
193,204.49,209.43,7
194,204.28,209.27,7
193,204.05,209.11,7
192,203.81,208.94,7
192,203.58,208.77,7
191,203.32,208.59,7
192,203.10,208.43,7
191,202.86,208.25,7
192,202.64,208.09,7
191,202.41,207.92,7
191,202.18,207.75,7
191,201.95,207.58,7
192,201.75,207.43,7
189,201.50,207.24,7
190,201.27,207.07,7
189,201.02,206.89,7
189,200.78,206.71,7
190,200.57,206.54,7
189,200.34,206.37,7
189,200.11,206.19,7
189,199.89,206.02,7
189,199.67,205.85,7
189,199.46,205.68,7
189,199.25,205.52,7
187,199.00,205.33,7
188,198.78,205.16,7
187,198.55,204.98,7
187,198.32,204.80,7
186,198.07,204.61,7
188,197.87,204.44,7
186,197.63,204.26,7
186,197.40,204.08,7
187,197.19,203.91,7
186,196.97,203.73,7
186,196.75,203.55,7
186,196.53,203.37,7
185,196.30,203.19,7
185,196.08,203.01,7
185,195.85,202.83,7
185,195.64,202.65,7
185,195.42,202.47,7
185,195.22,202.30,7
185,195.01,202.13,7
184,194.79,201.94,7
185,194.60,201.77,7
183,194.36,201.59,7
184,194.16,201.41,7
183,193.93,201.23,7
183,193.71,201.04,7
183,193.50,200.86,7
182,193.27,200.68,7
182,193.04,200.49,7
182,192.82,200.30,7
181,192.59,200.11,7
181,192.36,199.92,7
181,192.13,199.73,7
182,191.93,199.55,7
181,191.71,199.37,7
181,191.49,199.18,7
181,191.28,199.00,7
181,191.08,198.82,7
181,190.88,198.64,7
181,190.68,198.47,7
180,190.47,198.28,7
181,190.28,198.11,7
181,190.09,197.94,7
179,189.87,197.75,7
181,189.69,197.58,7
180,189.50,197.41,7
179,189.29,197.22,7
180,189.10,197.05,7
179,188.90,196.87,7
181,188.74,196.71,7
180,188.57,196.54,7
180,188.40,196.38,7
179,188.21,196.20,7
180,188.04,196.04,7
179,187.86,195.87,7
179,187.69,195.70,7
179,187.51,195.54,7
179,187.34,195.37,7
179,187.17,195.21,7
178,186.99,195.04,7
177,186.79,194.85,7
178,186.62,194.69,7
177,186.42,194.51,7
177,186.23,194.33,7
177,186.05,194.16,7
177,185.87,193.99,7
178,185.71,193.83,7
177,185.54,193.66,7
177,185.37,193.49,7
177,185.20,193.33,7
177,185.04,193.17,7
177,184.87,193.00,7
177,184.72,192.84,7
177,184.56,192.69,7
176,184.39,192.52,7
176,184.22,192.35,7
178,184.10,192.21,7
176,183.94,192.05,7
176,183.78,191.89,7
176,183.62,191.73,7
175,183.45,191.56,7
175,183.28,191.40,7
175,183.12,191.23,7
175,182.95,191.07,7
174,182.77,190.90,7
173,182.58,190.72,7
174,182.41,190.55,7
173,182.22,190.38,7
173,182.03,190.20,7
175,181.89,190.05,7
174,181.74,189.89,7
174,181.58,189.73,7
173,181.41,189.56,7
174,181.26,189.41,7
173,181.10,189.25,7
173,180.93,189.08,7
173,180.78,188.92,7
172,180.60,188.75,7
170,180.39,188.57,7
172,180.22,188.40,7
172,180.06,188.24,7
171,179.88,188.06,7
172,179.72,187.90,7
171,179.54,187.73,7
172,179.39,187.58,7
171,179.22,187.41,7
169,179.02,187.23,7
169,178.82,187.04,7
169,178.62,186.86,7
169,178.43,186.68,7
169,178.24,186.51,7
169,178.06,186.33,7
169,177.88,186.16,7
169,177.70,185.99,7
168,177.50,185.81,7
168,177.31,185.63,7
168,177.13,185.45,7
169,176.97,185.29,7
168,176.79,185.12,7
169,176.63,184.96,7
168,176.46,184.79,7
169,176.31,184.63,7
169,176.16,184.47,7
169,176.02,184.32,7
169,175.88,184.16,7
170,175.76,184.02,7
169,175.63,183.87,7
169,175.49,183.72,7
169,175.36,183.58,7
168,175.22,183.42,7
168,175.07,183.27,7
167,174.91,183.10,7
167,174.75,182.94,7
167,174.60,182.78,7
167,174.45,182.62,7
167,174.30,182.47,7
168,174.17,182.32,7
167,174.03,182.17,7
167,173.89,182.02,7
166,173.73,181.86,7
167,173.59,181.71,7
166,173.44,181.55,7
165,173.27,181.39,7
165,173.11,181.22,7
166,172.97,181.07,7
165,172.81,180.91,7
166,172.67,180.76,7
165,172.52,180.60,7
165,172.37,180.45,7
164,172.20,180.28,7
165,172.06,180.13,7
165,171.91,179.98,7
165,171.78,179.83,7
165,171.64,179.68,7
165,171.51,179.53,7
165,171.38,179.39,7
165,171.25,179.25,7
165,171.13,179.10,7
165,171.00,178.96,7
165,170.88,178.82,7
164,170.75,178.67,7
163,170.59,178.52,7
163,170.44,178.36,7
164,170.31,178.22,7
163,170.16,178.07,7
162,170.00,177.91,7
163,169.86,177.76,7
162,169.70,177.60,7
163,169.57,177.45,7
163,169.44,177.31,7
162,169.29,177.16,7
162,169.14,177.00,7
162,169.00,176.85,7
161,168.84,176.70,7
162,168.70,176.55,7
161,168.55,176.39,7
164,168.46,176.27,7
161,168.31,176.12,7
162,168.18,175.98,7
161,168.04,175.83,7
161,167.90,175.68,7
161,167.76,175.53,7
160,167.61,175.37,7
160,167.45,175.22,7
160,167.30,175.07,7
160,167.16,174.92,7
159,166.99,174.76,7
159,166.84,174.60,7
158,166.66,174.44,7
160,166.53,174.29,7
159,166.37,174.14,7
160,166.25,174.00,7
157,166.06,173.83,7
159,165.92,173.68,7
159,165.78,173.53,7
159,165.65,173.39,7
159,165.51,173.24,7
159,165.38,173.10,7
159,165.26,172.96,7
157,165.09,172.80,7
159,164.97,172.66,7
158,164.83,172.52,7
158,164.69,172.37,7
158,164.56,172.23,7
157,164.41,172.07,7
157,164.26,171.92,7
158,164.13,171.78,7
157,163.99,171.64,7
157,163.85,171.49,7
157,163.72,171.34,7
157,163.58,171.20,7
156,163.43,171.05,7
157,163.30,170.91,7
156,163.15,170.76,7
156,163.01,170.61,7
156,162.87,170.47,7
156,162.73,170.32,7
157,162.62,170.19,7
156,162.49,170.05,7
156,162.36,169.91,7
155,162.21,169.76,7
156,162.09,169.62,7
156,161.96,169.48,7
155,161.82,169.34,7
155,161.69,169.19,7
155,161.55,169.05,7
154,161.40,168.90,7
156,161.30,168.77,7
154,161.15,168.63,7
154,161.01,168.48,7
153,160.85,168.32,7
153,160.69,168.17,7
153,160.54,168.02,7
154,160.40,167.88,7
154,160.28,167.74,7
153,160.13,167.59,7
153,159.99,167.45,7
153,159.85,167.30,7
154,159.73,167.17,7
154,159.62,167.04,7
155,159.52,166.92,7
153,159.39,166.78,7
154,159.29,166.65,7
156,159.22,166.54,7
157,159.18,166.45,7
156,159.11,166.34,7
155,159.03,166.23,7
155,158.95,166.12,7
155,158.87,166.01,7
156,158.81,165.91,7
154,158.72,165.79,7
155,158.64,165.68,7
154,158.55,165.56,7
155,158.48,165.46,7
153,158.37,165.33,7
153,158.26,165.21,7
153,158.16,165.09,7
154,158.07,164.98,7
154,157.99,164.87,7
154,157.91,164.76,7
153,157.81,164.64,7
153,157.72,164.52,7
153,157.62,164.41,7
153,157.53,164.30,7
153,157.44,164.18,7
152,157.33,164.06,7
151,157.21,163.93,7
151,157.08,163.80,7
151,156.96,163.67,7
151,156.84,163.55,7
151,156.72,163.42,7
151,156.61,163.30,7
152,156.52,163.18,7
151,156.41,163.06,7
150,156.28,162.93,7
150,156.15,162.80,7
151,156.05,162.68,7
151,155.95,162.57,7
151,155.85,162.45,7
149,155.71,162.32,7
149,155.58,162.18,7
149,155.45,162.05,7
150,155.34,161.93,7
149,155.21,161.80,7
149,155.09,161.67,7
149,154.97,161.55,7
147,154.81,161.40,7
149,154.69,161.28,7
149,154.58,161.15,7
149,154.46,161.03,7
149,154.36,160.91,7
149,154.25,160.79,7
147,154.10,160.66,7
148,153.98,160.53,7
147,153.84,160.39,7
148,153.72,160.27,7
148,153.61,160.15,7
148,153.50,160.03,7
148,153.39,159.91,7
147,153.26,159.78,7
149,153.18,159.67,7
147,153.05,159.54,7
148,152.95,159.43,7
147,152.83,159.30,7
148,152.73,159.19,7
145,152.58,159.05,7
146,152.45,158.92,7
147,152.34,158.80,7
147,152.23,158.68,7
146,152.11,158.55,7
147,152.01,158.44,7
145,151.87,158.30,7
145,151.73,158.17,7
145,151.59,158.04,7
145,151.46,157.91,7
145,151.33,157.78,7
146,151.23,157.66,7
145,151.10,157.53,7
145,150.98,157.41,7
145,150.86,157.29,7
144,150.72,157.15,7
143,150.57,157.01,7
144,150.44,156.88,7
145,150.33,156.76,7
144,150.20,156.63,7
148,150.16,156.55,7
144,150.03,156.42,7
145,149.93,156.31,7
144,149.82,156.19,7
144,149.70,156.06,7
143,149.56,155.93,7
143,149.43,155.80,7
143,149.30,155.68,7
143,149.18,155.55,7
143,149.06,155.42,7
143,148.93,155.30,7
143,148.82,155.18,7
143,148.70,155.05,7
143,148.59,154.93,7
142,148.45,154.80,7
143,148.34,154.69,7
141,148.20,154.55,7
144,148.11,154.44,7
143,148.01,154.33,7
143,147.91,154.22,7
141,147.77,154.08,7
142,147.66,153.96,7
142,147.54,153.84,7
142,147.43,153.72,7
142,147.32,153.61,7
142,147.22,153.49,7
143,147.13,153.39,7
142,147.03,153.27,7
143,146.95,153.17,7
142,146.85,153.06,7
143,146.77,152.96,7
143,146.70,152.86,7
145,146.67,152.78,7
144,146.61,152.69,7
144,146.56,152.60,7
144,146.51,152.52,7
145,146.48,152.44,7
144,146.43,152.36,7
145,146.40,152.29,7
144,146.35,152.20,7
144,146.31,152.12,7
144,146.26,152.04,7
144,146.21,151.96,7
145,146.19,151.89,7
145,146.17,151.82,7
144,146.12,151.74,7
144,146.08,151.67,7
145,146.06,151.60,7
145,146.04,151.53,7
145,146.02,151.47,7
145,146.00,151.40,7
145,145.98,151.34,7
145,145.96,151.28,7
145,145.94,151.21,7
145,145.92,151.15,7
147,145.94,151.11,7
145,145.92,151.05,7
145,145.90,150.99,7
145,145.89,150.93,7
145,145.87,150.87,7
145,145.85,150.81,7
145,145.83,150.75,7
145,145.82,150.69,7
145,145.80,150.64,7
145,145.78,150.58,7
145,145.77,150.52,7
147,145.79,150.49,7
145,145.78,150.43,7
145,145.76,150.38,7
146,145.77,150.34,7
146,145.77,150.29,7
145,145.76,150.24,7
145,145.74,150.19,7
145,145.73,150.14,7
145,145.71,150.08,7
145,145.70,150.03,7
145,145.68,149.98,7
146,145.69,149.94,7
146,145.70,149.90,7
147,145.72,149.87,7
146,145.73,149.84,7
146,145.73,149.80,7
147,145.76,149.77,7
148,145.80,149.75,7
148,145.85,149.73,7
147,145.87,149.71,7
147,145.89,149.68,7
149,145.95,149.67,7
147,145.98,149.65,7
147,146.00,149.62,7
145,145.98,149.57,7
147,146.00,149.55,7
147,146.02,149.52,7
147,146.04,149.50,7
148,146.08,149.48,7
148,146.11,149.47,7
148,146.15,149.45,7
147,146.17,149.43,7
149,146.23,149.42,7
147,146.24,149.40,7
149,146.30,149.40,7
148,146.33,149.38,7
149,146.38,149.38,7
149,146.44,149.37,7
149,146.49,149.37,7
148,146.52,149.36,7
148,146.55,149.34,7
148,146.58,149.33,7
149,146.62,149.33,7
151,146.71,149.34,7
151,146.80,149.36,7
151,146.88,149.38,7
150,146.94,149.38,7
152,147.05,149.41,7
152,147.14,149.43,7
153,147.26,149.47,7
153,147.38,149.51,7
154,147.51,149.55,7
153,147.62,149.59,7
154,147.75,149.63,7
153,147.85,149.66,7
153,147.95,149.70,7
153,148.06,149.73,7
153,148.15,149.76,7
153,148.25,149.79,7
154,148.37,149.84,7
153,148.46,149.87,7
153,148.55,149.90,7
153,148.64,149.93,7
153,148.73,149.96,7
153,148.81,149.99,7
153,148.90,150.02,7
153,148.98,150.05,7
154,149.08,150.09,7
155,149.20,150.14,7
155,149.31,150.19,7
156,149.45,150.25,7
155,149.56,150.29,7
157,149.71,150.36,7
156,149.83,150.42,7
156,149.96,150.47,7
155,150.06,150.52,7
155,150.15,150.56,7
155,150.25,150.61,7
155,150.35,150.65,7
155,150.44,150.70,7
154,150.51,150.73,7
154,150.58,150.76,7
154,150.65,150.79,7
157,150.78,150.86,8
153,150.82,150.88,8
154,150.88,150.91,9
153,150.93,150.93,9
153,150.97,150.95,10
153,151.01,150.97,10
152,151.03,150.98,11
153,151.07,151.00,11
153,151.11,151.02,12
153,151.14,151.04,12
153,151.18,151.06,13
154,151.24,151.09,13
153,151.27,151.11,13
153,151.31,151.13,13
152,151.32,151.14,13
152,151.34,151.15,13
153,151.37,151.16,13
153,151.40,151.18,13
153,151.43,151.20,13
154,151.48,151.23,13
153,151.51,151.25,13
153,151.54,151.26,13
153,151.57,151.28,13
153,151.60,151.30,13
153,151.63,151.31,13
153,151.66,151.33,13
153,151.68,151.35,13
152,151.69,151.36,13
153,151.72,151.37,13
153,151.74,151.39,13
153,151.77,151.40,13
153,151.79,151.42,13
152,151.80,151.43,13
153,151.82,151.44,13
152,151.82,151.45,13
153,151.85,151.46,13
153,151.87,151.48,13
152,151.87,151.48,13
151,151.86,151.48,13
153,151.88,151.49,13
152,151.88,151.50,13
153,151.90,151.51,13
153,151.93,151.53,13
153,151.95,151.54,13
152,151.95,151.55,13
152,151.95,151.55,13
151,151.93,151.55,13
153,151.95,151.56,13
153,151.97,151.58,13
152,151.97,151.58,13
152,151.97,151.58,13
153,151.99,151.60,13
153,152.01,151.61,13
153,152.03,151.63,13
153,152.05,151.64,13
154,152.09,151.66,13
153,152.11,151.68,13
153,152.13,151.69,13
154,152.17,151.71,13
154,152.20,151.74,13
153,152.22,151.75,13
153,152.23,151.76,13
152,152.23,151.76,13
152,152.22,151.77,13
152,152.22,151.77,13
152,152.22,151.77,13
152,152.21,151.77,13
153,152.23,151.79,13
153,152.24,151.80,13
152,152.24,151.80,13
153,152.25,151.81,13
152,152.25,151.81,13
152,152.24,151.82,13
151,152.22,151.81,13
151,152.19,151.80,13
151,152.17,151.79,13
153,152.19,151.80,13
152,152.18,151.80,13
153,152.20,151.82,13
152,152.20,151.82,13
152,152.19,151.82,13
152,152.19,151.82,13
152,152.18,151.82,13
153,152.20,151.84,13
153,152.22,151.85,13
152,152.21,151.85,13
153,152.23,151.86,13
152,152.22,151.86,13
153,152.24,151.87,13
153,152.25,151.88,13
154,152.29,151.91,13
153,152.30,151.92,13
153,152.32,151.93,13
152,152.31,151.93,13
154,152.34,151.95,13
154,152.38,151.97,13
153,152.39,151.98,13
154,152.42,152.00,13
154,152.45,152.02,13
155,152.50,152.05,13
156,152.57,152.09,13
156,152.64,152.13,13
156,152.71,152.17,13
156,152.78,152.21,13
159,152.90,152.27,13
159,153.02,152.34,13
159,153.14,152.41,13
159,153.26,152.47,13
159,153.37,152.54,13
159,153.49,152.60,13
159,153.60,152.67,13
159,153.70,152.73,13
159,153.81,152.79,13
158,153.89,152.85,13
158,153.98,152.90,13
158,154.06,152.95,13
158,154.14,153.00,13
158,154.21,153.05,13
158,154.29,153.10,13
158,154.36,153.15,13
157,154.42,153.19,13
157,154.47,153.22,13
157,154.52,153.26,13
157,154.57,153.30,13
158,154.64,153.35,13
158,154.70,153.39,13
158,154.77,153.44,13
157,154.81,153.47,13
158,154.88,153.52,13
157,154.92,153.55,13
157,154.96,153.59,13
156,154.98,153.61,13
157,155.02,153.65,13
158,155.08,153.69,13
158,155.14,153.73,13
159,155.22,153.79,13
159,155.29,153.84,13
157,155.33,153.87,13
157,155.36,153.90,13
159,155.43,153.95,13
159,155.51,154.00,13
159,155.58,154.05,13
160,155.66,154.11,13
160,155.75,154.17,13
159,155.82,154.22,13
161,155.92,154.29,13
159,155.98,154.33,13
159,156.04,154.38,13
159,156.10,154.43,13
160,156.18,154.48,13
162,156.29,154.56,13
161,156.39,154.62,13
161,156.48,154.69,13
161,156.57,154.75,13
163,156.70,154.83,13
163,156.83,154.91,13
163,156.95,154.99,13
163,157.07,155.07,13
165,157.23,155.17,13
167,157.42,155.29,13
167,157.62,155.41,13
167,157.80,155.52,13
167,157.99,155.64,13
167,158.17,155.75,13
168,158.36,155.88,13
167,158.54,155.99,13
168,158.73,156.11,13
168,158.91,156.23,13
168,159.09,156.34,13
168,159.27,156.46,13
167,159.43,156.57,13
168,159.60,156.68,13
169,159.79,156.80,13
168,159.95,156.91,13
169,160.13,157.04,13
169,160.31,157.16,13
169,160.48,157.27,13
169,160.65,157.39,13
170,160.84,157.52,13
169,161.00,157.63,13
169,161.16,157.75,13
169,161.32,157.86,13
171,161.51,157.99,13
171,161.70,158.12,13
171,161.89,158.25,13
171,162.07,158.38,13
171,162.25,158.50,13
171,162.42,158.63,13
171,162.60,158.75,13
172,162.78,158.88,13
174,163.01,159.03,13
173,163.21,159.17,13
175,163.44,159.33,13
175,163.68,159.49,13
177,163.94,159.66,13
177,164.20,159.84,13
177,164.46,160.01,13
178,164.73,160.19,13
180,165.04,160.39,13
181,165.35,160.59,13
181,165.67,160.80,13
181,165.97,161.00,13
181,166.27,161.20,13
181,166.57,161.40,13
182,166.88,161.60,13
183,167.20,161.82,13
183,167.52,162.03,13
185,167.87,162.26,13
184,168.19,162.48,13
185,168.52,162.70,13
187,168.89,162.94,13
188,169.28,163.20,13
187,169.63,163.43,13
190,170.04,163.70,13
189,170.42,163.95,13
187,170.75,164.18,13
190,171.13,164.44,13
192,171.55,164.72,13
190,171.92,164.97,13
188,172.24,165.20,13
189,172.58,165.44,13
190,172.93,165.68,13
191,173.29,165.94,13
192,173.66,166.20,13
195,174.09,166.48,13
196,174.53,166.78,13
195,174.94,167.06,13
195,175.34,167.34,13
197,175.77,167.64,13
198,176.22,167.94,13
198,176.65,168.24,13
200,177.12,168.56,13
204,177.66,168.91,13
203,178.16,169.26,13
203,178.66,169.59,13
202,179.13,169.92,13
203,179.60,170.25,13
204,180.09,170.59,13
203,180.55,170.91,13
204,181.02,171.24,13
203,181.46,171.56,13
203,181.89,171.87,13
205,182.35,172.20,13
207,182.84,172.55,13
207,183.33,172.90,13
207,183.80,173.24,13
211,184.34,173.61,13
214,184.94,174.02,13
215,185.54,174.43,13
215,186.13,174.83,13
218,186.77,175.27,13
219,187.41,175.70,13
220,188.06,176.15,13
219,188.68,176.57,13
223,189.37,177.04,13
219,189.96,177.46,13
219,190.54,177.87,13
218,191.09,178.28,13
220,191.67,178.69,13
219,192.21,179.10,13
224,192.85,179.54,13
222,193.43,179.97,13
224,194.04,180.41,13
226,194.68,180.87,13
229,195.37,181.35,13
229,196.04,181.82,13
229,196.70,182.29,13
229,197.35,182.76,13
230,198.00,183.23,13
231,198.66,183.71,13
230,199.29,184.17,13
230,199.90,184.63,13
230,200.50,185.09,13
232,201.13,185.56,13
230,201.71,186.00,13
233,202.34,186.47,13
236,203.01,186.97,13
238,203.71,187.48,13
238,204.40,187.98,13
241,205.13,188.51,13
244,205.91,189.07,13
247,206.73,189.65,13
245,207.49,190.20,13
245,208.24,190.75,13
247,209.02,191.31,13
247,209.78,191.87,13
249,210.56,192.44,13
249,211.33,193.00,13
249,212.08,193.56,13
250,212.84,194.13,13
247,213.53,194.66,13
248,214.22,195.19,13
250,214.93,195.74,13
251,215.65,196.29,13
253,216.40,196.86,13
252,217.11,197.41,13
254,217.85,197.98,13
254,218.57,198.54,13
254,219.28,199.09,13
254,219.98,199.64,13
254,220.66,200.18,13
256,221.36,200.74,13
257,222.08,201.30,13
256,222.75,201.85,13
256,223.42,202.39,13
256,224.07,202.93,13
256,224.71,203.46,13
257,225.35,203.99,13
256,225.97,204.51,13
257,226.59,205.04,13
257,227.20,205.56,13
256,227.77,206.06,13
257,228.36,206.57,13
255,228.89,207.06,13
255,229.41,207.54,13
254,229.90,208.00,13
254,230.39,208.46,13
254,230.86,208.92,13
255,231.34,209.38,13
254,231.79,209.82,13
253,232.22,210.26,13
252,232.61,210.67,13
252,233.00,211.09,13
251,233.36,211.49,13
251,233.71,211.88,13
250,234.04,212.26,13
250,234.36,212.64,13
252,234.71,213.03,13
252,235.06,213.42,13
250,235.36,213.79,13
251,235.67,214.16,13
251,235.98,214.53,13
251,236.28,214.89,13
250,236.55,215.24,13
250,236.82,215.59,13
250,237.08,215.94,13
250,237.34,216.28,13
248,237.56,216.59,13
249,237.78,216.92,13
247,237.97,217.22,13
247,238.15,217.52,13
246,238.31,217.80,13
247,238.48,218.09,13
246,238.63,218.37,13
245,238.76,218.64,13
245,238.88,218.90,13
245,239.01,219.16,13
243,239.08,219.40,13
243,239.16,219.64,13
243,239.24,219.87,13
244,239.34,220.11,13
244,239.43,220.35,13
243,239.50,220.58,13
243,239.57,220.80,13
242,239.62,221.01,13
243,239.69,221.23,13
242,239.73,221.44,13
241,239.76,221.64,13
242,239.80,221.84,13
241,239.83,222.03,13
240,239.83,222.21,13
240,239.83,222.39,13
241,239.86,222.58,13
240,239.86,222.75,13
240,239.86,222.92,13
239,239.85,223.08,13
239,239.83,223.24,13
239,239.81,223.40,13
238,239.78,223.55,13
239,239.76,223.70,13
238,239.72,223.84,13
237,239.67,223.98,13
238,239.64,224.12,13
239,239.62,224.26,13
237,239.57,224.39,13
237,239.52,224.52,13
236,239.45,224.63,13
236,239.38,224.75,13
235,239.29,224.85,13
235,239.21,224.95,13
235,239.12,225.05,13
235,239.04,225.15,13
235,238.96,225.25,13
234,238.86,225.34,13
234,238.76,225.42,13
234,238.67,225.51,13
233,238.55,225.58,13
232,238.42,225.65,13
232,238.30,225.71,13
233,238.19,225.78,13
232,238.07,225.85,13
231,237.92,225.90,13
231,237.79,225.95,13
231,237.65,226.00,13
227,237.44,226.01,13
231,237.31,226.06,13
230,237.16,226.10,13
230,237.02,226.14,13
229,236.86,226.17,13
231,236.74,226.21,13
229,236.59,226.24,13
230,236.45,226.28,13
229,236.31,226.31,13
227,236.12,226.31,13
228,235.96,226.33,13
227,235.78,226.34,13
228,235.62,226.35,13
227,235.45,226.36,13
226,235.26,226.36,13
226,235.08,226.35,13
226,234.89,226.35,13
225,234.70,226.34,13
225,234.50,226.32,13
225,234.31,226.31,13
226,234.15,226.31,13
224,233.94,226.28,13
224,233.74,226.26,13
224,233.55,226.24,13
224,233.36,226.22,13
223,233.15,226.18,13
224,232.97,226.16,13
223,232.77,226.13,13
223,232.57,226.10,13
222,232.36,226.06,13
222,232.16,226.02,13
222,231.95,225.98,13
221,231.73,225.93,13
221,231.52,225.88,13
221,231.31,225.83,13
220,231.08,225.77,13
221,230.88,225.72,13
220,230.66,225.67,13
219,230.43,225.60,13
219,230.20,225.53,13
219,229.98,225.47,13
219,229.76,225.40,13
219,229.54,225.34,13
219,229.33,225.28,13
217,229.08,225.19,13
218,228.86,225.12,13
218,228.65,225.05,13
218,228.43,224.98,13
217,228.20,224.90,13
217,227.98,224.82,13
217,227.76,224.74,13
217,227.55,224.67,13
217,227.33,224.59,13
216,227.11,224.50,13
215,226.87,224.41,13
216,226.65,224.32,13
215,226.42,224.23,13
215,226.19,224.14,13
215,225.96,224.05,13
215,225.74,223.96,13
214,225.51,223.86,13
214,225.28,223.76,13
212,225.01,223.64,13
212,224.75,223.52,13
213,224.52,223.42,13
212,224.27,223.30,13
212,224.02,223.19,13
212,223.78,223.08,13
212,223.55,222.97,13
211,223.30,222.85,13
211,223.05,222.73,13
211,222.81,222.61,13
211,222.57,222.50,14
210,222.32,222.37,14
210,222.07,222.25,14
210,221.83,222.13,14
209,221.58,222.00,14
209,221.32,221.87,14
208,221.06,221.73,14
210,220.84,221.61,14
208,220.58,221.47,14
211,220.39,221.37,14
207,220.12,221.22,14
207,219.86,221.08,14
207,219.60,220.94,14
207,219.35,220.80,14
206,219.08,220.65,14
206,218.82,220.51,14
205,218.54,220.35,14
205,218.27,220.20,14
205,218.01,220.05,14
204,217.73,219.89,14
204,217.45,219.73,14
203,217.16,219.56,14
202,216.86,219.38,14
202,216.56,219.21,14
203,216.29,219.05,14
201,215.99,218.87,14
201,215.69,218.69,14
201,215.39,218.51,14
201,215.11,218.34,14
202,214.84,218.17,14
201,214.57,218.00,14
202,214.31,217.84,14
201,214.05,217.67,14
201,213.79,217.51,14
200,213.51,217.33,14
200,213.24,217.16,14
200,212.98,216.99,14
200,212.72,216.82,14
198,212.42,216.63,14
198,212.13,216.44,14
199,211.87,216.27,14
199,211.61,216.10,14
198,211.34,215.91,14
200,211.12,215.76,14
201,210.91,215.61,14
198,210.65,215.43,14
196,210.36,215.24,14
197,210.09,215.06,14
197,209.83,214.87,14
197,209.58,214.70,14
197,209.32,214.52,14
198,209.10,214.35,14
195,208.82,214.16,14
196,208.56,213.98,14
196,208.31,213.80,14
196,208.06,213.62,14
195,207.80,213.43,14
195,207.55,213.25,14
195,207.29,213.07,14
196,207.07,212.90,14
194,206.81,212.71,14
194,206.55,212.52,14
194,206.30,212.34,14
194,206.05,212.15,14
194,205.81,211.97,14
194,205.58,211.79,14
194,205.34,211.61,14
195,205.14,211.45,14
193,204.90,211.26,14
192,204.64,211.07,14
193,204.40,210.89,14
193,204.18,210.71,14
193,203.95,210.53,14
193,203.73,210.36,14
192,203.50,210.17,14
193,203.29,210.00,14
193,203.08,209.83,14
192,202.86,209.65,14
191,202.62,209.47,14
191,202.39,209.28,14
191,202.16,209.10,14
192,201.96,208.93,14
192,201.76,208.76,14
193,201.59,208.60,14
190,201.35,208.42,14
189,201.11,208.22,14
190,200.89,208.04,14
190,200.67,207.86,14
189,200.43,207.67,14
189,200.21,207.48,14
190,200.00,207.31,14
191,199.82,207.15,14
188,199.59,206.96,14
188,199.35,206.77,14
188,199.13,206.58,14
188,198.90,206.39,14
187,198.67,206.20,14
187,198.43,206.01,14
187,198.20,205.82,14
187,197.98,205.63,14
188,197.78,205.45,14
186,197.54,205.26,14
186,197.31,205.06,14
187,197.11,204.88,14
185,196.87,204.69,14
185,196.63,204.49,14
185,196.40,204.29,14
186,196.19,204.11,14
184,195.94,203.91,14
184,195.70,203.71,14
184,195.47,203.51,14
185,195.26,203.33,14
184,195.04,203.13,14
184,194.82,202.94,14
181,194.54,202.72,14
185,194.35,202.55,14
182,194.10,202.34,14
183,193.88,202.15,14
183,193.66,201.96,14
184,193.47,201.78,14
183,193.26,201.59,14
184,193.07,201.41,14
183,192.87,201.23,14
185,192.72,201.07,14
183,192.52,200.89,14
183,192.33,200.71,14
183,192.14,200.53,14
183,191.96,200.36,14
182,191.76,200.17,14
182,191.57,199.99,14
184,191.42,199.83,14
183,191.25,199.66,14
182,191.06,199.48,14
180,190.84,199.29,14
179,190.60,199.09,14
181,190.41,198.91,14
180,190.20,198.72,14
180,190.00,198.53,14
180,189.80,198.34,14
181,189.62,198.17,14
181,189.45,198.00,14
178,189.22,197.80,14
179,189.02,197.61,14
179,188.82,197.43,14
178,188.60,197.23,14
178,188.39,197.04,14
178,188.18,196.85,14
178,187.98,196.66,14
179,187.80,196.48,14
176,187.56,196.28,14
177,187.35,196.09,14
177,187.14,195.90,14
177,186.94,195.71,14
177,186.74,195.52,14
176,186.53,195.32,14
177,186.34,195.14,14
178,186.17,194.97,14
177,185.99,194.79,14
177,185.81,194.61,14
177,185.63,194.44,14
178,185.48,194.27,14
179,185.35,194.12,14
179,185.22,193.97,14
179,185.10,193.82,14
178,184.96,193.66,14
178,184.82,193.50,14
178,184.68,193.35,14
178,184.55,193.19,14
178,184.42,193.04,14
177,184.27,192.88,14
177,184.12,192.72,14
176,183.96,192.56,14
177,183.82,192.40,14
176,183.66,192.24,14
176,183.51,192.07,14
176,183.36,191.91,14
175,183.19,191.74,14
175,183.03,191.58,14
175,182.87,191.41,14
175,182.71,191.25,14
175,182.56,191.08,14
175,182.41,190.92,14
174,182.24,190.75,14
174,182.07,190.59,14
172,181.87,190.40,14
174,181.71,190.24,14
173,181.54,190.06,14
174,181.39,189.90,14
173,181.22,189.73,14
171,181.02,189.55,14
172,180.84,189.37,14
174,180.70,189.22,14
173,180.55,189.06,14
173,180.39,188.90,14
172,180.23,188.73,14
172,180.06,188.56,14
172,179.90,188.39,14
171,179.72,188.22,14
171,179.55,188.05,14
171,179.38,187.88,14
171,179.21,187.71,14
171,179.05,187.54,14
171,178.89,187.38,14
171,178.73,187.21,14
171,178.57,187.05,14
171,178.42,186.89,14
171,178.27,186.73,14
170,178.11,186.56,14
170,177.95,186.40,14
170,177.79,186.23,14
171,177.65,186.08,14
170,177.50,185.92,14
169,177.33,185.75,14
169,177.16,185.58,14
170,177.02,185.43,14
169,176.86,185.26,14
169,176.70,185.10,14
169,176.55,184.94,14
169,176.40,184.78,14
169,176.25,184.62,14
168,176.08,184.46,14
168,175.92,184.29,14
168,175.76,184.13,14
169,175.63,183.98,14
168,175.47,183.82,14
169,175.35,183.67,14
168,175.20,183.51,14
167,175.03,183.35,14
167,174.87,183.18,14
167,174.72,183.02,14
170,174.62,182.89,14
167,174.47,182.73,14
168,174.34,182.59,14
167,174.19,182.43,14
166,174.03,182.27,14
166,173.87,182.10,14
167,173.73,181.95,14
167,173.60,181.80,14
167,173.46,181.65,14
166,173.32,181.50,14
166,173.17,181.34,14
166,173.03,181.19,14
166,172.89,181.04,14
166,172.75,180.89,14
166,172.61,180.74,14
165,172.46,180.58,14
165,172.31,180.43,14
165,172.17,180.27,14
166,172.04,180.13,14
164,171.88,179.97,14
163,171.70,179.80,14
164,171.55,179.64,14
164,171.40,179.48,14
163,171.23,179.32,14
164,171.09,179.17,14
164,170.94,179.01,14
164,170.81,178.86,14
164,170.67,178.71,14
164,170.54,178.57,14
164,170.40,178.42,14
163,170.26,178.27,14
163,170.11,178.12,14
164,169.99,177.97,14
163,169.85,177.82,14
163,169.71,177.68,14
166,169.64,177.56,14
163,169.51,177.41,14
162,169.36,177.26,14
162,169.21,177.11,14
162,169.06,176.96,14
161,168.90,176.80,14
161,168.75,176.64,14
161,168.59,176.48,14
161,168.44,176.33,14
161,168.29,176.17,14
160,168.12,176.01,14
160,167.96,175.85,14
160,167.80,175.69,14
159,167.63,175.53,14
160,167.47,175.37,14
160,167.32,175.22,14
161,167.20,175.08,14
160,167.05,174.92,14
160,166.91,174.78,14
159,166.75,174.62,14
159,166.60,174.46,14
159,166.45,174.31,14
159,166.30,174.15,14
160,166.17,174.01,14
160,166.05,173.87,14
160,165.93,173.73,14
158,165.77,173.58,14
158,165.61,173.42,14
158,165.46,173.27,14
158,165.31,173.11,14
158,165.17,172.96,14
158,165.02,172.81,14
159,164.90,172.67,14
158,164.76,172.53,14
158,164.63,172.38,14
155,164.44,172.21,14
158,164.31,172.07,14
158,164.18,171.93,14
158,164.06,171.79,14
160,163.98,171.67,14
160,163.90,171.55,14
159,163.80,171.43,14
158,163.68,171.29,14
158,163.57,171.16,14
159,163.48,171.04,14
158,163.37,170.91,14
158,163.26,170.78,14
158,163.16,170.65,14
158,163.05,170.52,14
157,162.93,170.39,14
156,162.79,170.25,14
156,162.66,170.10,14
155,162.50,169.95,14
156,162.37,169.81,14
156,162.25,169.67,14
155,162.10,169.53,14
156,161.98,169.39,14
155,161.84,169.25,14
155,161.70,169.11,14
155,161.57,168.96,14
155,161.44,168.82,14
154,161.29,168.68,14
154,161.14,168.53,14
154,161.00,168.38,14
153,160.84,168.23,14
154,160.70,168.09,14
154,160.57,167.95,14
154,160.44,167.81,14
154,160.31,167.67,14
153,160.16,167.52,14
151,159.98,167.36,14
152,159.82,167.20,14
153,159.68,167.06,14
153,159.55,166.92,14
152,159.40,166.77,14
152,159.25,166.62,14
152,159.11,166.48,14
152,158.96,166.33,14
152,158.82,166.19,14
152,158.69,166.05,14
152,158.55,165.91,14
151,158.40,165.76,14
151,158.26,165.61,14
150,158.09,165.46,14
151,157.95,165.31,14
150,157.79,165.16,14
150,157.63,165.01,14
149,157.46,164.85,14
150,157.31,164.70,14
150,157.17,164.55,14
150,157.02,164.41,14
150,156.88,164.26,14
150,156.74,164.12,14
149,156.59,163.97,14
149,156.44,163.82,14
149,156.29,163.67,14
150,156.16,163.53,14
150,156.04,163.40,14
149,155.90,163.25,14
150,155.78,163.12,14
149,155.65,162.98,14
149,155.51,162.84,14
149,155.38,162.70,14
149,155.25,162.56,14
147,155.09,162.41,14
145,154.89,162.23,14
147,154.73,162.08,14
148,154.60,161.94,14
147,154.44,161.79,14
148,154.31,161.65,14
147,154.17,161.51,14
148,154.05,161.37,14
146,153.88,161.22,14
147,153.75,161.08,14
145,153.57,160.92,14
147,153.44,160.78,14
148,153.33,160.65,14
146,153.18,160.50,14
146,153.04,160.36,14
145,152.88,160.20,14
146,152.74,160.06,14
146,152.61,159.92,14
146,152.48,159.78,14
145,152.33,159.63,14
145,152.18,159.49,14
145,152.04,159.34,14
145,151.90,159.20,14
146,151.78,159.07,14
145,151.64,158.93,14
144,151.49,158.78,14
145,151.36,158.64,14
145,151.23,158.50,14
145,151.11,158.37,14
144,150.97,158.22,14
145,150.85,158.09,14
144,150.71,157.95,14
144,150.57,157.81,14
144,150.44,157.67,14
144,150.31,157.54,14
145,150.21,157.41,14
144,150.08,157.28,14
145,149.98,157.16,14
145,149.88,157.03,14
146,149.80,156.92,14
146,149.73,156.81,14
146,149.65,156.71,14
145,149.56,156.59,14
146,149.49,156.48,14
145,149.40,156.37,14
146,149.33,156.26,14
147,149.29,156.17,14
146,149.22,156.07,14
146,149.16,155.97,14
146,149.09,155.87,14
146,149.03,155.77,14
146,148.97,155.67,14
145,148.89,155.57,14
145,148.81,155.46,14
145,148.74,155.36,14
146,148.68,155.26,14
146,148.63,155.17,14
145,148.56,155.07,14
145,148.48,154.97,14
145,148.41,154.87,14
145,148.35,154.77,14
144,148.26,154.66,14
145,148.19,154.56,14
145,148.13,154.47,14
144,148.05,154.36,14
145,147.99,154.27,14
145,147.93,154.18,14
145,147.87,154.09,14
145,147.81,154.00,14
145,147.75,153.91,14
145,147.70,153.82,14
146,147.67,153.74,14
146,147.63,153.66,14
146,147.60,153.58,14
146,147.57,153.51,14
145,147.52,153.42,14
145,147.47,153.34,14
147,147.46,153.28,14
146,147.43,153.20,14
146,147.40,153.13,14
147,147.39,153.07,14
147,147.38,153.01,14
149,147.42,152.97,14
146,147.39,152.90,14
146,147.36,152.83,14
146,147.33,152.76,14
145,147.29,152.68,14
146,147.26,152.62,14
146,147.23,152.55,14
146,147.21,152.49,14
147,147.21,152.43,14
146,147.18,152.37,14
145,147.14,152.29,14
147,147.14,152.24,14
147,147.13,152.19,14
147,147.13,152.14,14
147,147.13,152.08,14
147,147.12,152.03,14
147,147.12,151.98,14
149,147.16,151.95,14
148,147.18,151.91,14
149,147.21,151.88,14
149,147.25,151.86,14
150,147.30,151.84,14
151,147.38,151.83,14
150,147.43,151.81,14
150,147.48,151.79,14
150,147.53,151.77,14
150,147.58,151.76,14
150,147.63,151.74,14
149,147.66,151.71,14
150,147.70,151.69,14
150,147.75,151.68,14
151,147.82,151.67,14
150,147.86,151.65,14
150,147.90,151.64,14
151,147.96,151.63,14
154,148.08,151.66,14
151,148.14,151.65,14
151,148.20,151.64,14
150,148.24,151.63,14
151,148.29,151.62,14
151,148.35,151.61,14
151,148.40,151.61,14
151,148.45,151.60,14
151,148.50,151.60,14
150,148.53,151.58,14
150,148.56,151.56,14
150,148.59,151.55,14
150,148.62,151.53,14
150,148.65,151.52,14
150,148.67,151.50,14
151,148.72,151.50,14
150,148.74,151.48,14
149,148.75,151.46,14
149,148.75,151.43,14
149,148.76,151.41,14
150,148.78,151.39,14
149,148.79,151.37,14
149,148.79,151.35,14
150,148.82,151.33,14
150,148.84,151.32,14
150,148.86,151.31,14
151,148.91,151.30,14
151,148.95,151.30,14
151,148.99,151.30,14
150,149.01,151.28,14
150,149.03,151.27,14
151,149.07,151.27,14
150,149.09,151.26,14
151,149.13,151.25,14
151,149.16,151.25,14
151,149.20,151.25,14
151,149.24,151.25,14
150,149.25,151.23,14
151,149.29,151.23,14
150,149.30,151.22,14
149,149.29,151.20,14
150,149.31,151.18,14
149,149.30,151.16,14
150,149.32,151.15,14
149,149.31,151.13,14
150,149.32,151.12,14
150,149.34,151.11,14
150,149.35,151.10,14
149,149.34,151.08,14
149,149.34,151.05,14
149,149.33,151.03,14
147,149.28,150.99,14
149,149.28,150.97,14
149,149.27,150.95,14
148,149.25,150.92,14
149,149.24,150.91,14
149,149.24,150.89,14
149,149.23,150.87,14
148,149.21,150.84,14
147,149.16,150.80,14
147,149.12,150.76,14
147,149.08,150.72,14
149,149.08,150.71,14
150,149.09,150.70,14
149,149.09,150.68,14
149,149.09,150.67,14
152,149.15,150.68,14
151,149.19,150.68,14
151,149.22,150.69,14
151,149.26,150.69,14
151,149.29,150.69,14
153,149.37,150.72,14
153,149.44,150.74,14
152,149.49,150.75,14
151,149.52,150.75,14
152,149.57,150.77,14
151,149.60,150.77,14
151,149.63,150.77,14
151,149.65,150.77,14
152,149.70,150.79,14
152,149.75,150.80,14
151,149.77,150.80,14
151,149.80,150.80,14
151,149.82,150.80,14
151,149.84,150.81,14
152,149.89,150.82,14
153,149.95,150.84,14
152,149.99,150.85,14
153,150.05,150.87,14
153,150.11,150.89,14
152,150.15,150.90,14
152,150.19,150.92,14
151,150.20,150.92,14
151,150.22,150.92,14
152,150.25,150.93,14
150,150.25,150.92,14
152,150.28,150.93,14
153,150.34,150.95,14
152,150.37,150.96,14
153,150.42,150.98,14
152,150.45,150.99,14
152,150.49,151.00,14
154,150.56,151.03,14
153,150.60,151.05,14
153,150.65,151.07,14
150,150.64,151.06,14
151,150.65,151.06,14
152,150.67,151.07,14
151,150.68,151.07,14
151,150.69,151.07,14
152,150.71,151.08,14
153,150.76,151.10,14
153,150.80,151.11,14
153,150.85,151.13,14
154,150.91,151.16,14
154,150.97,151.19,14
154,151.03,151.22,14
155,151.11,151.26,14
156,151.21,151.30,15
155,151.29,151.34,15
154,151.34,151.37,16
154,151.39,151.39,16
154,151.45,151.42,17
154,151.50,151.45,17
154,151.55,151.47,18
154,151.60,151.50,18
156,151.68,151.54,18
156,151.77,151.59,18
157,151.87,151.64,18
156,151.96,151.68,18
157,152.06,151.74,18
158,152.18,151.80,18
157,152.27,151.85,18
157,152.37,151.90,18
158,152.48,151.96,18
157,152.57,152.01,18
157,152.66,152.06,18
156,152.73,152.10,18
158,152.83,152.16,18
155,152.88,152.19,18
157,152.96,152.24,18
158,153.06,152.30,18
158,153.16,152.35,18
158,153.25,152.41,18
159,153.37,152.48,18
158,153.46,152.53,18
158,153.55,152.59,18
159,153.66,152.65,18
160,153.79,152.72,18
160,153.91,152.80,18
161,154.05,152.88,18
164,154.25,152.99,18
160,154.37,153.06,18
160,154.48,153.13,18
159,154.57,153.19,18
161,154.70,153.27,18
159,154.79,153.32,18
159,154.87,153.38,18
160,154.97,153.45,18
160,155.07,153.51,18
160,155.17,153.58,18
160,155.27,153.64,18
161,155.38,153.71,18
161,155.50,153.79,18
161,155.61,153.86,18
161,155.71,153.93,18
159,155.78,153.98,18
162,155.90,154.06,18
162,156.03,154.14,18
162,156.14,154.22,18
162,156.26,154.30,18
162,156.38,154.37,18
162,156.49,154.45,18
163,156.62,154.54,18
163,156.75,154.62,18
163,156.87,154.71,18
163,156.99,154.79,18
163,157.11,154.87,18
163,157.23,154.95,18
163,157.35,155.03,18
163,157.46,155.11,18
163,157.57,155.19,18
164,157.70,155.28,18
164,157.83,155.37,18
164,157.95,155.45,18
164,158.07,155.54,18
169,158.29,155.67,18
164,158.40,155.76,18
165,158.54,155.85,18
165,158.66,155.94,18
166,158.81,156.04,18
166,158.96,156.14,18
166,159.10,156.24,18
166,159.23,156.34,18
168,159.41,156.45,18
169,159.60,156.58,18
168,159.77,156.69,18
169,159.95,156.82,18
169,160.13,156.94,18
168,160.29,157.05,18
169,160.47,157.17,18
168,160.62,157.28,18
169,160.78,157.39,18
170,160.97,157.52,18
170,161.15,157.64,18
170,161.33,157.77,18
170,161.50,157.89,18
172,161.71,158.03,18
172,161.92,158.17,18
172,162.12,158.31,18
173,162.34,158.46,18
173,162.55,158.60,18
173,162.76,158.75,18
175,163.00,158.91,18
175,163.24,159.07,18
175,163.48,159.23,18
174,163.69,159.38,18
176,163.93,159.54,18
175,164.16,159.70,18
174,164.35,159.84,18
175,164.57,159.99,18
176,164.79,160.15,18
174,164.98,160.29,18
174,165.16,160.43,18
174,165.34,160.56,18
174,165.51,160.70,18
175,165.70,160.84,18
174,165.86,160.97,18
174,166.03,161.10,18
175,166.21,161.24,18
175,166.38,161.38,18
174,166.54,161.50,18
175,166.70,161.64,18
176,166.89,161.78,18
177,167.09,161.94,18
178,167.31,162.10,18
180,167.56,162.28,18
181,167.83,162.46,18
181,168.10,162.65,18
183,168.39,162.85,18
184,168.71,163.06,18
188,169.09,163.31,18
188,169.47,163.56,18
187,169.82,163.79,18
189,170.20,164.05,18
193,170.66,164.33,18
195,171.15,164.64,18
195,171.62,164.95,18
195,172.09,165.25,18
196,172.57,165.55,18
197,173.06,165.87,18
198,173.56,166.19,18
199,174.07,166.52,18
200,174.59,166.85,18
199,175.07,167.17,18
199,175.55,167.49,18
199,176.02,167.81,18
201,176.52,168.14,18
200,176.99,168.46,18
201,177.47,168.78,18
200,177.92,169.10,18
201,178.38,169.41,18
202,178.85,169.74,18
201,179.30,170.05,18
201,179.73,170.36,18
201,180.16,170.67,18
203,180.61,170.99,18
203,181.06,171.31,18
204,181.52,171.64,18
204,181.97,171.96,18
205,182.43,172.29,18
206,182.90,172.63,18
208,183.40,172.98,18
208,183.90,173.33,18
207,184.36,173.67,18
210,184.87,174.03,18
213,185.43,174.42,18
214,186.00,174.82,18
214,186.56,175.21,18
214,187.11,175.60,18
216,187.69,176.00,18
218,188.30,176.42,18
219,188.91,176.85,18
219,189.51,177.27,18
222,190.16,177.72,18
223,190.82,178.17,18
223,191.46,178.62,18
225,192.13,179.08,18
226,192.81,179.55,18
226,193.48,180.02,18
226,194.13,180.48,18
227,194.78,180.94,18
232,195.53,181.45,18
234,196.30,181.98,18
235,197.07,182.51,18
236,197.85,183.04,18
238,198.65,183.59,18
241,199.50,184.17,18
243,200.37,184.75,18
243,201.22,185.34,18
243,202.06,185.91,18
246,202.94,186.51,18
249,203.86,187.14,18
249,204.76,187.76,18
249,205.65,188.37,18
248,206.49,188.97,18
250,207.36,189.58,18
251,208.24,190.19,18
252,209.11,190.81,18
253,209.99,191.43,18
255,210.89,192.07,18
255,211.77,192.70,18
256,212.66,193.33,18
256,213.52,193.96,18
257,214.39,194.59,18
257,215.24,195.21,18
257,216.08,195.83,18
257,216.90,196.44,18
259,217.74,197.07,18
259,218.57,197.68,18
259,219.37,198.30,18
261,220.21,198.93,18
261,221.02,199.55,18
262,221.84,200.17,18
261,222.62,200.78,18
261,223.39,201.38,18
261,224.14,201.98,18
262,224.90,202.58,18
263,225.66,203.18,18
265,226.45,203.80,18
264,227.20,204.40,18
266,227.98,205.02,18
266,228.74,205.63,18
269,229.54,206.26,18
271,230.37,206.91,18
269,231.14,207.53,18
270,231.92,208.15,18
271,232.70,208.78,18
271,233.47,209.40,18
273,234.26,210.04,18
275,235.07,210.69,18
277,235.91,211.35,18
277,236.73,212.01,18
277,237.54,212.66,18
280,238.39,213.33,18
281,239.24,214.01,18
283,240.12,214.70,18
282,240.95,215.37,18
284,241.82,216.06,18
284,242.66,216.74,18
284,243.49,217.41,18
284,244.30,218.08,18
284,245.09,218.74,18
287,245.93,219.42,18
284,246.69,220.06,18
283,247.42,220.69,18
284,248.15,221.33,18
286,248.90,221.97,18
286,249.65,222.61,18
286,250.37,223.25,18
287,251.11,223.89,18
287,251.82,224.52,18
285,252.49,225.12,18
285,253.14,225.72,18
285,253.78,226.31,18
286,254.42,226.91,18
289,255.11,227.53,18
290,255.81,228.16,18
291,256.51,228.78,18
292,257.22,229.42,18
295,257.98,230.07,18
297,258.76,230.74,18
301,259.60,231.44,18
299,260.39,232.12,18
297,261.12,232.77,18
297,261.84,233.41,18
299,262.58,234.07,18
300,263.33,234.73,18
299,264.05,235.37,18
298,264.73,235.99,18
298,265.39,236.61,18
300,266.08,237.25,18
298,266.72,237.86,18
296,267.31,238.44,18
297,267.90,239.02,18
297,268.48,239.60,18
297,269.05,240.18,18
298,269.63,240.76,18
299,270.22,241.34,18
300,270.81,241.92,18
298,271.36,242.49,18
298,271.89,243.04,18
298,272.41,243.59,18
298,272.93,244.13,18
297,273.41,244.66,18
297,273.88,245.19,18
299,274.38,245.72,18
300,274.89,246.27,18
296,275.32,246.76,18
296,275.73,247.26,18
296,276.13,247.74,18
297,276.55,248.24,18
296,276.94,248.71,18
295,277.30,249.18,18
297,277.70,249.66,18
296,278.06,250.12,18
295,278.40,250.57,18
294,278.71,251.00,18
294,279.02,251.43,18
294,279.32,251.86,18
293,279.59,252.27,18
292,279.84,252.67,18
293,280.10,253.07,18
294,280.38,253.48,18
291,280.59,253.85,18
291,280.80,254.23,18
292,281.03,254.60,18
291,281.23,254.97,18
291,281.42,255.33,18
290,281.59,255.67,18
290,281.76,256.02,18
291,281.95,256.37,18
287,282.05,256.67,18
287,282.15,256.98,18
287,282.24,257.28,18
289,282.38,257.59,18
287,282.47,257.89,18
286,282.54,258.17,18
287,282.63,258.46,18
286,282.70,258.73,18
285,282.74,259.00,18
284,282.77,259.25,18
284,282.79,259.49,18
283,282.80,259.73,18
284,282.82,259.97,18
282,282.80,260.19,18
284,282.83,260.43,18
285,282.87,260.68,18
282,282.85,260.89,18
281,282.82,261.09,18
282,282.80,261.30,18
281,282.77,261.50,18
281,282.73,261.69,18
281,282.70,261.88,18
282,282.68,262.09,18
282,282.67,262.28,18
279,282.59,262.45,18
279,282.52,262.62,18
278,282.43,262.77,18
277,282.32,262.91,18
278,282.24,263.06,18
277,282.13,263.20,18
277,282.03,263.34,18
276,281.91,263.47,18
275,281.77,263.58,18
275,281.64,263.70,18
276,281.52,263.82,18
275,281.39,263.93,18
276,281.28,264.05,18
276,281.18,264.17,18
277,281.10,264.30,18
276,280.99,264.42,18
274,280.85,264.51,18
275,280.74,264.62,18
274,280.60,264.71,18
274,280.47,264.81,18
273,280.32,264.89,18
273,280.17,264.97,18
273,280.03,265.05,18
273,279.89,265.13,18
271,279.71,265.19,18
271,279.54,265.25,18
271,279.37,265.30,18
271,279.20,265.36,18
271,279.04,265.42,18
271,278.88,265.47,18
271,278.72,265.53,18
270,278.54,265.57,18
269,278.35,265.61,18
269,278.17,265.64,18
268,277.96,265.66,18
269,277.78,265.70,18
268,277.59,265.72,18
268,277.40,265.74,18
267,277.19,265.76,18
266,276.96,265.76,18
266,276.74,265.76,18
266,276.53,265.76,18
265,276.30,265.76,18
264,276.05,265.74,18
264,275.81,265.72,18
264,275.58,265.70,18
263,275.32,265.68,18
263,275.08,265.65,18
263,274.84,265.62,18
263,274.60,265.60,18
262,274.35,265.56,18
262,274.10,265.52,18
262,273.86,265.49,18
262,273.62,265.45,18
261,273.37,265.41,18
261,273.12,265.37,18
261,272.88,265.32,18
261,272.64,265.28,18
261,272.41,265.24,18
260,272.16,265.18,18
261,271.94,265.14,18
260,271.70,265.09,18
259,271.44,265.03,18
259,271.20,264.97,18
258,270.93,264.90,18
258,270.67,264.83,18
257,270.40,264.75,18
257,270.13,264.67,18
257,269.87,264.60,18
258,269.63,264.53,18
257,269.38,264.46,18
256,269.11,264.37,18
255,268.83,264.28,18
255,268.55,264.19,18
254,268.26,264.08,18
254,267.98,263.98,18
253,267.68,263.87,18
253,267.38,263.76,18
252,267.08,263.65,18
253,266.79,263.54,18
252,266.50,263.43,18
251,266.19,263.30,18
251,265.88,263.18,18
251,265.59,263.06,18
251,265.30,262.94,18
251,265.01,262.82,18
250,264.71,262.69,18
249,264.39,262.55,18
248,264.07,262.41,18
249,263.77,262.27,18
249,263.47,262.14,18
248,263.16,262.00,18
249,262.88,261.87,18
248,262.58,261.73,18
247,262.27,261.58,18
247,261.96,261.44,18
246,261.64,261.28,18
246,261.33,261.13,18
246,261.02,260.98,19
246,260.72,260.83,19
245,260.41,260.67,19
244,260.08,260.50,19
245,259.78,260.35,19
244,259.46,260.18,19
244,259.15,260.02,19
243,258.83,259.85,19
243,258.52,259.68,19
243,258.20,259.52,19
244,257.92,259.36,19
243,257.62,259.20,19
242,257.31,259.03,19
241,256.98,258.85,19
242,256.68,258.68,19
241,256.37,258.50,19
241,256.06,258.33,19
240,255.74,258.14,19
239,255.41,257.95,19
239,255.08,257.76,19
239,254.76,257.57,19
239,254.44,257.39,19
239,254.13,257.20,19
238,253.81,257.01,19
238,253.49,256.82,19
238,253.18,256.63,19
238,252.88,256.45,19
237,252.56,256.25,19
236,252.23,256.05,19
236,251.91,255.85,19
235,251.57,255.64,19
236,251.26,255.44,19
236,250.95,255.25,19
235,250.63,255.05,19
235,250.32,254.85,19
234,249.99,254.64,19
234,249.67,254.43,19
234,249.36,254.23,19
233,249.03,254.02,19
232,248.69,253.80,19
233,248.38,253.59,19
233,248.07,253.38,19
233,247.77,253.18,19
232,247.45,252.97,19
231,247.13,252.75,19
232,246.82,252.54,19
231,246.51,252.32,19
230,246.18,252.10,19
231,245.87,251.89,19
233,245.62,251.70,19
230,245.30,251.48,19
230,245.00,251.27,19
229,244.68,251.05,19
228,244.34,250.82,19
228,244.02,250.59,19
229,243.72,250.37,19
229,243.42,250.16,19
229,243.13,249.95,19
228,242.83,249.73,19
227,242.51,249.50,19
227,242.20,249.27,19
226,241.88,249.04,19
226,241.56,248.81,19
226,241.25,248.58,19
225,240.93,248.35,19
225,240.61,248.11,19
223,240.26,247.86,19
224,239.93,247.62,19
224,239.61,247.39,19
224,239.30,247.15,19
223,238.97,246.91,19
222,238.63,246.66,19
223,238.32,246.43,19
223,238.02,246.19,19
222,237.69,245.95,19
222,237.38,245.71,19
221,237.05,245.46,19
221,236.73,245.22,19
221,236.42,244.98,19
220,236.09,244.73,19
221,235.79,244.49,19
220,235.47,244.25,19
219,235.14,243.99,19
219,234.82,243.74,19
223,234.58,243.54,19
219,234.27,243.29,19
219,233.97,243.05,19
218,233.65,242.80,19
219,233.35,242.56,19
218,233.05,242.31,19
218,232.75,242.07,19
217,232.43,241.82,19
216,232.10,241.56,19
218,231.82,241.33,19
217,231.52,241.08,19
217,231.23,240.84,19
217,230.95,240.60,19
217,230.67,240.37,19
216,230.38,240.12,19
215,230.07,239.87,19
215,229.77,239.62,19
215,229.47,239.38,19
214,229.16,239.12,19
215,228.88,238.88,19
214,228.58,238.63,19
213,228.27,238.38,19
214,227.98,238.13,19
214,227.71,237.89,19
214,227.43,237.65,19
214,227.16,237.42,19
213,226.88,237.17,19
213,226.60,236.93,19
214,226.35,236.70,19
213,226.08,236.46,19
213,225.82,236.23,19
212,225.54,235.99,19
213,225.29,235.76,19
211,225.01,235.51,19
211,224.73,235.26,19
211,224.45,235.02,19
211,224.18,234.78,19
212,223.94,234.55,19
210,223.66,234.31,19
210,223.39,234.07,19
210,223.12,233.82,19
210,222.86,233.59,19
210,222.60,233.35,19
209,222.33,233.11,19
210,222.08,232.88,19
211,221.86,232.66,19
210,221.62,232.43,19
210,221.39,232.21,19
210,221.16,231.98,19
209,220.92,231.75,19
209,220.68,231.53,19
209,220.45,231.30,19
208,220.20,231.07,19
207,219.93,230.83,19
207,219.68,230.59,19
206,219.40,230.34,19
207,219.15,230.11,19
208,218.93,229.89,19
207,218.69,229.66,19
207,218.46,229.43,19
207,218.23,229.21,19
207,218.01,228.99,19
207,217.79,228.77,19
207,217.57,228.55,19
207,217.36,228.33,19
207,217.15,228.12,19
207,216.95,227.91,19
207,216.75,227.70,19
207,216.55,227.49,19
207,216.36,227.29,19
206,216.16,227.08,19
205,215.93,226.86,19
205,215.71,226.64,19
205,215.50,226.42,19
204,215.27,226.20,19
204,215.04,225.97,19
204,214.82,225.75,19
203,214.59,225.53,19
204,214.38,225.31,19
204,214.17,225.10,19
203,213.94,224.88,19
203,213.73,224.66,19
203,213.51,224.44,19
202,213.28,224.22,19
203,213.08,224.01,19
203,212.87,223.80,19
202,212.66,223.58,19
201,212.42,223.35,19
203,212.23,223.15,19
200,211.99,222.92,19
200,211.75,222.69,19
200,211.52,222.46,19
199,211.26,222.23,19
200,211.04,222.00,19
199,210.80,221.77,19
198,210.54,221.54,19
198,210.29,221.30,19
199,210.07,221.08,19
199,209.84,220.86,19
197,209.59,220.62,19
199,209.38,220.40,19
197,209.13,220.17,19
199,208.93,219.96,19
197,208.69,219.73,19
197,208.45,219.50,19
197,208.22,219.27,19
198,208.02,219.06,19
197,207.80,218.84,19
199,207.62,218.64,19
200,207.47,218.46,19
195,207.22,218.22,19
197,207.02,218.01,19
197,206.82,217.80,19
198,206.64,217.60,19
196,206.43,217.39,19
197,206.24,217.18,19
197,206.05,216.98,19
199,205.91,216.80,19
195,205.70,216.58,19
195,205.48,216.37,19
195,205.27,216.15,19
195,205.07,215.94,19
196,204.88,215.74,19
194,204.67,215.52,19
193,204.43,215.30,19
197,204.29,215.12,19
192,204.04,214.89,19
193,203.82,214.67,19
194,203.62,214.46,19
194,203.43,214.25,19
193,203.22,214.04,19
192,203.00,213.82,19
193,202.80,213.61,19
195,202.64,213.43,19
193,202.45,213.22,19
192,202.24,213.01,19
193,202.05,212.81,19
193,201.87,212.61,19
192,201.68,212.41,19
192,201.48,212.20,19
192,201.29,212.00,19
193,201.13,211.81,19
190,200.90,211.59,19
190,200.69,211.38,19
191,200.49,211.17,19
190,200.28,210.96,19
189,200.06,210.74,19
189,199.84,210.52,19
189,199.62,210.31,19
189,199.41,210.10,19
187,199.16,209.86,19
188,198.94,209.65,19
187,198.70,209.42,19
187,198.46,209.20,19
188,198.25,208.98,19
187,198.03,208.76,19
188,197.83,208.56,19
189,197.65,208.36,19
186,197.42,208.14,19
186,197.19,207.92,19
187,196.99,207.71,19
187,196.79,207.50,19
186,196.57,207.28,19
186,196.36,207.07,19
187,196.17,206.87,19
188,196.01,206.68,19
187,195.83,206.49,19
185,195.61,206.27,19
185,195.40,206.06,19
186,195.21,205.86,19
185,195.01,205.65,19
184,194.79,205.43,19
185,194.59,205.23,19
186,194.42,205.04,19
185,194.23,204.84,19
183,194.01,204.62,19
183,193.79,204.40,19
184,193.59,204.20,19
183,193.38,203.98,19
183,193.17,203.77,19
183,192.97,203.57,19
185,192.81,203.38,19
182,192.59,203.17,19
182,192.38,202.96,19
182,192.17,202.75,19
181,191.95,202.53,19
184,191.79,202.34,19
182,191.59,202.14,19
182,191.40,201.94,19
183,191.23,201.75,19
179,190.99,201.52,19
179,190.75,201.30,19
179,190.52,201.07,19
181,190.33,200.87,19
180,190.12,200.66,19
179,189.90,200.45,19
181,189.72,200.25,19
181,189.54,200.06,19
179,189.33,199.85,19
179,189.13,199.64,19
179,188.92,199.44,19
179,188.73,199.23,19
179,188.53,199.03,19
178,188.32,198.82,19
179,188.13,198.62,19
179,187.95,198.42,19
178,187.75,198.22,19
179,187.58,198.03,19
178,187.39,197.83,19
178,187.20,197.63,19
178,187.01,197.43,19
178,186.83,197.24,19
177,186.64,197.04,19
178,186.46,196.85,19
178,186.30,196.66,19
177,186.11,196.46,19
176,185.91,196.26,19
177,185.73,196.06,19
175,185.51,195.85,19
177,185.34,195.66,19
178,185.20,195.49,19
178,185.05,195.31,19
177,184.89,195.13,19
177,184.73,194.95,19
176,184.56,194.76,19
176,184.39,194.57,19
175,184.20,194.38,19
175,184.02,194.18,19
177,183.88,194.01,19
176,183.72,193.83,19
175,183.54,193.64,19
175,183.37,193.45,19
175,183.21,193.27,19
174,183.02,193.08,19
174,182.84,192.89,19
174,182.66,192.70,19
175,182.51,192.52,19
174,182.34,192.34,19
174,182.17,192.15,19
174,182.01,191.97,19
173,181.83,191.78,19
173,181.65,191.59,19
173,181.48,191.41,19
173,181.31,191.22,19
173,181.15,191.04,19
172,180.96,190.85,19
171,180.76,190.65,19
171,180.57,190.46,19
171,180.38,190.26,19
171,180.19,190.07,19
171,180.01,189.88,19
170,179.80,189.68,19
170,179.61,189.48,19
170,179.42,189.29,19
169,179.21,189.08,19
169,179.00,188.88,19
169,178.80,188.69,19
169,178.61,188.49,19
170,178.44,188.30,19
169,178.25,188.11,19
168,178.04,187.91,19
167,177.82,187.70,19
167,177.60,187.49,19
168,177.41,187.30,19
168,177.22,187.11,19
168,177.04,186.91,19
167,176.84,186.71,19
167,176.64,186.52,19
167,176.45,186.32,19
167,176.26,186.13,19
167,176.08,185.94,19
167,175.89,185.75,19
168,175.74,185.57,19
167,175.56,185.39,19
167,175.39,185.20,19
168,175.24,185.03,19
168,175.10,184.86,19
167,174.94,184.68,19
168,174.80,184.51,19
168,174.66,184.35,19
168,174.53,184.19,19
168,174.40,184.02,19
168,174.27,183.86,19
168,174.14,183.70,19
168,174.02,183.55,19
168,173.90,183.39,19
168,173.78,183.24,19
168,173.67,183.09,19
168,173.55,182.93,19
168,173.44,182.79,19
169,173.35,182.65,19
167,173.23,182.49,19
168,173.12,182.35,19
168,173.02,182.20,19
167,172.90,182.05,19
169,172.82,181.92,19
168,172.72,181.78,19
168,172.63,181.64,19
168,172.54,181.51,19
167,172.43,181.36,19
167,172.32,181.22,19
166,172.19,181.07,19
167,172.09,180.93,19
167,171.99,180.79,19
167,171.89,180.65,19
167,171.79,180.51,19
168,171.71,180.39,19
167,171.62,180.25,19
167,171.53,180.12,19
166,171.42,179.98,19
166,171.31,179.84,19
166,171.20,179.70,19
165,171.08,179.55,19
166,170.98,179.42,19
166,170.88,179.28,19
164,170.74,179.13,19
165,170.62,178.99,19
164,170.49,178.84,19
164,170.36,178.69,19
163,170.21,178.53,19
164,170.09,178.39,19
164,169.97,178.25,19
164,169.85,178.10,19
164,169.73,177.96,19
163,169.60,177.81,19
162,169.45,177.65,19
159,169.24,177.47,19
162,169.09,177.31,19
162,168.95,177.16,19
162,168.81,177.01,19
162,168.67,176.86,19
162,168.54,176.71,19
162,168.41,176.56,19
162,168.28,176.42,19
161,168.14,176.26,19
161,167.99,176.11,19
161,167.85,175.96,19
161,167.72,175.81,19
161,167.58,175.66,19
161,167.45,175.51,19
161,167.32,175.37,19
160,167.18,175.22,19
159,167.01,175.05,19
159,166.85,174.89,19
159,166.69,174.73,19
159,166.54,174.58,19
160,166.41,174.43,19
160,166.28,174.29,19
159,166.14,174.13,19
158,165.97,173.97,19
159,165.83,173.82,19
159,165.70,173.67,19
159,165.56,173.53,19
159,165.43,173.38,19
159,165.30,173.24,19
160,165.20,173.11,19
160,165.09,172.98,19
160,164.99,172.85,19
160,164.89,172.72,19
161,164.81,172.60,19
162,164.76,172.49,19
160,164.66,172.37,19
162,164.61,172.27,19
163,164.58,172.17,19
163,164.55,172.08,19
165,164.55,172.01,19
165,164.56,171.94,19
166,164.59,171.88,19
166,164.62,171.82,19
166,164.65,171.76,19
165,164.66,171.70,19
165,164.66,171.63,19
166,164.69,171.57,19
166,164.72,171.52,19
165,164.72,171.45,19
165,164.73,171.39,19
165,164.73,171.32,19
165,164.74,171.26,19
164,164.72,171.19,19
164,164.71,171.12,19
164,164.69,171.04,19
164,164.68,170.97,19
165,164.69,170.91,19
165,164.69,170.86,19
165,164.70,170.80,19
165,164.70,170.74,19
164,164.69,170.67,19
166,164.72,170.62,19
166,164.74,170.58,19
165,164.75,170.52,19
165,164.75,170.47,19
165,164.76,170.41,19
166,164.78,170.37,19
166,164.81,170.32,19
167,164.85,170.29,19
166,164.87,170.25,19
166,164.90,170.21,19
166,164.92,170.16,19
167,164.96,170.13,19
168,165.02,170.11,19
168,165.08,170.09,19
168,165.14,170.07,19
168,165.20,170.05,19
168,165.25,170.03,19
168,165.31,170.01,19
168,165.36,169.99,19
168,165.41,169.97,19
170,165.51,169.97,19
167,165.54,169.94,19
167,165.56,169.91,19
166,165.57,169.87,19
167,165.60,169.84,19
166,165.61,169.80,19
165,165.60,169.75,19
166,165.61,169.72,19
165,165.59,169.67,19
164,165.56,169.61,19
165,165.55,169.57,19
165,165.54,169.52,19
164,165.51,169.47,19
165,165.50,169.42,19
166,165.51,169.39,19
165,165.50,169.34,19
165,165.49,169.30,19
165,165.48,169.26,19
165,165.47,169.21,19
166,165.48,169.18,19
164,165.45,169.13,19
165,165.44,169.09,19
165,165.43,169.05,19
164,165.40,169.00,19
164,165.38,168.95,19
164,165.35,168.90,19
164,165.32,168.85,19
165,165.31,168.81,19
164,165.29,168.76,19
166,165.30,168.74,19
165,165.30,168.70,19
166,165.31,168.67,19
165,165.30,168.63,19
164,165.28,168.59,19
165,165.27,168.55,19
170,165.37,168.57,19
166,165.38,168.54,19
166,165.39,168.52,19
165,165.38,168.48,19
165,165.38,168.45,19
167,165.41,168.43,19
166,165.42,168.41,19
165,165.41,168.37,19
165,165.40,168.34,19
165,165.40,168.31,19
165,165.39,168.27,19
165,165.38,168.24,19
164,165.35,168.20,19
164,165.33,168.16,19
164,165.30,168.11,19
165,165.29,168.08,19
165,165.29,168.05,19
164,165.26,168.01,19
165,165.26,167.98,19
164,165.23,167.94,19
164,165.21,167.90,19
164,165.18,167.86,19
164,165.16,167.82,19
164,165.14,167.79,19
165,165.13,167.76,19
164,165.11,167.72,19
164,165.09,167.68,19
165,165.09,167.66,19
166,165.10,167.64,19
166,165.12,167.62,19
166,165.14,167.61,19
167,165.18,167.60,19
168,165.23,167.61,19
169,165.31,167.62,19
168,165.36,167.62,19
168,165.42,167.63,19
168,165.47,167.63,19
168,165.52,167.63,19
169,165.59,167.65,19
169,165.66,167.66,19
169,165.72,167.67,19
169,165.79,167.69,19
169,165.85,167.70,19
170,165.94,167.72,19
170,166.02,167.75,19
170,166.10,167.77,19
171,166.19,167.80,19
169,166.25,167.81,19
170,166.33,167.84,19
171,166.42,167.87,19
171,166.51,167.90,19
171,166.60,167.93,19
172,166.71,167.97,19
173,166.83,168.02,19
172,166.94,168.06,19
172,167.04,168.10,19
171,167.12,168.13,19
171,167.20,168.16,19
171,167.27,168.19,19
172,167.37,168.22,19
172,167.46,168.26,19
172,167.55,168.30,19
172,167.64,168.34,19
172,167.73,168.37,19
171,167.79,168.40,19
171,167.86,168.43,19
173,167.96,168.47,19
171,168.02,168.50,19
171,168.08,168.52,19
172,168.16,168.56,19
171,168.21,168.58,19
172,168.29,168.61,19
172,168.36,168.65,19
171,168.42,168.67,19
172,168.49,168.71,19
173,168.58,168.75,19
175,168.71,168.81,20
173,168.79,168.85,20
173,168.88,168.89,21
175,169.00,168.96,21
174,169.10,169.01,22
173,169.18,169.05,22
173,169.25,169.09,22
173,169.33,169.12,22
173,169.40,169.16,22
173,169.47,169.20,22
173,169.55,169.24,22
173,169.61,169.28,22
173,169.68,169.31,22
173,169.75,169.35,22
173,169.81,169.39,22
173,169.88,169.42,22
174,169.96,169.47,22
175,170.06,169.52,22
173,170.12,169.56,22
174,170.20,169.60,22
174,170.27,169.65,22
174,170.35,169.69,22
173,170.40,169.72,22
173,170.45,169.76,22
173,170.50,169.79,22
175,170.59,169.84,22
175,170.68,169.89,22
174,170.75,169.93,22
173,170.79,169.97,22
171,170.80,169.98,22
174,170.86,170.02,22
175,170.94,170.07,22
175,171.03,170.11,22
174,171.08,170.15,22
175,171.16,170.20,22
174,171.22,170.24,22
175,171.30,170.29,22
174,171.35,170.33,22
175,171.42,170.37,22
175,171.49,170.42,22
175,171.56,170.46,22
174,171.61,170.50,22
175,171.68,170.54,22
175,171.75,170.59,22
175,171.81,170.63,22
175,171.88,170.68,22
175,171.94,170.72,22
175,172.00,170.76,22
175,172.06,170.80,22
175,172.12,170.85,22
176,172.20,170.90,22
175,172.25,170.94,22
175,172.31,170.98,22
175,172.36,171.02,22
175,172.41,171.06,22
175,172.47,171.10,22
175,172.52,171.14,22
174,172.55,171.17,22
175,172.59,171.21,22
174,172.62,171.23,22
175,172.67,171.27,22
175,172.72,171.31,22
174,172.74,171.34,22
175,172.79,171.37,22
174,172.81,171.40,22
173,172.82,171.41,22
174,172.84,171.44,22
174,172.86,171.47,22
175,172.91,171.50,22
174,172.93,171.53,22
174,172.95,171.55,22
174,172.97,171.58,22
173,172.97,171.59,22
174,172.99,171.61,22
175,173.03,171.65,22
176,173.09,171.69,22
174,173.11,171.71,22
174,173.13,171.74,22
173,173.12,171.75,22
174,173.14,171.77,22
175,173.18,171.80,22
174,173.20,171.83,22
175,173.23,171.86,22
174,173.25,171.88,22
175,173.28,171.91,22
174,173.30,171.93,22
174,173.31,171.95,22
174,173.32,171.97,22
174,173.34,171.99,22
174,173.35,172.01,22
174,173.36,172.03,22
174,173.38,172.05,22
175,173.41,172.08,22
174,173.42,172.10,22
174,173.43,172.12,22
174,173.44,172.14,22
175,173.47,172.17,22
174,173.49,172.19,22
177,173.56,172.23,22
176,173.60,172.27,22
175,173.63,172.30,22
175,173.66,172.33,22
175,173.69,172.35,22
177,173.75,172.40,22
179,173.86,172.47,22
180,173.98,172.54,22
179,174.08,172.61,22
179,174.18,172.67,22
179,174.28,172.73,22
179,174.37,172.80,22
181,174.50,172.88,22
180,174.61,172.95,22
180,174.72,173.02,22
183,174.89,173.12,22
184,175.07,173.23,22
184,175.25,173.34,22
183,175.40,173.43,22
183,175.55,173.53,22
183,175.70,173.62,22
183,175.85,173.72,22
184,176.01,173.82,22
183,176.15,173.91,22
185,176.33,174.02,22
184,176.48,174.12,22
183,176.61,174.21,22
183,176.74,174.30,22
185,176.91,174.41,22
187,177.11,174.53,22
186,177.29,174.65,22
188,177.50,174.78,22
189,177.73,174.92,22
190,177.98,175.07,22
188,178.18,175.20,22
187,178.35,175.32,22
190,178.58,175.47,22
191,178.83,175.62,22
190,179.06,175.77,22
192,179.32,175.93,22
195,179.63,176.12,22
194,179.92,176.30,22
194,180.20,176.47,22
195,180.49,176.66,22
197,180.82,176.86,22
198,181.17,177.07,22
198,181.50,177.28,22
200,181.87,177.51,22
200,182.24,177.74,22
201,182.61,177.97,22
201,182.98,178.20,22
204,183.40,178.46,22
204,183.81,178.71,22
205,184.24,178.98,22
207,184.69,179.26,22
210,185.20,179.56,22
210,185.69,179.87,22
211,186.20,180.18,22
210,186.68,180.48,22
210,187.14,180.77,22
210,187.60,181.06,22
211,188.07,181.36,22
210,188.51,181.65,22
210,188.94,181.93,22
211,189.38,182.22,22
212,189.83,182.52,22
212,190.27,182.82,22
212,190.71,183.11,22
213,191.15,183.41,22
215,191.63,183.72,22
214,192.08,184.03,22
214,192.52,184.33,22
214,192.95,184.62,22
215,193.39,184.93,22
216,193.84,185.24,22
218,194.32,185.56,22
217,194.78,185.88,22
217,195.22,186.19,22
218,195.68,186.51,22
217,196.10,186.81,22
217,196.52,187.12,22
216,196.91,187.40,22
217,197.31,187.70,22
219,197.75,188.01,22
221,198.21,188.34,22
221,198.67,188.67,22
221,199.11,188.99,22
220,199.53,189.30,22
219,199.92,189.60,22
222,200.36,189.92,22
221,200.77,190.23,22
222,201.20,190.55,22
224,201.66,190.89,22
224,202.10,191.22,22
224,202.54,191.55,22
226,203.01,191.89,22
228,203.51,192.25,22
228,204.00,192.61,22
229,204.50,192.97,22
229,204.99,193.33,22
229,205.47,193.69,22
229,205.94,194.04,22
229,206.40,194.39,22
229,206.85,194.74,22
229,207.30,195.08,22
230,207.75,195.43,22
230,208.20,195.78,22
230,208.63,196.12,22
231,209.08,196.47,22
231,209.52,196.81,22
230,209.93,197.14,22
230,210.33,197.47,22
231,210.74,197.81,22
230,211.13,198.13,22
230,211.50,198.45,22
231,211.89,198.77,22
231,212.28,199.10,22
229,212.61,199.40,22
230,212.96,199.70,22
231,213.32,200.01,22
230,213.65,200.31,22
230,213.98,200.61,22
230,214.30,200.91,22
230,214.61,201.20,22
231,214.94,201.49,22
234,215.32,201.82,22
236,215.74,202.16,22
235,216.12,202.49,22
236,216.52,202.82,22
239,216.97,203.19,22
242,217.47,203.57,22
243,217.98,203.97,22
244,218.50,204.37,22
244,219.01,204.77,22
247,219.57,205.19,22
249,220.16,205.63,22
250,220.76,206.07,22
249,221.32,206.50,22
251,221.91,206.94,22
251,222.50,207.38,22
251,223.07,207.82,22
254,223.69,208.28,22
255,224.31,208.75,22
254,224.91,209.20,22
254,225.49,209.65,22
258,226.14,210.13,22
260,226.81,210.63,22
259,227.46,211.12,22
260,228.11,211.60,22
260,228.75,212.09,22
259,229.35,212.56,22
258,229.92,213.01,22
257,230.47,213.45,22
259,231.04,213.91,22
259,231.60,214.36,22
258,232.12,214.79,22
258,232.64,215.23,22
261,233.21,215.68,22
263,233.80,216.16,22
262,234.37,216.62,22
264,234.96,217.09,22
265,235.56,217.57,22
264,236.13,218.03,22
264,236.69,218.49,22
264,237.23,218.95,22
264,237.77,219.40,22
264,238.29,219.84,22
264,238.81,220.29,22
262,239.27,220.70,22
263,239.75,221.13,22
263,240.21,221.55,22
264,240.69,221.97,22
265,241.17,222.40,22
266,241.67,222.84,22
266,242.16,223.27,22
266,242.63,223.69,22
268,243.14,224.14,22
270,243.68,224.60,22
268,244.17,225.03,22
270,244.68,225.48,22
271,245.21,225.94,22
272,245.74,226.40,22
272,246.27,226.85,22
272,246.78,227.30,22
274,247.33,227.77,22
277,247.92,228.26,22
279,248.54,228.77,22
280,249.17,229.28,22
279,249.77,229.78,22
280,250.37,230.28,22
282,251.01,230.80,22
283,251.65,231.32,22
284,252.29,231.85,22
285,252.95,232.38,22
287,253.63,232.93,22
288,254.32,233.48,22
290,255.03,234.04,22
289,255.71,234.59,22
291,256.41,235.16,22
292,257.13,235.72,22
292,257.82,236.29,22
294,258.55,236.86,22
296,259.30,237.46,22
297,260.05,238.05,22
298,260.81,238.65,22
297,261.53,239.23,22
295,262.20,239.79,22
296,262.88,240.35,22
296,263.54,240.91,22
297,264.21,241.47,22
296,264.85,242.02,22
296,265.47,242.56,22
296,266.08,243.09,22
296,266.68,243.62,22
293,267.20,244.11,22
293,267.72,244.60,22
293,268.23,245.09,22
293,268.72,245.57,22
292,269.19,246.03,22
292,269.64,246.49,22
290,270.05,246.92,22
293,270.51,247.39,22
292,270.94,247.83,22
290,271.32,248.25,22
291,271.71,248.68,22
291,272.10,249.10,22
291,272.48,249.52,22
290,272.83,249.93,22
292,273.21,250.35,22
292,273.59,250.76,22
291,273.94,251.17,22
290,274.26,251.56,22
289,274.55,251.93,22
294,274.94,252.35,22
289,275.22,252.72,22
289,275.50,253.08,22
290,275.79,253.45,22
289,276.05,253.80,22
287,276.27,254.14,22
286,276.47,254.46,22
287,276.68,254.78,22
287,276.88,255.10,22
285,277.04,255.40,22
285,277.20,255.70,22
286,277.38,256.00,22
286,277.55,256.30,22
285,277.70,256.59,22
283,277.81,256.85,22
283,277.91,257.11,22
283,278.01,257.37,22
283,278.11,257.63,22
282,278.19,257.87,22
282,278.27,258.11,22
282,278.34,258.35,22
281,278.39,258.58,22
281,278.45,258.80,22
281,278.50,259.02,22
280,278.53,259.23,22
280,278.56,259.44,22
279,278.57,259.64,22
279,278.57,259.83,22
280,278.60,260.03,22
278,278.59,260.21,22
277,278.56,260.38,22
277,278.53,260.55,22
276,278.48,260.70,22
276,278.43,260.85,22
276,278.38,261.01,22
279,278.39,261.19,22
275,278.32,261.32,22
276,278.28,261.47,22
275,278.21,261.61,22
274,278.13,261.73,22
273,278.03,261.84,22
273,277.92,261.95,22
274,277.85,262.07,22
273,277.75,262.18,22
273,277.65,262.29,22
273,277.56,262.40,22
272,277.45,262.50,22
272,277.34,262.59,22
272,277.23,262.68,22
271,277.11,262.77,22
271,276.99,262.85,22
271,276.87,262.93,22
270,276.73,263.00,22
270,276.60,263.07,22
269,276.44,263.13,22
269,276.29,263.19,22
269,276.15,263.25,22
268,275.99,263.30,22
268,275.83,263.34,22
268,275.67,263.39,22
267,275.50,263.43,22
266,275.31,263.45,22
266,275.12,263.48,22
266,274.94,263.50,22
265,274.74,263.52,22
265,274.54,263.53,22
264,274.33,263.54,22
264,274.13,263.54,22
264,273.92,263.55,22
264,273.73,263.55,22
263,273.51,263.54,22
262,273.28,263.53,22
263,273.08,263.52,22
263,272.87,263.52,22
263,272.68,263.51,22
262,272.46,263.50,22
261,272.23,263.47,22
261,272.01,263.45,22
260,271.77,263.41,22
260,271.53,263.38,22
259,271.28,263.34,22
259,271.04,263.29,22
260,270.82,263.26,22
259,270.58,263.22,22
258,270.33,263.17,22
257,270.06,263.10,22
258,269.82,263.05,22
257,269.56,262.99,22
256,269.29,262.92,22
257,269.05,262.86,22
256,268.79,262.79,22
257,268.55,262.74,22
255,268.28,262.66,22
255,268.01,262.58,22
255,267.75,262.51,22
254,267.48,262.42,22
254,267.21,262.34,22
254,266.94,262.25,22
254,266.69,262.17,22
253,266.41,262.08,22
252,266.12,261.98,22
252,265.84,261.88,22
251,265.54,261.77,22
251,265.25,261.66,22
250,264.95,261.55,22
247,264.59,261.40,22
250,264.30,261.29,22
251,264.03,261.18,22
249,263.73,261.06,22
249,263.44,260.94,22
248,263.13,260.81,22
248,262.83,260.68,22
248,262.53,260.56,22
248,262.24,260.43,22
247,261.93,260.30,22
247,261.63,260.16,22
246,261.32,260.02,22
246,261.02,259.88,22
246,260.72,259.74,22
245,260.40,259.60,22
244,260.07,259.44,22
244,259.75,259.29,22
244,259.44,259.13,22
244,259.13,258.98,22
243,258.81,258.82,23
243,258.49,258.66,23
242,258.16,258.50,23
242,257.84,258.33,23
241,257.50,258.16,23
241,257.17,257.99,23
241,256.85,257.82,23
241,256.53,257.65,23
240,256.20,257.47,23
241,255.89,257.31,23
239,255.56,257.12,23
240,255.25,256.95,23
239,254.92,256.77,23
239,254.60,256.60,23
239,254.29,256.42,23
238,253.96,256.24,23
239,253.67,256.06,23
238,253.35,255.88,23
237,253.02,255.69,23
237,252.70,255.51,23
238,252.41,255.33,23
237,252.10,255.15,23
236,251.78,254.96,23
239,251.52,254.80,23
238,251.25,254.63,23
237,250.97,254.45,23
235,250.65,254.26,23
236,250.36,254.08,23
236,250.07,253.90,23
236,249.79,253.72,23
235,249.49,253.53,23
234,249.18,253.33,23
234,248.88,253.14,23
234,248.58,252.95,23
233,248.27,252.75,23
232,247.94,252.54,23
232,247.63,252.34,23
233,247.33,252.14,23
232,247.03,251.94,23
232,246.73,251.74,23
232,246.43,251.55,23
231,246.12,251.34,23
231,245.82,251.14,23
231,245.52,250.94,23
231,245.23,250.74,23
230,244.93,250.53,23
229,244.61,250.31,23
230,244.32,250.11,23
229,244.01,249.90,23
228,243.69,249.68,23
228,243.38,249.46,23
225,243.01,249.22,23
228,242.71,249.01,23
226,242.38,248.78,23
226,242.05,248.55,23
226,241.73,248.32,23
226,241.41,248.10,23
226,241.10,247.88,23
225,240.78,247.65,23
225,240.47,247.42,23
227,240.20,247.22,23
224,239.87,246.99,23
224,239.56,246.76,23
223,239.22,246.52,23
223,238.90,246.28,23
222,238.56,246.04,23
223,238.25,245.81,23
223,237.95,245.58,23
223,237.65,245.36,23
222,237.33,245.12,23
221,237.01,244.88,23
222,236.71,244.65,23
221,236.39,244.42,23
221,236.09,244.18,23
220,235.76,243.94,23
219,235.43,243.69,23
221,235.14,243.46,23
220,234.84,243.23,23
219,234.52,242.99,23
219,234.21,242.75,23
219,233.91,242.51,23
218,233.59,242.27,23
219,233.30,242.03,23
218,232.99,241.79,23
218,232.69,241.55,23
217,232.38,241.31,23
217,232.07,241.07,23
217,231.77,240.83,23
217,231.47,240.59,23
216,231.16,240.34,23
216,230.86,240.10,23
216,230.56,239.86,23
216,230.27,239.62,23
215,229.97,239.37,23
215,229.67,239.13,23
215,229.37,238.89,23
215,229.09,238.65,23
218,228.86,238.44,23
214,228.57,238.20,23
214,228.28,237.96,23
214,227.99,237.72,23
214,227.71,237.48,23
212,227.40,237.22,23
212,227.09,236.97,23
212,226.79,236.72,23
212,226.49,236.47,23
211,226.18,236.22,23
212,225.90,235.98,23
212,225.62,235.74,23
211,225.33,235.49,23
211,225.04,235.25,23
211,224.76,235.00,23
210,224.46,234.75,23
211,224.19,234.52,23
210,223.91,234.27,23
209,223.61,234.02,23
210,223.34,233.78,23
209,223.05,233.53,23
209,222.77,233.28,23
208,222.48,233.03,23
208,222.19,232.78,23
207,221.88,232.52,23
207,221.59,232.27,23
207,221.29,232.02,23
207,221.01,231.77,23
207,220.73,231.52,23
206,220.43,231.26,23
206,220.15,231.01,23
206,219.86,230.76,23
206,219.59,230.51,23
206,219.31,230.27,23
205,219.03,230.01,23
209,218.83,229.80,23
205,218.55,229.56,23
206,218.30,229.32,23
205,218.03,229.08,23
204,217.75,228.83,23
204,217.48,228.58,23
203,217.19,228.32,23
204,216.92,228.08,23
203,216.65,227.83,23
204,216.39,227.59,23
202,216.10,227.33,23
202,215.82,227.08,23
202,215.55,226.83,23
202,215.28,226.58,23
201,214.99,226.33,23
201,214.71,226.07,23
201,214.44,225.82,23
201,214.17,225.57,23
201,213.90,225.33,23
201,213.65,225.08,23
202,213.41,224.85,23
201,213.16,224.62,23
201,212.92,224.38,23
200,212.66,224.14,23
200,212.41,223.89,23
200,212.16,223.66,23
199,211.90,223.41,23
198,211.62,223.15,23
198,211.35,222.90,23
199,211.10,222.66,23
199,210.86,222.43,23
200,210.64,222.20,23
201,210.45,221.99,23
199,210.22,221.76,23
198,209.98,221.52,23
198,209.74,221.29,23
199,209.52,221.07,23
198,209.29,220.83,23
198,209.07,220.61,23
199,208.86,220.39,23
199,208.67,220.18,23
197,208.43,219.94,23
195,208.16,219.70,23
196,207.92,219.46,23
199,207.74,219.25,23
196,207.51,219.02,23
195,207.26,218.78,23
196,207.03,218.55,23
198,206.85,218.35,23
196,206.63,218.12,23
195,206.40,217.89,23
196,206.19,217.67,23
197,206.01,217.47,23
197,205.83,217.26,23
196,205.63,217.05,23
196,205.44,216.84,23
197,205.27,216.64,23
196,205.09,216.43,23
195,204.88,216.22,23
195,204.69,216.01,23
195,204.49,215.80,23
195,204.30,215.59,23
195,204.12,215.38,23
194,203.92,215.17,23
197,203.78,214.99,23
194,203.58,214.78,23
194,203.39,214.57,23
195,203.22,214.38,23
195,203.06,214.18,23
194,202.88,213.98,23
193,202.68,213.77,23
194,202.51,213.57,23
195,202.36,213.39,23
194,202.19,213.19,23
192,201.98,212.98,23
194,201.82,212.79,23
194,201.67,212.60,23
193,201.49,212.41,23
193,201.32,212.21,23
194,201.18,212.03,23
195,201.05,211.86,23
192,200.87,211.66,23
192,200.70,211.47,23
191,200.50,211.26,23
193,200.35,211.08,23
191,200.17,210.88,23
192,200.00,210.69,23
193,199.86,210.51,23
193,199.72,210.34,23
193,199.59,210.16,23
192,199.44,209.98,23
191,199.27,209.79,23
193,199.14,209.62,23
192,199.00,209.45,23
192,198.86,209.27,23
193,198.74,209.11,23
193,198.63,208.95,23
190,198.46,208.76,23
190,198.29,208.57,23
191,198.14,208.40,23
191,198.00,208.22,23
191,197.86,208.05,23
190,197.70,207.87,23
191,197.57,207.70,23
192,197.46,207.54,23
189,197.29,207.36,23
189,197.12,207.17,23
189,196.96,206.99,23
190,196.82,206.82,23
189,196.66,206.65,23
189,196.51,206.47,23
191,196.40,206.31,23
190,196.27,206.15,23
189,196.13,205.98,23
189,195.98,205.81,23
189,195.84,205.64,23
190,195.73,205.48,23
188,195.57,205.31,23
188,195.42,205.14,23
189,195.29,204.98,23
189,195.17,204.82,23
189,195.04,204.66,23
187,194.88,204.48,23
187,194.73,204.31,23
189,194.61,204.15,23
188,194.48,203.99,23
188,194.35,203.83,23
188,194.22,203.67,23
189,194.12,203.53,23
188,194.00,203.37,23
188,193.88,203.22,23
187,193.74,203.06,23
188,193.62,202.91,23
188,193.51,202.76,23
187,193.38,202.60,23
187,193.25,202.44,23
188,193.15,202.30,23
188,193.04,202.16,23
187,192.92,202.00,23
186,192.79,201.84,23
187,192.67,201.70,23
185,192.52,201.53,23
185,192.37,201.36,23
185,192.22,201.20,23
187,192.11,201.06,23
184,191.95,200.89,23
185,191.81,200.73,23
185,191.68,200.57,23
184,191.52,200.40,23
184,191.37,200.24,23
184,191.23,200.08,23
184,191.08,199.92,23
186,190.98,199.78,23
184,190.84,199.62,23
184,190.70,199.46,23
185,190.59,199.32,23
185,190.48,199.18,23
184,190.35,199.02,23
183,190.20,198.86,23
184,190.08,198.72,23
186,189.99,198.59,23
183,189.86,198.43,23
183,189.72,198.28,23
183,189.58,198.13,23
184,189.47,197.98,23
183,189.34,197.83,23
183,189.22,197.69,23
183,189.09,197.54,23
185,189.01,197.41,23
182,188.87,197.26,23
182,188.73,197.11,23
183,188.62,196.97,23
184,188.52,196.84,23
184,188.43,196.71,23
183,188.33,196.57,23
184,188.24,196.45,23
185,188.17,196.33,23
185,188.11,196.22,23
184,188.03,196.10,23
184,187.95,195.97,23
184,187.87,195.85,23
184,187.79,195.74,23
184,187.72,195.62,23
185,187.66,195.51,23
185,187.61,195.41,23
185,187.56,195.30,23
187,187.55,195.22,23
183,187.45,195.10,23
183,187.37,194.98,23
183,187.28,194.86,23
183,187.19,194.74,23
184,187.13,194.63,23
185,187.09,194.54,23
183,187.00,194.42,23
182,186.90,194.30,23
183,186.83,194.18,23
183,186.75,194.07,23
183,186.67,193.96,23
182,186.58,193.84,23
184,186.53,193.74,23
186,186.52,193.66,23
184,186.47,193.57,23
182,186.38,193.45,23
182,186.29,193.34,23
183,186.23,193.23,23
183,186.16,193.13,23
182,186.08,193.02,23
183,186.02,192.92,23
183,185.96,192.82,23
182,185.88,192.71,23
182,185.80,192.61,23
182,185.72,192.50,23
182,185.65,192.40,23
182,185.58,192.29,23
181,185.48,192.18,23
183,185.43,192.09,23
184,185.41,192.01,23
181,185.32,191.90,23
181,185.23,191.79,23
182,185.17,191.69,23
182,185.10,191.59,23
184,185.08,191.52,23
182,185.02,191.42,23
183,184.98,191.34,23
183,184.94,191.25,23
180,184.84,191.14,23
179,184.72,191.02,23
181,184.65,190.92,23
184,184.64,190.85,23
180,184.54,190.74,23
179,184.43,190.62,23
182,184.38,190.54,23
182,184.34,190.45,23
179,184.23,190.34,23
181,184.17,190.24,23
181,184.10,190.15,23
181,184.04,190.06,23
181,183.98,189.97,23
182,183.94,189.89,23
183,183.92,189.82,23
184,183.92,189.76,23
181,183.86,189.68,23
179,183.77,189.57,23
182,183.73,189.49,23
182,183.70,189.42,23
181,183.64,189.33,23
183,183.63,189.27,23
184,183.64,189.22,23
183,183.62,189.16,23
181,183.57,189.07,23
182,183.54,189.00,23
181,183.49,188.92,23
183,183.48,188.86,23
183,183.47,188.81,23
183,183.46,188.75,23
185,183.49,188.71,23
187,183.56,188.69,23
183,183.55,188.64,23
183,183.54,188.58,23
183,183.53,188.52,23
183,183.52,188.47,23
184,183.53,188.42,23
184,183.54,188.38,23
185,183.57,188.35,23
186,183.62,188.32,23
183,183.60,188.27,23
183,183.59,188.22,23
184,183.60,188.17,23
184,183.61,188.13,23
184,183.62,188.09,23
184,183.62,188.05,23
186,183.67,188.03,23
186,183.72,188.01,23
184,183.72,187.97,23
183,183.71,187.92,23
183,183.69,187.87,23
184,183.70,187.83,23
185,183.73,187.80,23
184,183.73,187.77,23
186,183.78,187.75,23
186,183.82,187.73,23
186,183.87,187.71,23
184,183.87,187.68,23
184,183.87,187.64,23
185,183.89,187.61,23
186,183.94,187.60,23
186,183.98,187.58,23
186,184.02,187.56,23
186,184.06,187.55,23
186,184.10,187.53,23
185,184.11,187.51,23
183,184.09,187.46,23
185,184.11,187.44,23
185,184.13,187.41,23
186,184.16,187.40,23
186,184.20,187.39,23
186,184.24,187.37,23
184,184.23,187.34,23
185,184.25,187.32,23
185,184.26,187.29,23
186,184.30,187.28,23
186,184.33,187.27,23
186,184.37,187.25,23
188,184.44,187.26,23
188,184.51,187.27,23
186,184.54,187.26,23
185,184.55,187.23,23
186,184.58,187.22,23
186,184.61,187.21,23
187,184.65,187.21,23
187,184.70,187.20,23
188,184.77,187.21,23
188,184.83,187.22,23
186,184.85,187.21,23
185,184.86,187.19,23
186,184.88,187.17,23
187,184.92,187.17,23
188,184.98,187.18,23
188,185.04,187.19,23
187,185.08,187.19,23
188,185.14,187.20,23
188,185.20,187.20,23
186,185.22,187.19,23
187,185.25,187.19,23
187,185.29,187.19,23
189,185.36,187.21,23
186,185.37,187.19,23
189,185.45,187.21,23
189,185.52,187.23,23
187,185.55,187.23,23
187,185.58,187.23,23
187,185.60,187.22,23
188,185.65,187.23,23
188,185.70,187.24,23
188,185.74,187.25,23
188,185.79,187.25,23
188,185.83,187.26,23
190,185.92,187.29,23
187,185.94,187.29,23
188,185.98,187.29,23
189,186.04,187.31,23
189,186.10,187.33,23
189,186.16,187.34,23
190,186.23,187.37,23
189,186.29,187.39,23
188,186.32,187.39,23
188,186.36,187.40,23
189,186.41,187.41,23
189,186.46,187.43,23
190,186.53,187.46,23
189,186.58,187.47,23
190,186.65,187.50,23
190,186.72,187.52,23
189,186.76,187.54,23
188,186.79,187.54,23
189,186.83,187.56,23
189,186.88,187.57,23
190,186.94,187.59,23
189,186.98,187.61,23
190,187.04,187.63,23
190,187.10,187.66,23
187,187.10,187.65,23
188,187.12,187.65,23
189,187.15,187.67,23
189,187.19,187.68,23
189,187.23,187.69,23
189,187.26,187.71,23
190,187.32,187.73,23
189,187.35,187.74,23
189,187.38,187.75,23
189,187.42,187.77,23
188,187.43,187.77,23
193,187.54,187.82,23
189,187.57,187.83,23
190,187.62,187.85,23
190,187.66,187.88,23
190,187.71,187.90,23
188,187.72,187.90,23
189,187.74,187.91,23
191,187.81,187.94,23
189,187.83,187.95,24
189,187.85,187.96,24
189,187.88,187.97,25
190,187.92,187.99,25
190,187.96,188.01,26
189,187.98,188.02,26
189,188.00,188.03,27
190,188.04,188.05,27
190,188.08,188.07,28
189,188.10,188.08,28
188,188.10,188.08,29
190,188.14,188.10,29
191,188.19,188.13,30
190,188.23,188.15,30
189,188.25,188.16,31
190,188.28,188.17,31
191,188.33,188.20,31
189,188.35,188.21,31
188,188.34,188.21,31
190,188.37,188.23,31
191,188.43,188.25,31
189,188.44,188.26,31
190,188.47,188.28,31
190,188.50,188.30,31
190,188.53,188.31,31
190,188.56,188.33,31
190,188.59,188.35,31
194,188.70,188.40,31
190,188.72,188.42,31
190,188.75,188.43,31
189,188.75,188.44,31
190,188.78,188.46,31
191,188.82,188.48,31
189,188.83,188.49,31
188,188.81,188.48,31
190,188.83,188.50,31
191,188.88,188.52,31
190,188.90,188.54,31
189,188.90,188.54,31
191,188.94,188.57,31
191,188.98,188.59,31
189,188.98,188.59,31
189,188.99,188.60,31
191,189.03,188.62,31
190,189.04,188.64,31
189,189.04,188.64,31
189,189.04,188.64,31
191,189.08,188.67,31
191,189.12,188.69,31
190,189.14,188.70,31
188,189.12,188.70,31
191,189.15,188.72,31
190,189.17,188.73,31
189,189.17,188.73,31
190,189.18,188.75,31
191,189.22,188.77,31
191,189.26,188.79,31
190,189.27,188.80,31
190,189.28,188.82,31
190,189.30,188.83,31
189,189.29,188.83,31
190,189.31,188.84,31
193,189.38,188.88,31
