Teste de posicionamento 1.1(EMG ao centro do bíceps (Verde A, Vermelho B) + Ref no pulso) - 16/09/2024 - teste5 - 5 contrações
long frequencia = 1000;                 //frequência de aquisição do sinal, neste caso, 1000 sinais por segundo
float fator1 = 0.02, fator2 = 0.01;
float incerteza = 0.13;
float pico_basal = 130; // Mínimo para ser considerado um pico de contração
int filtro_horizontal=200000; //intervalo de 200ms valores não pode ter mais de 1 contração

Biceps_D,mediaMovel_1,mediaMovel_2,Contracao
248,4.96,2.48,0
248,9.82,4.94,0
251,14.64,7.40,0
251,19.37,9.83,0
251,24.00,12.24,0
249,28.50,14.61,0
247,32.87,16.94,0
248,37.18,19.25,0
250,41.43,21.55,0
252,45.64,23.86,0
249,49.71,26.11,0
248,53.68,28.33,0
249,57.58,30.53,0
252,61.47,32.75,0
252,65.28,34.94,0
251,69.00,37.10,0
247,72.56,39.20,0
249,76.09,41.30,0
249,79.54,43.38,0
252,82.99,45.46,0
252,86.37,47.53,0
250,89.65,49.55,0
249,92.83,51.55,0
251,96.00,53.54,0
253,99.14,55.54,0
251,102.17,57.49,0
249,105.11,59.41,0
248,107.97,61.29,0
250,110.81,63.18,0
254,113.67,65.09,0
251,116.42,66.95,0
248,119.05,68.76,0
249,121.65,70.56,0
250,124.22,72.35,0
255,126.83,74.18,0
251,129.32,75.95,0
248,131.69,77.67,0
250,134.06,79.39,0
250,136.37,81.10,0
252,138.69,82.81,0
251,140.93,84.49,0
250,143.11,86.14,0
249,145.23,87.77,0
250,147.33,89.40,0
252,149.42,91.02,0
250,151.43,92.61,0
247,153.34,94.15,0
248,155.24,95.69,0
250,157.13,97.24,0
252,159.03,98.78,0
251,160.87,100.31,0
249,162.63,101.79,0
249,164.36,103.27,0
252,166.11,104.75,0
251,167.81,106.22,0
249,169.43,107.64,0
249,171.02,109.06,0
250,172.60,110.47,0
251,174.17,111.87,0
250,175.69,113.25,0
248,177.14,114.60,0
249,178.57,115.94,0
251,180.02,117.29,0
252,181.46,118.64,0
250,182.83,119.96,0
248,184.13,121.24,0
250,185.45,122.52,0
251,186.76,123.81,0
253,188.09,125.10,0
248,189.29,126.33,0
250,190.50,127.57,0
249,191.67,128.78,0
251,192.86,130.00,0
249,193.98,131.19,0
248,195.06,132.36,0
247,196.10,133.51,0
247,197.12,134.64,0
252,198.21,135.82,0
250,199.25,136.96,0
248,200.23,138.07,0
248,201.18,139.17,0
251,202.18,140.29,0
251,203.15,141.39,0
248,204.05,142.46,0
248,204.93,143.51,0
250,205.83,144.58,0
251,206.73,145.64,0
251,207.62,146.70,0
247,208.41,147.70,0
249,209.22,148.71,0
252,210.07,149.75,0
252,210.91,150.77,0
249,211.68,151.75,0
247,212.38,152.70,0
249,213.11,153.67,0
251,213.87,154.64,0
252,214.63,155.61,0
248,215.30,156.54,0
249,215.98,157.46,0
249,216.64,158.38,0
252,217.34,159.31,0
250,218.00,160.22,0
247,218.58,161.09,0
249,219.18,161.97,0
252,219.84,162.87,0
252,220.48,163.76,0
249,221.05,164.61,0
247,221.57,165.43,0
249,222.12,166.27,0
251,222.70,167.12,0
251,223.27,167.96,0
249,223.78,168.77,0
248,224.26,169.56,0
249,224.76,170.35,0
252,225.30,171.17,0
253,225.86,171.99,0
247,226.28,172.74,0
249,226.74,173.50,0
249,227.18,174.26,0
252,227.68,175.03,0
249,228.10,175.77,0
247,228.48,176.49,0
249,228.89,177.21,0
252,229.35,177.96,0
251,229.79,178.69,0
248,230.15,179.38,0
247,230.49,180.06,0
249,230.86,180.75,0
252,231.28,181.46,0
251,231.68,182.16,0
246,231.96,182.79,0
248,232.28,183.45,0
251,232.66,184.12,0
251,233.02,184.79,0
251,233.38,185.45,0
247,233.66,186.07,0
249,233.96,186.70,0
251,234.30,187.34,0
251,234.64,187.98,0
248,234.90,188.58,0
249,235.19,189.18,0
248,235.44,189.77,0
251,235.75,190.38,0
251,236.06,190.99,0
247,236.28,191.55,0
249,236.53,192.12,0
250,236.80,192.70,0
253,237.13,193.30,0
250,237.38,193.87,0
248,237.60,194.41,0
249,237.82,194.96,0
253,238.13,195.54,0
251,238.38,196.09,0
248,238.58,196.61,0
248,238.77,197.13,0
250,238.99,197.66,0
251,239.23,198.19,0
250,239.45,198.71,0
247,239.60,199.19,0
248,239.76,199.68,0
250,239.97,200.18,0
252,240.21,200.70,0
249,240.39,201.18,0
246,240.50,201.63,0
249,240.67,202.10,0
249,240.83,202.57,0
251,241.04,203.06,0
248,241.18,203.51,0
247,241.29,203.94,0
248,241.43,204.38,0
255,241.70,204.89,0
249,241.85,205.33,0
247,241.95,205.75,0
248,242.07,206.17,0
249,242.21,206.60,0
251,242.38,207.04,0
249,242.52,207.46,0
247,242.61,207.86,0
248,242.71,208.26,0
250,242.86,208.68,0
250,243.00,209.09,0
249,243.12,209.49,0
247,243.20,209.86,0
248,243.30,210.24,0
251,243.45,210.65,0
249,243.56,211.04,0
247,243.63,211.39,0
248,243.72,211.76,0
249,243.82,212.13,0
252,243.99,212.53,0
249,244.09,212.90,0
247,244.15,213.24,0
249,244.24,213.60,0
250,244.36,213.96,0
252,244.51,214.34,0
248,244.58,214.68,0
247,244.63,215.00,0
248,244.70,215.33,0
252,244.84,215.70,0
250,244.95,216.04,0
247,244.99,216.35,0
249,245.07,216.68,0
249,245.15,217.00,0
251,245.26,217.34,0
250,245.36,217.67,0
245,245.35,217.94,0
247,245.38,218.23,0
249,245.46,218.54,0
249,245.53,218.84,0
250,245.62,219.15,0
245,245.60,219.41,0
247,245.63,219.69,0
249,245.70,219.98,0
249,245.76,220.27,0
247,245.79,220.54,0
246,245.79,220.79,0
248,245.84,221.06,0
251,245.94,221.36,0
248,245.98,221.63,0
245,245.96,221.86,0
246,245.96,222.11,0
251,246.06,222.39,0
249,246.12,222.66,0
247,246.14,222.90,0
246,246.14,223.13,0
247,246.15,223.37,0
250,246.23,223.64,0
249,246.29,223.89,0
247,246.30,224.12,0
246,246.30,224.34,0
249,246.35,224.59,0
249,246.40,224.83,0
247,246.41,225.06,0
245,246.39,225.26,0
245,246.36,225.45,0
249,246.41,225.69,0
250,246.48,225.93,0
245,246.45,226.12,0
247,246.46,226.33,0
247,246.47,226.54,0
250,246.55,226.77,0
249,246.59,226.99,0
245,246.56,227.17,0
247,246.57,227.37,0
248,246.60,227.58,0
249,246.65,227.79,0
247,246.66,227.99,0
245,246.62,228.16,0
246,246.61,228.33,0
248,246.64,228.53,0
249,246.68,228.74,0
247,246.69,228.92,0
245,246.66,229.08,0
247,246.66,229.26,0
249,246.71,229.46,0
248,246.74,229.64,0
245,246.70,229.79,0
246,246.69,229.96,0
248,246.71,230.14,0
249,246.76,230.33,0
247,246.76,230.49,0
245,246.73,230.64,0
245,246.69,230.78,0
249,246.74,230.96,0
253,246.87,231.18,0
246,246.85,231.33,0
245,246.81,231.47,0
246,246.80,231.61,0
249,246.84,231.79,0
248,246.86,231.95,0
246,246.85,232.09,0
245,246.81,232.22,0
246,246.79,232.36,0
249,246.84,232.52,0
248,246.86,232.68,0
244,246.80,232.79,0
245,246.77,232.91,0
247,246.77,233.05,0
247,246.78,233.19,0
245,246.74,233.31,0
243,246.67,233.41,0
247,246.67,233.54,0
250,246.74,233.71,0
248,246.76,233.85,0
244,246.71,233.95,0
247,246.71,234.08,0
247,246.72,234.21,0
249,246.77,234.36,0
247,246.77,234.49,0
246,246.76,234.60,0
245,246.72,234.71,0
248,246.75,234.84,0
248,246.77,234.97,0
246,246.76,235.08,0
243,246.68,235.16,0
244,246.63,235.25,0
248,246.65,235.38,0
246,246.64,235.48,0
244,246.59,235.57,0
245,246.56,235.66,0
245,246.53,235.76,0
246,246.51,235.86,0
245,246.48,235.95,0
243,246.41,236.02,0
245,246.39,236.11,0
245,246.36,236.20,0
246,246.35,236.30,0
243,246.28,236.36,0
242,246.20,236.42,0
243,246.13,236.49,0
245,246.11,236.57,0
245,246.09,236.66,0
241,245.99,236.70,0
243,245.93,236.76,0
243,245.87,236.82,0
243,245.81,236.89,0
242,245.74,236.94,0
240,245.62,236.97,0
242,245.55,237.02,0
245,245.54,237.10,0
241,245.45,237.14,0
239,245.32,237.16,0
240,245.21,237.18,0
242,245.15,237.23,0
243,245.10,237.29,0
241,245.02,237.33,0
239,244.90,237.34,0
239,244.78,237.36,0
241,244.71,237.40,0
242,244.65,237.44,0
241,244.58,237.48,0
238,244.45,237.48,0
239,244.34,237.50,0
240,244.25,237.52,0
241,244.19,237.56,0
239,244.09,237.57,0
237,243.94,237.57,0
237,243.80,237.56,0
240,243.73,237.59,0
239,243.63,237.60,0
238,243.52,237.60,0
237,243.39,237.60,0
238,243.28,237.60,0
239,243.20,237.62,0
238,243.09,237.62,0
236,242.95,237.60,0
237,242.83,237.60,0
240,242.78,237.62,0
238,242.68,237.63,0
237,242.57,237.62,0
235,242.42,237.59,0
237,242.31,237.59,0
239,242.24,237.60,0
239,242.18,237.62,0
235,242.03,237.59,0
237,241.93,237.58,0
237,241.83,237.58,0
239,241.78,237.59,0
237,241.68,237.59,0
235,241.55,237.56,0
236,241.44,237.54,0
237,241.35,237.54,0
236,241.24,237.52,0
236,241.14,237.51,0
234,240.99,237.47,0
236,240.89,237.46,0
239,240.86,237.47,0
238,240.80,237.48,0
236,240.70,237.46,0
235,240.59,237.44,0
236,240.50,237.43,0
237,240.43,237.42,0
235,240.32,237.40,0
236,240.23,237.38,0
234,240.11,237.35,0
237,240.05,237.35,0
237,239.98,237.34,0
237,239.92,237.34,0
236,239.85,237.33,0
235,239.75,237.30,0
236,239.67,237.29,0
236,239.60,237.28,0
233,239.47,237.23,0
233,239.34,237.19,0
233,239.21,237.15,0
233,239.09,237.11,0
233,238.97,237.07,0
233,238.85,237.03,0
231,238.69,236.97,0
233,238.58,236.93,0
231,238.42,236.87,0
231,238.28,236.81,0
233,238.17,236.77,0
231,238.03,236.71,0
230,237.87,236.65,0
229,237.69,236.57,0
231,237.56,236.51,0
234,237.48,236.49,0
232,237.38,236.44,0
233,237.29,236.41,0
231,237.16,236.35,0
231,237.04,236.30,0
232,236.94,236.26,0
233,236.86,236.23,0
232,236.76,236.18,0
230,236.63,236.12,0
231,236.51,236.07,0
230,236.38,236.01,0
231,236.28,235.96,0
233,236.21,235.93,0
231,236.11,235.88,0
229,235.96,235.81,0
232,235.88,235.77,1
235,235.87,235.77,1
229,235.73,235.70,2
229,235.60,235.63,2
227,235.42,235.54,3
229,235.29,235.48,3
231,235.21,235.43,3
228,235.06,235.36,3
229,234.94,235.30,3
228,234.80,235.22,3
230,234.71,235.17,3
229,234.59,235.11,3
228,234.46,235.04,3
229,234.35,234.98,3
229,234.25,234.92,3
230,234.16,234.87,3
227,234.02,234.79,3
229,233.92,234.73,3
229,233.82,234.68,3
227,233.68,234.60,3
228,233.57,234.53,3
227,233.44,234.46,3
227,233.31,234.38,3
226,233.16,234.30,3
227,233.04,234.23,3
228,232.94,234.16,3
227,232.82,234.09,3
228,232.72,234.03,3
229,232.65,233.98,3
230,232.60,233.94,3
228,232.50,233.88,3
225,232.35,233.79,3
225,232.21,233.70,3
225,232.06,233.62,3
228,231.98,233.56,3
228,231.90,233.51,3
226,231.78,233.43,3
224,231.63,233.34,3
223,231.46,233.23,3
223,231.29,233.13,3
224,231.14,233.04,3
224,231.00,232.95,3
223,230.84,232.85,3
225,230.72,232.77,3
223,230.57,232.67,3
221,230.38,232.56,3
223,230.23,232.46,3
224,230.10,232.38,3
221,229.92,232.26,3
222,229.76,232.16,3
221,229.59,232.05,3
221,229.42,231.94,3
223,229.29,231.85,3
221,229.12,231.74,3
221,228.96,231.63,3
220,228.78,231.52,3
220,228.60,231.40,3
219,228.41,231.28,3
220,228.24,231.16,3
217,228.02,231.02,3
218,227.82,230.89,3
219,227.64,230.77,3
218,227.45,230.65,3
220,227.30,230.54,3
221,227.17,230.44,3
221,227.05,230.35,3
219,226.89,230.24,3
219,226.73,230.12,3
222,226.64,230.04,3
222,226.55,229.96,3
222,226.45,229.88,3
221,226.35,229.79,3
220,226.22,229.70,3
219,226.07,229.59,3
221,225.97,229.50,3
221,225.87,229.42,3
225,225.86,229.37,3
224,225.82,229.32,3
221,225.72,229.24,3
221,225.63,229.15,3
223,225.58,229.09,3
224,225.54,229.04,3
224,225.51,228.99,3
221,225.42,228.91,3
220,225.31,228.82,3
222,225.25,228.75,3
219,225.12,228.66,3
219,225.00,228.56,3
220,224.90,228.47,3
219,224.78,228.38,3
223,224.75,228.33,3
221,224.67,228.25,3
219,224.56,228.16,3
221,224.49,228.09,3
224,224.48,228.05,3
223,224.45,228.00,3
225,224.46,227.97,3
224,224.45,227.93,3
222,224.40,227.87,3
221,224.33,227.80,3
221,224.27,227.73,3
221,224.20,227.66,3
223,224.18,227.62,3
223,224.15,227.57,3
223,224.13,227.53,3
221,224.07,227.46,3
219,223.97,227.38,3
221,223.91,227.31,3
219,223.81,227.23,3
217,223.67,227.13,3
221,223.62,227.07,3
216,223.47,226.96,3
219,223.38,226.88,3
225,223.41,226.86,3
221,223.36,226.80,3
222,223.33,226.75,3
220,223.27,226.68,3
219,223.18,226.61,3
221,223.14,226.55,3
223,223.14,226.51,3
221,223.09,226.46,3
219,223.01,226.38,3
220,222.95,226.32,3
219,222.87,226.25,3
220,222.81,226.19,3
221,222.78,226.13,3
221,222.74,226.08,3
221,222.71,226.03,3
220,222.65,225.97,3
225,222.70,225.96,3
225,222.75,225.95,3
227,222.83,225.96,3
225,222.88,225.95,3
224,222.90,225.93,3
224,222.92,225.91,3
228,223.02,225.93,3
231,223.18,225.99,3
229,223.30,226.02,3
226,223.35,226.02,3
224,223.36,225.99,3
225,223.40,225.98,3
224,223.41,225.97,3
225,223.44,225.96,3
224,223.45,225.94,3
223,223.44,225.91,3
226,223.49,225.91,3
225,223.52,225.90,3
224,223.53,225.88,3
224,223.54,225.86,3
225,223.57,225.85,3
228,223.66,225.87,3
225,223.69,225.86,3
224,223.69,225.85,3
224,223.70,225.83,3
225,223.73,225.82,3
223,223.71,225.79,3
228,223.80,225.81,3
227,223.86,225.83,3
223,223.84,225.80,3
228,223.93,225.82,3
233,224.11,225.89,3
229,224.21,225.92,3
226,224.24,225.92,3
225,224.26,225.91,3
229,224.35,225.94,3
229,224.45,225.97,3
224,224.44,225.96,3
228,224.51,225.98,3
225,224.52,225.97,3
224,224.51,225.95,3
227,224.56,225.96,3
225,224.57,225.95,3
225,224.57,225.94,3
226,224.60,225.94,3
224,224.59,225.92,3
224,224.58,225.90,3
223,224.55,225.87,3
225,224.56,225.86,3
225,224.57,225.85,3
228,224.63,225.87,3
232,224.78,225.94,3
231,224.91,225.99,3
226,224.93,225.99,3
227,224.97,226.00,3
232,225.11,226.06,3
227,225.15,226.07,3
227,225.18,226.08,3
225,225.18,226.07,3
227,225.22,226.07,3
224,225.19,226.05,3
224,225.17,226.03,3
223,225.13,226.00,3
225,225.12,225.99,3
226,225.14,225.99,3
224,225.12,225.97,3
223,225.08,225.94,3
224,225.05,225.92,3
227,225.09,225.93,3
223,225.05,225.91,3
223,225.01,225.88,3
224,224.99,225.86,3
225,224.99,225.85,3
222,224.93,225.81,3
223,224.89,225.78,3
224,224.87,225.76,3
223,224.84,225.74,3
226,224.86,225.74,3
224,224.84,225.72,3
225,224.85,225.71,3
225,224.85,225.71,3
221,224.77,225.66,3
225,224.78,225.65,3
226,224.80,225.66,3
223,224.76,225.63,3
223,224.73,225.60,3
221,224.66,225.56,3
221,224.58,225.51,3
224,224.57,225.50,3
223,224.54,225.47,3
224,224.53,225.46,3
223,224.50,225.43,3
221,224.43,225.39,3
223,224.40,225.37,3
222,224.35,225.33,3
223,224.32,225.31,3
223,224.30,225.29,3
226,224.33,225.29,3
225,224.35,225.29,3
223,224.32,225.27,3
225,224.33,225.26,3
224,224.33,225.25,3
221,224.26,225.21,3
221,224.19,225.17,3
221,224.13,225.13,3
228,224.21,225.15,3
223,224.18,225.13,3
223,224.16,225.11,3
228,224.24,225.14,3
222,224.19,225.11,3
227,224.25,225.13,3
226,224.28,225.14,3
225,224.30,225.13,3
225,224.31,225.13,3
224,224.30,225.12,3
225,224.32,225.12,3
226,224.35,225.13,3
223,224.33,225.11,3
226,224.36,225.12,3
227,224.41,225.14,3
228,224.48,225.16,3
224,224.47,225.15,3
229,224.56,225.19,3
232,224.71,225.26,3
232,224.86,225.33,3
228,224.92,225.35,3
225,224.92,225.35,3
228,224.98,225.38,3
234,225.16,225.46,3
233,225.32,225.54,3
230,225.42,225.58,3
229,225.49,225.62,3
241,225.80,225.77,4
243,226.14,225.94,4
246,226.54,226.14,4
241,226.83,226.29,4
240,227.09,226.43,4
243,227.41,226.60,4
252,227.90,226.85,4
251,228.36,227.09,4
249,228.78,227.31,4
241,229.02,227.45,4
243,229.30,227.60,4
251,229.73,227.84,4
255,230.24,228.11,4
255,230.73,228.38,4
252,231.16,228.61,4
251,231.56,228.84,4
248,231.89,229.03,4
251,232.27,229.25,4
258,232.78,229.54,4
263,233.39,229.87,4
250,233.72,230.07,4
257,234.18,230.34,4
259,234.68,230.63,4
261,235.21,230.93,4
253,235.56,231.15,4
267,236.19,231.51,4
269,236.85,231.89,4
267,237.45,232.24,4
261,237.92,232.52,4
257,238.30,232.77,4
261,238.76,233.05,4
260,239.18,233.32,4
261,239.62,233.60,4
257,239.97,233.83,4
274,240.65,234.23,4
276,241.35,234.65,4
269,241.91,234.99,4
271,242.49,235.35,4
281,243.26,235.81,4
281,244.01,236.26,4
283,244.79,236.73,4
276,245.42,237.12,4
272,245.95,237.47,4
274,246.51,237.84,4
274,247.06,238.20,4
286,247.84,238.68,4
281,248.50,239.10,4
283,249.19,239.54,4
282,249.85,239.96,4
279,250.43,240.35,4
284,251.10,240.79,4
275,251.58,241.13,4
284,252.23,241.56,4
277,252.72,241.92,4
285,253.37,242.35,4
292,254.14,242.84,4
295,254.96,243.36,4
298,255.82,243.91,4
293,256.56,244.40,4
300,257.43,244.96,4
301,258.30,245.52,4
305,259.24,246.11,4
305,260.15,246.70,4
293,260.81,247.16,4
308,261.75,247.77,4
310,262.72,248.40,4
312,263.70,249.03,4
305,264.53,249.59,4
299,265.22,250.09,4
302,265.96,250.60,4
300,266.64,251.10,4
305,267.40,251.64,4
302,268.10,252.14,4
299,268.71,252.61,4
305,269.44,253.13,4
309,270.23,253.69,4
301,270.85,254.17,4
303,271.49,254.65,4
301,272.08,255.12,4
304,272.72,255.61,4
312,273.50,256.17,4
306,274.15,256.67,4
313,274.93,257.23,4
315,275.73,257.81,4
316,276.54,258.39,4
308,277.17,258.89,4
305,277.72,259.35,4
321,278.59,259.96,4
323,279.48,260.60,4
314,280.17,261.13,4
316,280.88,261.68,4
318,281.63,262.24,4
324,282.47,262.86,4
321,283.24,263.44,4
315,283.88,263.96,4
327,284.74,264.59,4
330,285.65,265.24,4
325,286.43,265.84,4
323,287.17,266.41,4
334,288.10,267.09,4
332,288.98,267.73,4
325,289.70,268.31,4
321,290.33,268.83,4
329,291.10,269.44,4
337,292.02,270.11,4
336,292.90,270.77,4
327,293.58,271.33,4
329,294.29,271.91,4
338,295.16,272.57,4
342,296.10,273.26,4
343,297.04,273.96,4
337,297.84,274.59,4
335,298.58,275.20,4
340,299.41,275.84,4
341,300.24,276.50,4
342,301.08,277.15,4
343,301.91,277.81,4
339,302.66,278.42,4
341,303.42,279.05,4
339,304.13,279.65,4
343,304.91,280.28,4
338,305.57,280.86,4
350,306.46,281.55,4
340,307.13,282.13,4
342,307.83,282.73,4
347,308.61,283.37,4
342,309.28,283.96,4
341,309.92,284.53,4
341,310.54,285.10,4
346,311.25,285.71,4
342,311.86,286.27,4
347,312.56,286.88,4
350,313.31,287.51,4
347,313.99,288.10,4
342,314.55,288.64,4
354,315.34,289.29,4
349,316.01,289.89,4
346,316.61,290.45,4
350,317.28,291.05,4
356,318.05,291.70,4
350,318.69,292.28,4
344,319.20,292.80,4
348,319.77,293.35,4
347,320.32,293.89,4
345,320.81,294.40,4
344,321.27,294.89,4
345,321.75,295.39,4
343,322.17,295.87,4
342,322.57,296.33,4
342,322.96,296.79,4
345,323.40,297.27,4
345,323.83,297.75,4
341,324.18,298.18,4
340,324.49,298.60,4
341,324.82,299.02,4
340,325.13,299.43,4
340,325.42,299.84,4
343,325.77,300.27,4
342,326.10,300.69,4
339,326.36,301.07,4
343,326.69,301.49,4
338,326.92,301.85,4
338,327.14,302.22,4
340,327.40,302.59,4
338,327.61,302.95,4
336,327.78,303.28,4
340,328.02,303.65,4
336,328.18,303.97,4
339,328.40,304.32,4
335,328.53,304.63,4
337,328.70,304.95,4
335,328.82,305.25,4
337,328.99,305.57,4
336,329.13,305.87,4
338,329.30,306.19,4
334,329.40,306.47,4
333,329.47,306.74,4
335,329.58,307.02,4
335,329.69,307.30,4
331,329.72,307.54,4
333,329.78,307.79,4
331,329.81,308.02,4
331,329.83,308.25,4
329,329.81,308.46,4
328,329.78,308.66,4
329,329.76,308.86,4
331,329.79,309.08,4
332,329.83,309.31,4
327,329.77,309.49,4
327,329.72,309.66,4
327,329.66,309.84,4
327,329.61,310.01,4
325,329.52,310.16,4
328,329.49,310.34,4
325,329.40,310.48,4
326,329.33,310.64,4
324,329.22,310.77,4
324,329.12,310.90,4
324,329.02,311.03,4
324,328.92,311.16,4
327,328.88,311.32,4
325,328.80,311.46,4
323,328.68,311.57,4
323,328.57,311.69,4
323,328.46,311.80,4
322,328.33,311.90,4
323,328.22,312.01,4
322,328.10,312.11,4
321,327.96,312.20,4
319,327.78,312.27,4
321,327.64,312.36,4
319,327.47,312.42,4
319,327.30,312.49,4
317,327.09,312.54,4
317,326.89,312.58,4
317,326.69,312.62,4
317,326.50,312.67,4
318,326.33,312.72,4
320,326.20,312.79,4
316,326.00,312.83,4
319,325.86,312.89,4
317,325.68,312.93,4
320,325.57,313.00,4
317,325.40,313.04,4
316,325.21,313.07,4
315,325.01,313.09,4
314,324.79,313.10,4
315,324.59,313.12,4
313,324.36,313.12,4
313,324.13,313.11,4
313,323.91,313.11,4
313,323.69,313.11,4
312,323.46,313.10,4
311,323.21,313.08,4
311,322.96,313.06,4
311,322.72,313.04,4
309,322.45,313.00,4
309,322.18,312.96,4
309,321.92,312.92,4
308,321.64,312.87,4
308,321.37,312.82,4
307,321.08,312.76,4
308,320.82,312.72,4
309,320.58,312.68,4
310,320.37,312.65,4
308,320.12,312.60,4
309,319.90,312.57,4
309,319.68,312.53,4
307,319.43,312.48,4
308,319.20,312.43,4
306,318.94,312.37,4
305,318.66,312.29,4
306,318.40,312.23,4
305,318.14,312.16,4
304,317.85,312.08,4
303,317.56,311.99,4
303,317.26,311.90,4
302,316.96,311.80,4
301,316.64,311.69,4
301,316.33,311.58,4
302,316.04,311.49,4
301,315.74,311.38,4
299,315.41,311.26,4
301,315.12,311.16,4
299,314.79,311.03,4
299,314.48,310.91,4
297,314.13,310.78,4
299,313.83,310.66,4
297,313.49,310.52,4
296,313.14,310.38,4
295,312.78,310.22,4
295,312.42,310.07,4
295,312.07,309.92,4
295,311.73,309.77,4
294,311.38,309.61,4
293,311.01,309.45,4
293,310.65,309.28,4
292,310.28,309.11,4
293,309.93,308.95,4
291,309.55,308.77,4
291,309.18,308.59,4
292,308.84,308.42,4
291,308.48,308.25,4
289,308.09,308.06,5
290,307.73,307.88,5
289,307.36,307.69,5
288,306.97,307.49,5
288,306.59,307.30,5
287,306.20,307.09,5
288,305.83,306.90,5
287,305.46,306.70,5
286,305.07,306.50,5
285,304.67,306.28,5
285,304.27,306.07,5
283,303.85,305.84,5
284,303.45,305.62,5
283,303.04,305.39,5
282,302.62,305.16,5
282,302.21,304.93,5
283,301.82,304.71,5
281,301.41,304.47,5
281,301.00,304.24,5
281,300.60,304.00,5
280,300.19,303.76,5
280,299.78,303.53,5
279,299.37,303.28,5
279,298.96,303.04,5
278,298.54,302.79,5
277,298.11,302.53,5
278,297.71,302.29,5
277,297.29,302.03,5
277,296.89,301.78,5
276,296.47,301.52,5
277,296.08,301.28,5
276,295.68,301.03,5
275,295.27,300.77,5
274,294.84,300.50,5
275,294.44,300.24,5
275,294.05,299.99,5
273,293.63,299.72,5
273,293.22,299.45,5
272,292.80,299.18,5
273,292.40,298.92,5
272,291.99,298.65,5
272,291.59,298.38,5
270,291.16,298.10,5
270,290.74,297.82,5
270,290.32,297.54,5
270,289.92,297.26,5
271,289.54,297.00,5
268,289.11,296.71,5
269,288.71,296.43,5
267,288.27,296.14,5
268,287.87,295.86,5
267,287.45,295.57,5
265,287.00,295.26,5
268,286.62,294.99,5
268,286.25,294.72,5
266,285.84,294.43,5
265,285.43,294.14,5
264,285.00,293.84,5
265,284.60,293.55,5
265,284.20,293.26,5
263,283.78,292.96,5
263,283.37,292.66,5
263,282.96,292.37,5
262,282.54,292.06,5
262,282.13,291.76,5
261,281.71,291.45,5
260,281.27,291.14,5
260,280.85,290.83,5
261,280.45,290.53,5
259,280.02,290.21,5
259,279.60,289.90,5
260,279.21,289.60,5
258,278.78,289.29,5
258,278.37,288.97,5
257,277.94,288.65,5
257,277.52,288.34,5
257,277.11,288.02,5
257,276.71,287.71,5
257,276.32,287.41,5
255,275.89,287.08,5
256,275.49,286.77,5
255,275.08,286.45,5
256,274.70,286.15,5
255,274.31,285.84,5
254,273.90,285.52,5
253,273.48,285.20,5
254,273.09,284.88,5
253,272.69,284.56,5
253,272.30,284.25,5
252,271.89,283.93,5
252,271.49,283.61,5
252,271.10,283.29,5
251,270.70,282.97,5
251,270.31,282.65,5
251,269.92,282.33,5
250,269.52,282.01,5
250,269.13,281.69,5
250,268.75,281.37,5
249,268.35,281.05,5
249,267.97,280.73,5
248,267.57,280.40,5
249,267.20,280.09,5
249,266.83,279.78,5
248,266.46,279.46,5
248,266.09,279.14,5
247,265.70,278.82,5
247,265.33,278.50,5
245,264.92,278.17,5
245,264.53,277.84,5
246,264.16,277.52,5
246,263.79,277.20,5
246,263.44,276.89,5
245,263.07,276.57,5
244,262.69,276.25,5
245,262.33,275.93,5
245,261.99,275.62,5
244,261.63,275.31,5
243,261.25,274.99,5
243,260.89,274.67,5
242,260.51,274.34,5
243,260.16,274.03,5
241,259.78,273.70,5
240,259.38,273.36,5
240,258.99,273.02,5
240,258.61,272.69,5
239,258.22,272.36,5
239,257.84,272.02,5
239,257.46,271.69,5
240,257.11,271.38,5
241,256.79,271.07,5
238,256.41,270.74,5
237,256.03,270.40,5
237,255.64,270.07,5
238,255.29,269.75,5
239,254.97,269.44,5
238,254.63,269.13,5
237,254.27,268.81,5
236,253.91,268.48,5
237,253.57,268.16,5
235,253.20,267.83,5
235,252.84,267.50,5
235,252.48,267.18,5
235,252.13,266.86,5
234,251.77,266.53,5
233,251.39,266.19,5
235,251.06,265.88,5
233,250.70,265.55,5
233,250.35,265.23,5
234,250.02,264.91,5
233,249.68,264.60,5
232,249.33,264.27,5
232,248.98,263.95,5
233,248.66,263.64,5
234,248.37,263.34,5
231,248.02,263.02,5
229,247.64,262.68,5
231,247.31,262.36,5
232,247.00,262.06,5
231,246.68,261.75,5
229,246.33,261.42,5
230,246.00,261.10,5
230,245.68,260.79,5
229,245.35,260.48,5
229,245.02,260.16,5
229,244.70,259.85,5
229,244.39,259.54,5
229,244.08,259.24,5
228,243.76,258.92,5
229,243.46,258.62,5
231,243.21,258.35,5
229,242.93,258.05,5
229,242.65,257.76,5
228,242.36,257.47,5
227,242.05,257.16,5
227,241.75,256.86,5
227,241.45,256.56,5
228,241.18,256.28,5
227,240.90,255.98,5
225,240.58,255.67,5
225,240.27,255.37,5
225,239.97,255.06,5
225,239.67,254.76,5
225,239.37,254.46,5
225,239.09,254.17,5
224,238.78,253.87,5
223,238.47,253.56,5
224,238.18,253.26,5
223,237.88,252.96,5
223,237.58,252.66,5
223,237.29,252.36,5
222,236.98,252.06,5
221,236.66,251.75,5
221,236.35,251.44,5
221,236.04,251.14,5
221,235.74,250.84,5
220,235.42,250.53,5
221,235.14,250.23,5
220,234.83,249.93,5
220,234.54,249.63,5
220,234.25,249.34,5
219,233.94,249.03,5
217,233.60,248.71,5
222,233.37,248.44,5
218,233.06,248.14,5
217,232.74,247.83,5
217,232.43,247.52,5
217,232.12,247.22,5
217,231.82,246.91,5
216,231.50,246.60,5
215,231.17,246.29,5
215,230.85,245.98,5
215,230.53,245.67,5
215,230.22,245.36,5
216,229.93,245.07,5
215,229.64,244.76,5
214,229.32,244.46,5
214,229.02,244.15,5
213,228.70,243.84,5
212,228.36,243.52,5
213,228.06,243.22,5
213,227.75,242.92,5
213,227.46,242.62,5
212,227.15,242.31,5
211,226.83,242.00,5
211,226.51,241.69,5
212,226.22,241.39,5
211,225.92,241.09,5
211,225.62,240.79,5
210,225.31,240.48,5
210,225.00,240.17,5
210,224.70,239.87,5
209,224.39,239.56,5
209,224.08,239.26,5
209,223.78,238.95,5
208,223.46,238.64,5
207,223.13,238.33,5
207,222.81,238.01,5
207,222.49,237.70,5
207,222.18,237.40,5
207,221.88,237.09,5
207,221.58,236.79,5
206,221.27,236.48,5
207,220.98,236.19,5
207,220.70,235.90,5
207,220.43,235.61,5
207,220.16,235.32,5
206,219.88,235.03,5
205,219.58,234.73,5
203,219.25,234.41,5
205,218.96,234.12,5
207,218.73,233.85,5
205,218.45,233.56,5
204,218.16,233.26,5
204,217.88,232.97,5
204,217.60,232.68,5
203,217.31,232.38,5
203,217.02,232.09,5
203,216.74,231.80,5
201,216.43,231.49,5
201,216.12,231.19,5
201,215.82,230.88,5
201,215.52,230.59,5
201,215.23,230.29,5
201,214.95,230.00,5
200,214.65,229.70,5
200,214.35,229.40,5
200,214.07,229.11,5
200,213.78,228.81,5
200,213.51,228.53,5
198,213.20,228.22,5
201,212.96,227.95,5
201,212.72,227.68,5
199,212.44,227.39,5
199,212.17,227.11,5
197,211.87,226.81,5
197,211.57,226.51,5
198,211.30,226.22,5
197,211.01,225.93,5
198,210.75,225.65,5
197,210.48,225.37,5
196,210.19,225.07,5
196,209.91,224.78,5
196,209.63,224.49,5
194,209.32,224.19,5
194,209.01,223.89,5
193,208.69,223.58,5
195,208.41,223.29,5
195,208.15,223.01,5
195,207.88,222.73,5
193,207.59,222.43,5
194,207.31,222.15,5
193,207.03,221.86,5
193,206.75,221.57,5
193,206.47,221.28,5
194,206.22,221.01,5
193,205.96,220.73,5
192,205.68,220.44,5
193,205.43,220.17,5
192,205.16,219.89,5
192,204.89,219.61,5
192,204.64,219.33,5
191,204.36,219.05,5
191,204.10,218.77,5
191,203.83,218.49,5
189,203.54,218.19,5
190,203.27,217.91,5
191,203.02,217.64,5
189,202.74,217.36,5
189,202.47,217.07,5
189,202.20,216.79,5
189,201.93,216.52,5
188,201.65,216.23,5
187,201.36,215.94,5
187,201.07,215.65,5
189,200.83,215.38,5
187,200.56,215.10,5
185,200.24,214.80,5
187,199.98,214.52,5
187,199.72,214.24,5
186,199.45,213.96,5
188,199.22,213.70,5
185,198.93,213.41,5
185,198.65,213.13,5
185,198.38,212.85,5
185,198.11,212.57,5
186,197.87,212.31,5
185,197.61,212.03,5
185,197.36,211.76,5
184,197.09,211.48,5
185,196.85,211.22,5
183,196.58,210.94,5
184,196.32,210.67,5
183,196.06,210.39,5
184,195.82,210.13,5
183,195.56,209.86,5
183,195.31,209.59,5
185,195.10,209.34,5
183,194.86,209.08,5
183,194.62,208.82,5
183,194.39,208.56,5
181,194.12,208.28,5
183,193.90,208.03,5
184,193.70,207.79,5
184,193.51,207.55,5
184,193.32,207.32,5
182,193.09,207.06,5
181,192.85,206.80,5
183,192.65,206.57,5
183,192.46,206.33,5
183,192.27,206.10,5
181,192.05,205.85,5
179,191.78,205.58,5
182,191.59,205.34,5
181,191.38,205.10,5
181,191.17,204.86,5
181,190.97,204.62,5
180,190.75,204.37,5
179,190.51,204.12,5
179,190.28,203.87,5
178,190.04,203.61,5
179,189.82,203.36,5
179,189.60,203.12,5
179,189.39,202.88,5
177,189.14,202.62,5
177,188.90,202.36,5
177,188.66,202.11,5
179,188.47,201.88,5
180,188.30,201.66,5
179,188.11,201.43,5
179,187.93,201.21,5
177,187.71,200.97,5
178,187.52,200.74,5
179,187.34,200.52,5
179,187.18,200.30,5
177,186.97,200.07,5
176,186.75,199.83,5
177,186.56,199.60,5
177,186.37,199.38,5
177,186.18,199.15,5
176,185.98,198.92,5
175,185.76,198.68,5
176,185.56,198.45,5
175,185.35,198.22,5
175,185.14,197.99,5
176,184.96,197.77,5
176,184.78,197.55,5
175,184.59,197.32,5
173,184.36,197.08,5
174,184.15,196.85,5
175,183.97,196.63,5
175,183.79,196.42,5
175,183.61,196.20,5
173,183.40,195.97,5
173,183.19,195.74,5
174,183.01,195.52,5
175,182.85,195.32,5
174,182.67,195.10,5
173,182.48,194.88,5
173,182.29,194.66,5
174,182.12,194.46,5
173,181.94,194.24,5
173,181.76,194.03,5
172,181.56,193.81,5
171,181.35,193.58,5
171,181.15,193.36,5
171,180.94,193.13,5
170,180.72,192.90,5
171,180.53,192.68,5
169,180.30,192.45,5
169,180.07,192.21,5
169,179.85,191.98,5
169,179.63,191.75,5
168,179.40,191.51,5
169,179.19,191.29,5
169,178.99,191.06,5
169,178.79,190.84,5
169,178.59,190.62,5
168,178.38,190.40,5
169,178.19,190.18,5
167,177.97,189.95,5
168,177.77,189.73,5
169,177.60,189.53,5
170,177.44,189.33,5
168,177.26,189.12,5
167,177.05,188.90,5
167,176.85,188.68,5
167,176.65,188.46,5
168,176.48,188.26,5
168,176.31,188.05,5
167,176.12,187.84,5
166,175.92,187.62,5
167,175.74,187.42,5
167,175.57,187.21,5
167,175.40,187.01,5
165,175.19,186.79,5
167,175.02,186.59,5
167,174.86,186.40,5
167,174.71,186.20,5
165,174.51,185.99,5
167,174.36,185.80,5
167,174.22,185.61,5
167,174.07,185.43,5
166,173.91,185.23,5
165,173.73,185.03,5
165,173.56,184.83,5
166,173.41,184.64,5
165,173.24,184.45,5
165,173.07,184.25,5
164,172.89,184.05,5
163,172.69,183.84,5
164,172.52,183.64,5
163,172.33,183.43,5
163,172.14,183.23,5
163,171.96,183.03,5
163,171.78,182.83,5
163,171.60,182.63,5
163,171.43,182.43,5
161,171.22,182.22,5
161,171.02,182.01,5
161,170.82,181.80,5
163,170.66,181.61,5
161,170.47,181.40,5
161,170.28,181.20,5
161,170.09,181.00,5
161,169.91,180.80,5
161,169.73,180.60,5
161,169.56,180.40,5
160,169.37,180.20,5
160,169.18,180.00,5
160,169.00,179.80,5
161,168.84,179.61,5
162,168.70,179.43,5
159,168.51,179.23,5
159,168.32,179.03,5
161,168.17,178.85,5
159,167.99,178.65,5
160,167.83,178.46,5
159,167.65,178.27,5
159,167.48,178.07,5
160,167.33,177.89,5
160,167.18,177.71,5
158,167.00,177.52,5
159,166.84,177.33,5
159,166.68,177.15,5
159,166.53,176.97,5
157,166.34,176.77,5
158,166.17,176.58,5
157,165.99,176.38,5
159,165.85,176.21,5
157,165.67,176.02,5
159,165.54,175.85,5
157,165.37,175.66,5
157,165.20,175.47,5
158,165.05,175.30,5
157,164.89,175.11,5
156,164.72,174.92,5
155,164.52,174.72,5
156,164.35,174.54,5
156,164.18,174.35,5
155,164.00,174.16,5
155,163.82,173.97,5
155,163.64,173.78,5
156,163.49,173.60,5
157,163.36,173.43,5
155,163.19,173.25,5
155,163.03,173.07,5
155,162.87,172.89,5
155,162.71,172.71,5
155,162.56,172.53,5
154,162.39,172.34,5
154,162.22,172.16,5
154,162.05,171.98,5
155,161.91,171.81,5
154,161.76,171.63,5
155,161.62,171.46,5
155,161.49,171.30,5
152,161.30,171.11,5
153,161.13,170.93,5
153,160.97,170.75,5
153,160.81,170.57,5
153,160.65,170.39,5
153,160.50,170.22,5
152,160.33,170.04,5
152,160.16,169.86,5
153,160.02,169.69,5
153,159.88,169.52,5
151,159.70,169.34,5
151,159.53,169.15,5
153,159.40,168.99,5
153,159.27,168.83,5
153,159.14,168.67,5
153,159.02,168.52,5
151,158.86,168.34,5
152,158.72,168.18,5
153,158.61,168.03,5
155,158.54,167.90,5
153,158.43,167.75,5
153,158.32,167.60,5
152,158.19,167.44,5
153,158.09,167.30,5
152,157.97,167.15,5
151,157.83,166.98,5
154,157.75,166.85,5
151,157.62,166.70,5
152,157.50,166.55,5
150,157.35,166.38,5
151,157.23,166.23,5
151,157.10,166.08,5
151,156.98,165.93,5
151,156.86,165.78,5
150,156.72,165.62,5
151,156.61,165.47,5
151,156.50,165.33,5
149,156.35,165.17,5
149,156.20,165.00,5
147,156.02,164.82,5
149,155.88,164.67,5
149,155.74,164.51,5
148,155.58,164.34,5
148,155.43,164.18,5
147,155.26,164.01,5
148,155.12,163.85,5
148,154.97,163.69,5
148,154.84,163.53,5
147,154.68,163.37,5
148,154.55,163.21,5
146,154.37,163.04,5
149,154.27,162.90,5
146,154.10,162.73,5
147,153.96,162.58,5
147,153.82,162.42,5
146,153.66,162.26,5
145,153.49,162.08,5
145,153.32,161.91,5
146,153.17,161.75,5
146,153.03,161.60,5
145,152.87,161.43,5
145,152.71,161.27,5
145,152.56,161.10,5
145,152.41,160.94,5
145,152.26,160.78,5
145,152.11,160.62,5
145,151.97,160.47,5
144,151.81,160.30,5
145,151.68,160.15,5
145,151.54,160.00,5
147,151.45,159.87,5
145,151.32,159.72,5
145,151.20,159.57,5
145,151.07,159.43,5
145,150.95,159.28,5
144,150.81,159.13,5
143,150.66,158.97,5
144,150.52,158.82,5
147,150.45,158.70,5
145,150.34,158.56,5
143,150.20,158.41,5
143,150.05,158.25,5
143,149.91,158.10,5
143,149.77,157.95,5
143,149.64,157.80,5
143,149.50,157.65,5
143,149.37,157.51,5
143,149.25,157.36,5
141,149.08,157.20,5
144,148.98,157.07,5
143,148.86,156.93,5
144,148.76,156.80,5
143,148.65,156.66,5
142,148.52,156.51,5
141,148.37,156.36,5
143,148.26,156.22,5
142,148.13,156.08,5
142,148.01,155.94,5
143,147.91,155.81,5
145,147.85,155.70,5
143,147.75,155.58,5
143,147.66,155.45,5
145,147.61,155.34,5
145,147.55,155.24,5
145,147.50,155.14,5
143,147.41,155.02,5
146,147.38,154.93,5
144,147.32,154.82,5
142,147.21,154.69,5
143,147.13,154.57,5
141,147.00,154.44,5
143,146.92,154.32,5
141,146.81,154.19,5
143,146.73,154.08,5
143,146.65,153.97,5
141,146.54,153.84,5
141,146.43,153.71,5
143,146.36,153.60,5
141,146.26,153.48,5
141,146.15,153.35,5
141,146.05,153.23,5
142,145.97,153.12,5
143,145.91,153.01,5
144,145.87,152.92,5
142,145.79,152.81,5
141,145.70,152.70,5
143,145.64,152.60,5
141,145.55,152.48,5
143,145.50,152.39,5
146,145.51,152.33,5
143,145.46,152.23,5
141,145.37,152.12,5
143,145.32,152.03,5
141,145.23,151.92,5
141,145.15,151.81,5
143,145.11,151.72,5
142,145.04,151.62,5
141,144.96,151.52,5
141,144.88,151.41,5
142,144.83,151.32,5
144,144.81,151.24,5
143,144.77,151.16,5
141,144.70,151.06,5
143,144.66,150.98,5
141,144.59,150.88,5
143,144.56,150.80,5
143,144.53,150.72,5
142,144.48,150.64,5
144,144.47,150.57,5
145,144.48,150.51,5
145,144.49,150.46,5
143,144.46,150.38,5
143,144.43,150.31,5
141,144.36,150.22,5
145,144.37,150.17,5
147,144.43,150.13,5
146,144.46,150.09,5
143,144.43,150.02,5
145,144.44,149.97,5
143,144.41,149.90,5
143,144.38,149.83,5
146,144.42,149.79,5
145,144.43,149.75,5
143,144.40,149.68,5
144,144.39,149.62,5
143,144.36,149.56,5
145,144.38,149.51,5
143,144.35,149.45,5
142,144.30,149.37,5
143,144.28,149.31,5
144,144.27,149.25,5
143,144.24,149.19,5
142,144.20,149.12,5
142,144.16,149.05,5
143,144.13,148.99,5
144,144.13,148.94,5
145,144.15,148.90,5
147,144.20,148.88,5
143,144.18,148.82,5
147,144.24,148.80,5
145,144.25,148.76,5
143,144.23,148.71,5
147,144.28,148.69,5
145,144.30,148.65,5
143,144.27,148.60,5
143,144.25,148.54,5
143,144.22,148.48,5
145,144.24,148.45,5
143,144.21,148.40,5
144,144.21,148.35,5
143,144.18,148.30,5
143,144.16,148.25,5
143,144.14,148.19,5
141,144.07,148.12,5
143,144.05,148.07,5
143,144.03,148.02,5
141,143.97,147.95,5
143,143.95,147.90,5
141,143.89,147.83,5
141,143.83,147.76,5
143,143.82,147.71,5
146,143.86,147.70,5
144,143.86,147.66,5
144,143.87,147.62,5
145,143.89,147.60,5
145,143.91,147.57,5
144,143.91,147.54,5
145,143.94,147.51,5
151,144.08,147.55,5
144,144.07,147.51,5
146,144.11,147.49,5
144,144.11,147.46,5
145,144.13,147.44,5
143,144.11,147.39,5
145,144.12,147.37,5
148,144.20,147.37,5
145,144.22,147.35,5
143,144.19,147.31,5
145,144.21,147.28,5
147,144.27,147.28,5
145,144.28,147.26,5
145,144.29,147.23,5
145,144.31,147.21,5
144,144.30,147.18,5
148,144.38,147.19,5
149,144.47,147.21,5
148,144.54,147.21,5
150,144.65,147.24,5
145,144.66,147.22,5
145,144.66,147.20,5
145,144.67,147.18,5
145,144.68,147.15,5
145,144.68,147.13,5
145,144.69,147.11,5
147,144.73,147.11,5
145,144.74,147.09,5
147,144.79,147.09,5
147,144.83,147.09,5
145,144.83,147.07,5
149,144.92,147.09,5
145,144.92,147.06,5
145,144.92,147.04,5
145,144.92,147.02,5
144,144.90,146.99,5
146,144.92,146.98,5
149,145.01,147.00,5
146,145.03,146.99,5
149,145.11,147.01,5
155,145.30,147.09,5
152,145.44,147.14,5
150,145.53,147.17,5
151,145.64,147.21,5
157,145.87,147.31,5
159,146.13,147.42,5
159,146.39,147.54,5
153,146.52,147.59,5
153,146.65,147.65,5
152,146.75,147.69,5
155,146.92,147.77,5
153,147.04,147.82,5
156,147.22,147.90,5
156,147.40,147.98,5
157,147.59,148.07,5
153,147.70,148.12,5
153,147.80,148.17,5
155,147.95,148.24,5
156,148.11,148.31,5
153,148.21,148.36,5
159,148.42,148.47,6
156,148.57,148.54,6
157,148.74,148.63,7
156,148.89,148.70,7
156,149.03,148.77,7
156,149.17,148.85,7
155,149.28,148.91,7
156,149.42,148.98,7
156,149.55,149.05,7
155,149.66,149.11,7
155,149.77,149.17,7
155,149.87,149.23,7
154,149.95,149.27,7
155,150.05,149.33,7
155,150.15,149.39,7
153,150.21,149.42,7
161,150.43,149.54,7
160,150.62,149.64,7
158,150.77,149.73,7
159,150.93,149.82,7
157,151.05,149.89,7
158,151.19,149.97,7
156,151.29,150.03,7
157,151.40,150.10,7
156,151.49,150.16,7
155,151.56,150.21,7
156,151.65,150.27,7
155,151.72,150.32,7
155,151.78,150.36,7
155,151.85,150.41,7
155,151.91,150.46,7
158,152.03,150.53,7
161,152.21,150.64,7
155,152.27,150.68,7
158,152.38,150.75,7
157,152.48,150.81,7
159,152.61,150.90,7
159,152.73,150.98,7
156,152.80,151.03,7
156,152.86,151.08,7
156,152.93,151.13,7
156,152.99,151.18,7
156,153.05,151.22,7
159,153.17,151.30,7
157,153.24,151.36,7
169,153.56,151.53,7
163,153.75,151.65,7
161,153.89,151.74,7
161,154.03,151.84,7
165,154.25,151.97,7
159,154.35,152.04,7
159,154.44,152.11,7
159,154.53,152.18,7
159,154.62,152.24,7
161,154.75,152.33,7
159,154.83,152.40,7
158,154.90,152.45,7
159,154.98,152.52,7
160,155.08,152.59,7
160,155.18,152.67,7
163,155.34,152.77,7
161,155.45,152.85,7
159,155.52,152.92,7
162,155.65,153.01,7
159,155.72,153.07,7
160,155.80,153.14,7
161,155.91,153.21,7
159,155.97,153.27,7
163,156.11,153.37,7
165,156.29,153.49,7
163,156.42,153.58,7
160,156.49,153.65,7
167,156.70,153.78,7
168,156.93,153.92,7
167,157.13,154.05,7
165,157.29,154.16,7
164,157.42,154.26,7
164,157.55,154.36,7
167,157.74,154.48,7
163,157.85,154.57,7
162,157.93,154.64,7
165,158.07,154.75,7
166,158.23,154.86,7
165,158.37,154.96,7
165,158.50,155.06,7
169,158.71,155.20,7
171,158.95,155.36,7
175,159.28,155.55,7
171,159.51,155.71,7
170,159.72,155.85,7
171,159.94,156.00,7
171,160.17,156.15,7
172,160.40,156.31,7
168,160.55,156.43,7
171,160.76,156.57,7
167,160.89,156.68,7
172,161.11,156.83,7
173,161.35,156.99,7
175,161.62,157.17,7
173,161.85,157.33,7
173,162.07,157.49,7
173,162.29,157.64,7
170,162.44,157.77,7
171,162.62,157.90,7
175,162.86,158.07,7
169,162.99,158.18,7
172,163.17,158.32,7
177,163.44,158.51,7
175,163.67,158.67,7
174,163.88,158.82,7
180,164.20,159.04,7
177,164.46,159.21,7
177,164.71,159.39,7
177,164.96,159.57,7
179,165.24,159.76,7
179,165.51,159.96,7
177,165.74,160.13,7
189,166.21,160.41,7
187,166.62,160.68,7
180,166.89,160.87,7
185,167.25,161.12,7
186,167.63,161.36,7
179,167.85,161.54,7
180,168.10,161.72,7
188,168.50,161.99,7
181,168.75,162.18,7
183,169.03,162.39,7
181,169.27,162.57,7
180,169.49,162.75,7
182,169.74,162.94,7
181,169.96,163.12,7
185,170.26,163.34,7
188,170.62,163.59,7
187,170.94,163.82,7
184,171.20,164.02,7
189,171.56,164.27,7
190,171.93,164.53,7
193,172.35,164.81,7
190,172.70,165.06,7
185,172.95,165.26,7
187,173.23,165.48,7
188,173.53,165.71,7
199,174.04,166.04,7
198,174.52,166.36,7
194,174.90,166.64,7
192,175.25,166.89,7
199,175.72,167.21,7
203,176.27,167.57,7
199,176.72,167.88,7
195,177.09,168.15,7
198,177.51,168.45,7
199,177.94,168.76,7
195,178.28,169.02,7
199,178.69,169.32,7
199,179.10,169.62,7
197,179.46,169.89,7
201,179.89,170.20,7
212,180.53,170.62,7
215,181.22,171.06,7
205,181.69,171.40,7
213,182.32,171.82,7
218,183.03,172.28,7
221,183.79,172.77,7
219,184.50,173.23,7
214,185.09,173.64,7
211,185.61,174.01,7
213,186.15,174.40,7
213,186.69,174.79,7
211,187.18,175.15,7
223,187.89,175.63,7
224,188.62,176.11,7
221,189.26,176.56,7
217,189.82,176.96,7
220,190.42,177.40,7
214,190.89,177.76,7
214,191.35,178.12,7
221,191.95,178.55,7
227,192.65,179.04,7
227,193.34,179.52,7
225,193.97,179.97,7
217,194.43,180.34,7
226,195.06,180.80,7
230,195.76,181.29,7
225,196.34,181.73,7
219,196.80,182.10,7
222,197.30,182.50,7
221,197.78,182.88,7
229,198.40,183.35,7
225,198.93,183.76,7
223,199.41,184.15,7
220,199.83,184.51,7
226,200.35,184.93,7
221,200.76,185.29,7
223,201.21,185.67,7
228,201.74,186.09,7
227,202.25,186.50,7
224,202.68,186.87,7
223,203.09,187.23,7
223,203.49,187.59,7
227,203.96,187.99,7
223,204.34,188.34,7
225,204.75,188.70,7
223,205.12,189.05,7
232,205.65,189.48,7
228,206.10,189.86,7
229,206.56,190.25,7
240,207.23,190.75,7
232,207.72,191.16,7
229,208.15,191.54,7
233,208.65,191.95,7
228,209.03,192.32,7
229,209.43,192.68,7
231,209.86,193.07,7
233,210.33,193.46,7
231,210.74,193.84,7
233,211.19,194.23,7
234,211.64,194.63,7
231,212.03,194.99,7
231,212.41,195.35,7
233,212.82,195.73,7
241,213.38,196.18,7
241,213.94,196.63,7
237,214.40,197.03,7
244,214.99,197.50,7
247,215.63,198.00,7
235,216.02,198.37,7
237,216.44,198.76,7
238,216.87,199.15,7
241,217.35,199.57,7
241,217.82,199.98,7
238,218.23,200.36,7
237,218.60,200.73,7
239,219.01,201.11,7
237,219.37,201.47,7
236,219.70,201.81,7
240,220.11,202.20,7
236,220.43,202.53,7
248,220.98,202.99,7
247,221.50,203.43,7
247,222.01,203.86,7
240,222.37,204.23,7
245,222.82,204.63,7
246,223.28,205.05,7
245,223.72,205.45,7
241,224.06,205.80,7
241,224.40,206.15,7
250,224.92,206.59,7
245,225.32,206.98,7
244,225.69,207.35,7
249,226.16,207.76,7
254,226.71,208.23,7
253,227.24,208.67,7
245,227.59,209.04,7
252,228.08,209.47,7
253,228.58,209.90,7
247,228.95,210.27,7
251,229.39,210.68,7
251,229.82,211.08,7
261,230.45,211.58,7
264,231.12,212.11,7
261,231.71,212.60,7
262,232.32,213.09,7
269,233.05,213.65,7
271,233.81,214.22,7
273,234.60,214.81,7
265,235.20,215.31,7
261,235.72,215.77,7
265,236.31,216.26,7
267,236.92,216.77,7
266,237.50,217.26,7
271,238.17,217.80,7
267,238.75,218.29,7
266,239.29,218.77,7
264,239.79,219.22,7
265,240.29,219.68,7
265,240.79,220.13,7
261,241.19,220.54,7
266,241.69,220.99,7
267,242.19,221.45,7
267,242.69,221.91,7
267,243.18,222.36,7
264,243.59,222.78,7
268,244.08,223.23,7
269,244.58,223.69,7
265,244.99,224.10,7
265,245.39,224.51,7
269,245.86,224.95,7
272,246.38,225.42,7
267,246.79,225.84,7
265,247.16,226.23,7
268,247.58,226.65,7
269,248.00,227.07,7
268,248.40,227.48,7
271,248.86,227.92,7
267,249.22,228.31,7
271,249.65,228.74,7
274,250.14,229.19,7
275,250.64,229.65,7
273,251.09,230.08,7
268,251.42,230.46,7
271,251.82,230.86,7
271,252.20,231.27,7
268,252.52,231.63,7
268,252.82,232.00,7
269,253.15,232.37,7
266,253.41,232.70,7
269,253.72,233.07,7
268,254.00,233.42,7
267,254.26,233.75,7
266,254.50,234.07,7
265,254.71,234.38,7
265,254.91,234.69,7
264,255.10,234.98,7
265,255.29,235.28,7
263,255.45,235.56,7
263,255.60,235.83,7
263,255.75,236.11,7
265,255.93,236.39,7
262,256.05,236.65,7
262,256.17,236.90,7
263,256.31,237.16,7
263,256.44,237.42,7
263,256.57,237.68,7
261,256.66,237.91,7
261,256.75,238.14,7
261,256.83,238.37,7
261,256.92,238.60,7
261,257.00,238.82,7
260,257.06,239.03,7
258,257.08,239.22,7
259,257.12,239.42,7
259,257.15,239.62,7
258,257.17,239.80,7
257,257.17,239.97,7
256,257.14,240.13,7
256,257.12,240.29,7
257,257.12,240.46,7
256,257.10,240.61,7
256,257.07,240.77,7
257,257.07,240.93,7
258,257.09,241.10,7
256,257.07,241.25,7
256,257.05,241.40,7
257,257.05,241.55,7
257,257.05,241.71,7
255,257.01,241.84,7
254,256.95,241.96,7
253,256.87,242.07,7
254,256.81,242.19,7
253,256.73,242.30,7
253,256.66,242.41,7
252,256.57,242.50,7
251,256.45,242.59,7
253,256.38,242.69,7
251,256.28,242.78,7
252,256.19,242.87,7
253,256.13,242.97,7
251,256.03,243.05,7
251,255.92,243.13,7
251,255.83,243.21,7
253,255.77,243.31,7
251,255.67,243.38,7
250,255.56,243.45,7
250,255.45,243.51,7
249,255.32,243.57,7
249,255.19,243.62,7
249,255.07,243.68,7
248,254.93,243.72,7
248,254.79,243.76,7
248,254.65,243.81,7
251,254.58,243.88,7
249,254.47,243.93,7
248,254.34,243.97,7
245,254.15,243.98,7
251,254.09,244.05,7
248,253.97,244.09,7
247,253.83,244.12,7
247,253.69,244.15,7
245,253.52,244.16,7
246,253.37,244.17,7
246,253.22,244.19,7
246,253.08,244.21,7
246,252.94,244.23,7
244,252.76,244.23,7
243,252.56,244.21,7
245,252.41,244.22,7
243,252.22,244.21,7
243,252.04,244.20,7
242,251.84,244.18,7
241,251.62,244.14,7
242,251.43,244.12,7
243,251.26,244.11,7
241,251.05,244.08,7
241,250.85,244.05,7
240,250.64,244.01,7
241,250.44,243.98,7
239,250.21,243.93,7
239,249.99,243.88,7
239,249.77,243.83,7
239,249.55,243.78,7
240,249.36,243.74,7
237,249.12,243.68,7
239,248.91,243.63,7
237,248.68,243.56,7
237,248.44,243.50,7
237,248.21,243.43,7
240,248.05,243.40,7
236,247.81,243.33,7
236,247.57,243.25,7
235,247.32,243.17,7
235,247.07,243.09,7
235,246.83,243.01,7
233,246.56,242.91,7
234,246.31,242.82,7
234,246.06,242.73,7
233,245.80,242.63,7
232,245.52,242.53,7
233,245.27,242.43,7
233,245.03,242.34,7
234,244.81,242.25,7
233,244.57,242.16,7
232,244.32,242.06,7
232,244.07,241.96,7
233,243.85,241.87,7
231,243.59,241.76,7
230,243.32,241.64,7
229,243.03,241.52,7
229,242.75,241.39,7
230,242.50,241.28,7
229,242.23,241.15,7
228,241.94,241.02,7
227,241.65,240.88,7
229,241.39,240.76,7
227,241.10,240.63,7
228,240.84,240.50,7
227,240.57,240.36,7
228,240.31,240.24,8
227,240.05,240.11,8
225,239.75,239.96,8
225,239.45,239.81,8
226,239.18,239.67,8
225,238.90,239.52,8
225,238.62,239.38,8
225,238.35,239.23,8
224,238.06,239.08,8
223,237.76,238.92,8
225,237.51,238.78,8
223,237.22,238.62,8
223,236.93,238.47,8
222,236.63,238.30,8
223,236.36,238.15,8
221,236.05,237.98,8
221,235.75,237.81,8
221,235.46,237.64,8
221,235.17,237.47,8
222,234.90,237.32,8
221,234.63,237.16,8
220,234.33,236.98,8
219,234.03,236.80,8
221,233.77,236.65,8
221,233.51,236.49,8
220,233.24,236.33,8
220,232.98,236.16,8
219,232.70,235.99,8
219,232.42,235.82,8
219,232.15,235.65,8
217,231.85,235.47,8
217,231.55,235.28,8
217,231.26,235.10,8
217,230.98,234.92,8
216,230.68,234.73,8
216,230.38,234.54,8
215,230.08,234.35,8
216,229.80,234.16,8
216,229.52,233.98,8
215,229.23,233.79,8
214,228.92,233.59,8
215,228.65,233.41,8
215,228.37,233.22,8
214,228.09,233.03,8
213,227.78,232.83,8
213,227.49,232.63,8
212,227.18,232.43,8
213,226.90,232.23,8
213,226.62,232.04,8
211,226.30,231.83,8
211,226.00,231.62,8
211,225.70,231.41,8
210,225.38,231.20,8
212,225.12,231.01,8
209,224.79,230.79,8
209,224.48,230.57,8
209,224.17,230.35,8
211,223.91,230.16,8
209,223.61,229.95,8
209,223.32,229.74,8
209,223.03,229.53,8
209,222.75,229.33,8
209,222.47,229.12,8
209,222.20,228.92,8
209,221.94,228.72,8
207,221.64,228.51,8
207,221.35,228.29,8
207,221.06,228.08,8
207,220.78,227.87,8
207,220.50,227.66,8
207,220.23,227.45,8
207,219.97,227.25,8
205,219.67,227.03,8
205,219.38,226.81,8
206,219.11,226.60,8
206,218.85,226.39,8
206,218.59,226.19,8
205,218.32,225.98,8
205,218.05,225.77,8
205,217.79,225.56,8
203,217.50,225.33,8
204,217.23,225.12,8
204,216.96,224.91,8
203,216.68,224.69,8
202,216.39,224.46,8
202,216.10,224.24,8
201,215.80,224.00,8
202,215.52,223.78,8
202,215.25,223.57,8
201,214.97,223.34,8
201,214.69,223.12,8
201,214.41,222.90,8
200,214.13,222.67,8
199,213.82,222.43,8
201,213.57,222.22,8
199,213.28,221.98,8
200,213.01,221.76,8
199,212.73,221.54,8
200,212.48,221.32,8
199,212.21,221.10,8
199,211.94,220.88,8
197,211.64,220.64,8
197,211.35,220.40,8
197,211.06,220.17,8
199,210.82,219.96,8
197,210.55,219.73,8
198,210.29,219.51,8
196,210.01,219.27,8
197,209.75,219.05,8
197,209.49,218.83,8
196,209.22,218.60,8
196,208.96,218.38,8
195,208.68,218.14,8
195,208.41,217.91,8
195,208.14,217.68,8
194,207.86,217.45,8
193,207.56,217.20,8
193,207.27,216.96,8
193,206.98,216.72,8
193,206.70,216.48,8
195,206.47,216.27,8
194,206.22,216.05,8
195,205.99,215.83,8
194,205.75,215.62,8
193,205.50,215.39,8
194,205.27,215.18,8
194,205.04,214.96,8
193,204.80,214.74,8
193,204.57,214.53,8
192,204.32,214.30,8
192,204.07,214.08,8
192,203.83,213.86,8
192,203.59,213.64,8
191,203.34,213.41,8
191,203.09,213.19,8
190,202.83,212.96,8
189,202.55,212.72,8
189,202.28,212.48,8
189,202.02,212.25,8
189,201.76,212.01,8
190,201.52,211.79,8
189,201.27,211.57,8
189,201.03,211.34,8
189,200.79,211.12,8
188,200.53,210.89,8
190,200.32,210.68,8
188,200.07,210.45,8
189,199.85,210.24,8
189,199.63,210.02,8
190,199.44,209.82,8
191,199.27,209.63,8
189,199.07,209.43,8
189,198.87,209.22,8
191,198.71,209.04,8
191,198.55,208.86,8
192,198.42,208.69,8
189,198.24,208.50,8
188,198.03,208.29,8
188,197.83,208.09,8
188,197.63,207.89,8
189,197.46,207.70,8
186,197.23,207.48,8
186,197.01,207.27,8
186,196.79,207.05,8
185,196.55,206.83,8
185,196.32,206.61,8
185,196.09,206.40,8
185,195.87,206.18,8
185,195.65,205.97,8
185,195.44,205.76,8
185,195.23,205.56,8
184,195.01,205.34,8
183,194.77,205.12,8
184,194.55,204.91,8
184,194.34,204.70,8
184,194.13,204.49,8
183,193.91,204.27,8
186,193.75,204.09,8
184,193.56,203.89,8
185,193.39,203.70,8
183,193.18,203.49,8
182,192.96,203.28,8
183,192.76,203.08,8
183,192.56,202.88,8
182,192.35,202.67,8
181,192.12,202.45,8
183,191.94,202.26,8
183,191.76,202.06,8
181,191.55,201.85,8
181,191.34,201.64,8
181,191.13,201.44,8
182,190.95,201.24,8
181,190.75,201.04,8
181,190.55,200.84,8
181,190.36,200.64,8
179,190.13,200.43,8
179,189.91,200.21,8
181,189.73,200.02,8
180,189.54,199.82,8
179,189.33,199.61,8
180,189.14,199.42,8
179,188.94,199.21,8
179,188.74,199.01,8
179,188.55,198.81,8
177,188.31,198.59,8
177,188.09,198.37,8
179,187.91,198.18,8
177,187.69,197.97,8
177,187.47,197.76,8
177,187.26,197.55,8
178,187.08,197.36,8
177,186.88,197.15,8
177,186.68,196.95,8
179,186.53,196.77,8
176,186.32,196.56,8
175,186.09,196.35,8
175,185.87,196.13,8
175,185.65,195.92,8
175,185.44,195.71,8
175,185.23,195.51,8
176,185.04,195.31,8
176,184.86,195.12,8
173,184.63,194.90,8
175,184.43,194.70,8
175,184.25,194.50,8
173,184.02,194.29,8
173,183.80,194.07,8
174,183.60,193.87,8
175,183.43,193.68,8
174,183.24,193.49,8
173,183.04,193.28,8
173,182.84,193.08,8
173,182.64,192.88,8
174,182.47,192.69,8
175,182.32,192.51,8
175,182.17,192.34,8
173,181.99,192.14,8
173,181.81,191.95,8
173,181.63,191.76,8
173,181.46,191.58,8
174,181.31,191.40,8
173,181.14,191.22,8
174,181.00,191.04,8
172,180.82,190.85,8
173,180.67,190.68,8
173,180.51,190.50,8
171,180.32,190.30,8
172,180.16,190.12,8
173,180.01,189.95,8
172,179.85,189.77,8
172,179.70,189.59,8
172,179.54,189.42,8
171,179.37,189.23,8
173,179.24,189.07,8
172,179.10,188.90,8
171,178.94,188.72,8
169,178.74,188.52,8
169,178.54,188.33,8
172,178.41,188.16,8
170,178.24,187.98,8
170,178.08,187.80,8
171,177.94,187.63,8
169,177.76,187.45,8
169,177.58,187.26,8
168,177.39,187.07,8
168,177.20,186.88,8
168,177.02,186.69,8
168,176.84,186.51,8
172,176.74,186.36,8
169,176.59,186.19,8
170,176.46,186.02,8
171,176.35,185.87,8
170,176.22,185.72,8
170,176.10,185.56,8
172,176.01,185.42,8
171,175.91,185.28,8
171,175.82,185.14,8
169,175.68,184.97,8
168,175.53,184.80,8
169,175.39,184.65,8
169,175.27,184.49,8
168,175.12,184.33,8
169,175.00,184.17,8
168,174.86,184.01,8
167,174.70,183.84,8
169,174.59,183.69,8
168,174.46,183.53,8
167,174.31,183.37,8
165,174.12,183.19,8
167,173.98,183.02,8
167,173.84,182.86,8
167,173.70,182.71,8
166,173.55,182.54,8
165,173.38,182.36,8
165,173.21,182.19,8
165,173.05,182.02,8
165,172.88,181.85,8
165,172.73,181.68,8
164,172.55,181.50,8
165,172.40,181.34,8
165,172.25,181.17,8
163,172.07,180.99,8
163,171.89,180.81,8
164,171.73,180.64,8
163,171.55,180.47,8
163,171.38,180.29,8
164,171.24,180.13,8
163,171.07,179.96,8
163,170.91,179.79,8
164,170.77,179.63,8
164,170.64,179.47,8
163,170.48,179.31,8
163,170.33,179.15,8
164,170.21,179.00,8
163,170.06,178.84,8
163,169.92,178.68,8
161,169.74,178.50,8
161,169.57,178.33,8
161,169.40,178.15,8
161,169.23,177.98,8
161,169.06,177.81,8
161,168.90,177.64,8
161,168.75,177.48,8
159,168.55,177.29,8
159,168.36,177.11,8
160,168.19,176.94,8
159,168.01,176.76,8
160,167.85,176.59,8
159,167.67,176.41,8
159,167.50,176.24,8
159,167.33,176.07,8
158,167.14,175.89,8
159,166.98,175.72,8
158,166.80,175.54,8
157,166.60,175.36,8
157,166.41,175.17,8
158,166.24,175.00,8
159,166.10,174.84,8
157,165.92,174.66,8
157,165.74,174.49,8
157,165.56,174.31,8
157,165.39,174.14,8
157,165.22,173.97,8
157,165.06,173.80,8
154,164.84,173.60,8
157,164.68,173.43,8
157,164.53,173.27,8
157,164.38,173.11,8
155,164.19,172.92,8
155,164.01,172.75,8
155,163.83,172.57,8
156,163.67,172.40,8
153,163.46,172.21,8
155,163.29,172.04,8
153,163.08,171.85,8
153,162.88,171.66,8
153,162.68,171.47,8
153,162.49,171.29,8
153,162.30,171.10,8
153,162.11,170.92,8
153,161.93,170.74,8
152,161.73,170.56,8
154,161.58,170.39,8
152,161.39,170.21,8
152,161.20,170.02,8
151,160.99,169.83,8
151,160.79,169.65,8
151,160.60,169.46,8
151,160.41,169.27,8
151,160.22,169.09,8
152,160.05,168.92,8
152,159.89,168.75,8
152,159.73,168.58,8
149,159.52,168.39,8
151,159.35,168.21,8
152,159.20,168.05,8
151,159.04,167.88,8
152,158.90,167.72,8
147,158.66,167.52,8
151,158.51,167.35,8
150,158.34,167.18,8
149,158.15,167.00,8
149,157.97,166.82,8
149,157.79,166.64,8
149,157.61,166.46,8
149,157.44,166.29,8
149,157.27,166.11,8
149,157.11,165.94,8
149,156.94,165.77,8
148,156.76,165.59,8
148,156.59,165.42,8
147,156.40,165.23,8
149,156.25,165.07,8
149,156.10,164.91,8
148,155.94,164.74,8
147,155.76,164.57,8
148,155.61,164.40,8
147,155.44,164.23,8
148,155.29,164.06,8
147,155.12,163.89,8
145,154.92,163.70,8
147,154.76,163.54,8
146,154.59,163.36,8
147,154.43,163.20,8
147,154.29,163.04,8
147,154.14,162.88,8
147,154.00,162.72,8
147,153.86,162.56,8
147,153.72,162.40,8
146,153.57,162.24,8
145,153.39,162.07,8
145,153.23,161.90,8
145,153.06,161.73,8
145,152.90,161.56,8
144,152.72,161.38,8
145,152.57,161.22,8
144,152.40,161.05,8
145,152.25,160.89,8
144,152.08,160.72,8
144,151.92,160.55,8
144,151.76,160.39,8
145,151.63,160.23,8
144,151.48,160.07,8
143,151.31,159.90,8
143,151.14,159.73,8
143,150.98,159.56,8
143,150.82,159.40,8
142,150.64,159.22,8
143,150.49,159.06,8
145,150.38,158.92,8
145,150.27,158.78,8
143,150.13,158.62,8
143,149.98,158.47,8
144,149.86,158.32,8
145,149.77,158.19,8
145,149.67,158.06,8
145,149.58,157.93,8
143,149.45,157.78,8
143,149.32,157.63,8
145,149.23,157.50,8
145,149.15,157.38,8
143,149.02,157.24,8
143,148.90,157.09,8
143,148.78,156.95,8
144,148.69,156.82,8
144,148.60,156.69,8
143,148.48,156.56,8
143,148.37,156.42,8
143,148.27,156.29,8
143,148.16,156.15,8
143,148.06,156.02,8
143,147.96,155.89,8
142,147.84,155.75,8
142,147.72,155.62,8
143,147.63,155.49,8
141,147.49,155.35,8
141,147.36,155.20,8
142,147.26,155.07,8
143,147.17,154.95,8
142,147.07,154.82,8
141,146.95,154.68,8
141,146.83,154.54,8
141,146.71,154.41,8
141,146.60,154.28,8
141,146.49,154.14,8
141,146.38,154.01,8
141,146.27,153.88,8
141,146.16,153.75,8
140,146.04,153.61,8
139,145.90,153.47,8
141,145.80,153.34,8
140,145.68,153.21,8
141,145.59,153.09,8
140,145.48,152.96,8
140,145.37,152.83,8
140,145.26,152.70,8
139,145.14,152.56,8
139,145.01,152.43,8
139,144.89,152.29,8
139,144.78,152.16,8
139,144.66,152.03,8
138,144.53,151.89,8
138,144.40,151.75,8
139,144.29,151.62,8
138,144.16,151.49,8
139,144.06,151.36,8
138,143.94,151.23,8
137,143.80,151.08,8
138,143.68,150.95,8
138,143.57,150.82,8
137,143.44,150.69,8
137,143.31,150.55,8
137,143.18,150.41,8
137,143.06,150.28,8
137,142.94,150.15,8
138,142.84,150.03,8
137,142.72,149.89,8
138,142.63,149.78,8
139,142.56,149.67,8
139,142.49,149.56,8
139,142.42,149.46,8
137,142.31,149.33,8
136,142.18,149.20,8
137,142.08,149.08,8
138,142.00,148.97,8
140,141.96,148.88,8
140,141.92,148.79,8
137,141.82,148.67,8
137,141.72,148.55,8
137,141.63,148.44,8
137,141.54,148.32,8
140,141.50,148.24,8
136,141.39,148.12,8
136,141.29,148.00,8
137,141.20,147.89,8
138,141.14,147.79,8
137,141.05,147.68,8
137,140.97,147.57,8
136,140.87,147.46,8
136,140.78,147.34,8
136,140.68,147.23,8
135,140.57,147.11,8
136,140.48,147.00,8
138,140.43,146.91,8
135,140.32,146.79,8
135,140.21,146.67,8
135,140.11,146.55,8
132,139.94,146.41,8
135,139.85,146.29,8
134,139.73,146.17,8
134,139.61,146.05,8
134,139.50,145.93,8
133,139.37,145.80,8
133,139.24,145.67,8
133,139.12,145.54,8
133,139.00,145.42,8
133,138.88,145.29,8
133,138.76,145.17,8
132,138.62,145.04,8
131,138.47,144.90,8
134,138.38,144.79,8
133,138.28,144.67,8
133,138.17,144.55,8
133,138.07,144.44,8
131,137.92,144.30,8
132,137.81,144.18,8
131,137.67,144.05,8
131,137.54,143.92,8
131,137.41,143.79,8
132,137.30,143.67,8
131,137.17,143.55,8
132,137.07,143.43,8
132,136.97,143.32,8
130,136.83,143.18,8
131,136.71,143.06,8
133,136.64,142.96,8
132,136.54,142.85,8
131,136.43,142.73,8
133,136.36,142.63,8
131,136.26,142.52,8
133,136.19,142.42,8
133,136.13,142.33,8
131,136.03,142.22,8
132,135.95,142.11,8
133,135.89,142.02,8
133,135.83,141.93,8
131,135.73,141.82,8
131,135.64,141.71,8
131,135.54,141.61,8
132,135.47,141.51,8
132,135.40,141.42,8
132,135.34,141.32,8
133,135.29,141.24,8
133,135.24,141.16,8
133,135.20,141.08,8
132,135.14,140.98,8
132,135.07,140.89,8
134,135.05,140.83,8
134,135.03,140.76,8
135,135.03,140.70,8
135,135.03,140.64,8
133,134.99,140.57,8
133,134.95,140.49,8
133,134.91,140.42,8
136,134.93,140.37,8
137,134.97,140.34,8
139,135.05,140.32,8
136,135.07,140.28,8
135,135.07,140.23,8
135,135.07,140.18,8
137,135.11,140.14,8
136,135.13,140.10,8
136,135.14,140.06,8
134,135.12,140.00,8
134,135.10,139.94,8
134,135.08,139.88,8
134,135.05,139.82,8
135,135.05,139.77,8
133,135.01,139.71,8
133,134.97,139.64,8
133,134.93,139.57,8
133,134.89,139.51,8
132,134.84,139.43,8
134,134.82,139.38,8
133,134.78,139.31,8
133,134.75,139.25,8
134,134.73,139.20,8
136,134.76,139.17,8
133,134.72,139.11,8
133,134.69,139.04,8
133,134.65,138.98,8
135,134.66,138.94,8
135,134.67,138.90,8
137,134.71,138.89,8
133,134.68,138.83,8
136,134.71,138.80,8
135,134.71,138.76,8
137,134.76,138.74,8
136,134.78,138.72,8
134,134.77,138.67,8
135,134.77,138.63,8
135,134.78,138.60,8
133,134.74,138.54,8
133,134.71,138.48,8
135,134.71,138.45,8
135,134.72,138.41,8
133,134.68,138.36,8
134,134.67,138.32,8
135,134.68,138.28,8
133,134.64,138.23,8
135,134.65,138.20,8
133,134.62,138.15,8
133,134.58,138.10,8
136,134.61,138.07,8
134,134.60,138.03,8
135,134.61,138.00,8
136,134.64,137.98,8
133,134.60,137.93,8
135,134.61,137.90,8
136,134.64,137.88,8
137,134.69,137.88,8
136,134.71,137.86,8
135,134.72,137.83,8
135,134.72,137.80,8
137,134.77,137.79,8
137,134.81,137.78,8
135,134.82,137.76,8
136,134.84,137.74,8
137,134.89,137.73,8
137,134.93,137.72,8
137,134.97,137.72,8
136,134.99,137.70,8
136,135.01,137.68,8
137,135.05,137.68,8
136,135.07,137.66,8
135,135.07,137.63,8
135,135.07,137.61,8
137,135.10,137.60,8
136,135.12,137.58,8
135,135.12,137.56,8
138,135.18,137.56,8
136,135.19,137.55,8
136,135.21,137.53,8
135,135.21,137.51,8
135,135.20,137.48,8
134,135.18,137.45,8
134,135.15,137.41,8
134,135.13,137.38,8
135,135.13,137.35,8
133,135.09,137.31,8
133,135.04,137.27,8
134,135.02,137.24,8
134,135.00,137.20,8
133,134.96,137.16,8
134,134.94,137.13,8
133,134.90,137.09,8
130,134.81,137.02,8
133,134.77,136.98,8
133,134.74,136.94,8
133,134.70,136.90,8
131,134.63,136.84,8
132,134.57,136.79,8
133,134.54,136.75,8
133,134.51,136.71,8
131,134.44,136.66,8
133,134.41,136.62,8
133,134.38,136.58,8
134,134.38,136.56,8
133,134.35,136.52,8
133,134.32,136.49,8
134,134.32,136.46,8
136,134.35,136.46,8
133,134.32,136.42,8
133,134.30,136.39,8
135,134.31,136.38,8
133,134.28,136.34,8
134,134.28,136.32,8
133,134.25,136.29,8
133,134.23,136.25,8
133,134.20,136.22,8
133,134.18,136.19,8
131,134.12,136.14,8
131,134.05,136.08,8
133,134.03,136.05,8
131,133.97,136.00,8
133,133.95,135.97,8
131,133.89,135.92,8
133,133.88,135.89,8
135,133.90,135.89,8
135,133.92,135.88,8
134,133.92,135.86,8
133,133.90,135.83,8
137,133.96,135.84,8
137,134.03,135.85,8
139,134.12,135.88,8
139,134.22,135.92,8
137,134.28,135.93,8
137,134.33,135.94,8
135,134.35,135.93,8
137,134.40,135.94,8
135,134.41,135.93,8
135,134.42,135.92,8
138,134.49,135.94,8
138,134.56,135.96,8
137,134.61,135.97,8
135,134.62,135.96,8
135,134.63,135.95,8
135,134.64,135.94,8
137,134.68,135.95,8
135,134.69,135.94,8
134,134.68,135.92,8
140,134.78,135.96,8
137,134.83,135.98,8
136,134.85,135.98,8
136,134.87,135.98,8
137,134.92,135.99,8
137,134.96,136.00,8
137,135.00,136.01,8
136,135.02,136.01,8
136,135.04,136.01,8
136,135.06,136.01,8
136,135.08,136.01,8
136,135.09,136.01,8
135,135.09,136.00,8
137,135.13,136.01,8
141,135.25,136.06,8
140,135.34,136.10,8
141,135.46,136.14,8
137,135.49,136.15,8
137,135.52,136.16,8
143,135.67,136.23,8
143,135.81,136.30,8
148,136.06,136.41,8
143,136.20,136.48,8
142,136.31,136.54,8
141,136.41,136.58,8
145,136.58,136.66,9
145,136.75,136.75,9
143,136.87,136.81,10
145,137.03,136.89,10
140,137.09,136.92,10
139,137.13,136.94,10
142,137.23,136.99,10
141,137.30,137.03,10
140,137.36,137.06,10
145,137.51,137.14,10
145,137.66,137.22,10
141,137.73,137.26,10
141,137.79,137.30,10
144,137.92,137.36,10
147,138.10,137.46,10
146,138.26,137.55,10
144,138.37,137.61,10
143,138.46,137.66,10
143,138.56,137.72,10
143,138.64,137.77,10
141,138.69,137.80,10
143,138.78,137.85,10
142,138.84,137.90,10
145,138.96,137.97,10
142,139.03,138.01,10
143,139.11,138.06,10
143,139.18,138.11,10
145,139.30,138.18,10
143,139.37,138.22,10
143,139.45,138.27,10
142,139.50,138.31,10
149,139.69,138.42,10
142,139.73,138.45,10
151,139.96,138.58,10
144,140.04,138.63,10
144,140.12,138.69,10
145,140.22,138.75,10
146,140.33,138.82,10
144,140.41,138.87,10
144,140.48,138.92,10
143,140.53,138.96,10
145,140.62,139.03,10
143,140.66,139.06,10
145,140.75,139.12,10
146,140.86,139.19,10
145,140.94,139.25,10
145,141.02,139.31,10
143,141.06,139.35,10
143,141.10,139.38,10
143,141.14,139.42,10
144,141.19,139.46,10
150,141.37,139.57,10
151,141.56,139.68,10
150,141.73,139.79,10
144,141.78,139.83,10
149,141.92,139.92,10
149,142.06,140.01,10
152,142.26,140.13,10
149,142.40,140.22,10
147,142.49,140.29,10
149,142.62,140.38,10
147,142.71,140.44,10
151,142.87,140.55,10
155,143.12,140.69,10
150,143.25,140.78,10
149,143.37,140.87,10
154,143.58,141.00,10
153,143.77,141.12,10
153,143.95,141.24,10
152,144.11,141.34,10
153,144.29,141.46,10
152,144.45,141.57,10
152,144.60,141.67,10
150,144.71,141.75,10
152,144.85,141.86,10
152,144.99,141.96,10
151,145.11,142.05,10
153,145.27,142.16,10
152,145.41,142.26,10
158,145.66,142.41,10
154,145.83,142.53,10
152,145.95,142.62,10
154,146.11,142.74,10
153,146.25,142.84,10
152,146.36,142.93,10
152,146.48,143.02,10
153,146.61,143.12,10
153,146.73,143.22,10
155,146.90,143.34,10
153,147.02,143.44,10
152,147.12,143.52,10
153,147.24,143.62,10
151,147.31,143.69,10
153,147.43,143.78,10
154,147.56,143.89,10
154,147.69,143.99,10
157,147.87,144.12,10
158,148.08,144.26,10
160,148.31,144.41,10
159,148.53,144.56,10
154,148.64,144.65,10
160,148.87,144.81,10
157,149.03,144.93,10
164,149.33,145.12,10
159,149.52,145.26,10
166,149.85,145.47,10
164,150.13,145.65,10
168,150.49,145.87,10
172,150.92,146.14,10
164,151.18,146.31,10
162,151.40,146.47,10
168,151.73,146.69,10
169,152.08,146.91,10
167,152.37,147.11,10
167,152.67,147.31,10
168,152.97,147.52,10
169,153.29,147.73,10
169,153.61,147.94,10
171,153.96,148.17,10
175,154.38,148.44,10
170,154.69,148.66,10
167,154.94,148.84,10
178,155.40,149.13,10
177,155.83,149.41,10
172,156.15,149.64,10
180,156.63,149.94,10
183,157.16,150.27,10
174,157.49,150.51,10
181,157.96,150.81,10
185,158.50,151.16,10
192,159.17,151.56,10
185,159.69,151.90,10
182,160.14,152.20,10
187,160.67,152.55,10
195,161.36,152.97,10
192,161.97,153.36,10
191,162.55,153.74,10
188,163.06,154.08,10
193,163.66,154.47,10
204,164.47,154.97,10
205,165.28,155.47,10
198,165.93,155.89,10
194,166.50,156.27,10
200,167.17,156.71,10
196,167.74,157.10,10
197,168.33,157.50,10
195,168.86,157.88,10
209,169.66,158.39,10
208,170.43,158.88,10
199,171.00,159.29,10
198,171.54,159.67,10
200,172.11,160.08,10
201,172.69,160.49,10
209,173.41,160.97,10
207,174.09,161.43,10
205,174.70,161.87,10
205,175.31,162.30,10
203,175.86,162.70,10
203,176.41,163.11,10
204,176.96,163.52,10
207,177.56,163.95,10
212,178.25,164.43,10
203,178.74,164.82,10
205,179.27,165.22,10
206,179.80,165.63,10
205,180.31,166.02,10
207,180.84,166.43,10
208,181.38,166.85,10
207,181.90,167.25,10
212,182.50,167.70,10
207,182.99,168.09,10
207,183.47,168.48,10
220,184.20,168.99,10
217,184.86,169.47,10
222,185.60,170.00,10
225,186.39,170.55,10
216,186.98,171.00,10
227,187.78,171.56,10
222,188.46,172.07,10
219,189.07,172.54,10
220,189.69,173.01,10
215,190.20,173.43,10
219,190.78,173.89,10
222,191.40,174.37,10
222,192.01,174.84,10
218,192.53,175.28,10
221,193.10,175.73,10
228,193.80,176.26,10
224,194.40,176.73,10
227,195.05,177.24,10
231,195.77,177.77,10
230,196.46,178.30,10
236,197.25,178.87,10
228,197.86,179.36,10
236,198.63,179.93,10
240,199.45,180.53,10
241,200.29,181.14,10
229,200.86,181.61,10
230,201.44,182.10,10
239,202.19,182.67,10
242,202.99,183.26,10
247,203.87,183.90,10
245,204.69,184.51,10
236,205.32,185.02,10
250,206.21,185.67,10
251,207.11,186.33,10
241,207.79,186.87,10
251,208.65,187.51,10
254,209.56,188.18,10
248,210.33,188.78,10
251,211.14,189.40,10
254,212.00,190.05,10
253,212.82,190.68,10
253,213.62,191.30,10
246,214.27,191.85,10
251,215.00,192.44,10
249,215.68,193.00,10
247,216.31,193.54,10
248,216.94,194.09,10
246,217.52,194.61,10
255,218.27,195.21,10
257,219.05,195.83,10
250,219.67,196.37,10
260,220.47,197.01,10
261,221.28,197.65,10
260,222.06,198.27,10
264,222.90,198.93,10
256,223.56,199.50,10
260,224.29,200.10,10
254,224.88,200.64,10
257,225.52,201.21,10
255,226.11,201.74,10
254,226.67,202.27,10
257,227.28,202.81,10
260,227.93,203.39,10
262,228.61,203.97,10
259,229.22,204.52,10
260,229.84,205.08,10
259,230.42,205.62,10
261,231.03,206.17,10
264,231.69,206.75,10
256,232.18,207.24,10
256,232.65,207.73,10
259,233.18,208.24,10
261,233.74,208.77,10
259,234.24,209.27,10
267,234.90,209.85,10
261,235.42,210.36,10
258,235.87,210.84,10
260,236.35,211.33,10
271,237.05,211.92,10
275,237.81,212.56,10
273,238.51,213.16,10
267,239.08,213.70,10
264,239.58,214.20,10
267,240.13,214.73,10
273,240.78,215.31,10
280,241.57,215.96,10
281,242.36,216.61,10
278,243.07,217.22,10
270,243.61,217.75,10
280,244.34,218.37,10
282,245.09,219.01,10
278,245.75,219.60,10
280,246.43,220.20,10
277,247.04,220.77,10
277,247.64,221.33,10
278,248.25,221.90,10
279,248.87,222.47,10
276,249.41,223.01,10
278,249.98,223.56,10
275,250.48,224.07,10
278,251.03,224.61,10
277,251.55,225.13,10
275,252.02,225.63,10
274,252.46,226.12,10
278,252.97,226.64,10
275,253.41,227.12,10
274,253.82,227.59,10
273,254.21,228.04,10
273,254.58,228.49,10
280,255.09,229.01,10
291,255.81,229.63,10
281,256.31,230.14,10
283,256.85,230.67,10
291,257.53,231.27,10
295,258.28,231.91,10
294,258.99,232.53,10
285,259.51,233.06,10
290,260.12,233.62,10
298,260.88,234.27,10
294,261.54,234.87,10
288,262.07,235.40,10
293,262.69,235.97,10
294,263.32,236.55,10
287,263.79,237.06,10
289,264.29,237.58,10
288,264.77,238.08,10
293,265.33,238.63,10
291,265.85,239.15,10
287,266.27,239.63,10
291,266.76,240.15,10
301,267.45,240.75,10
299,268.08,241.34,10
292,268.56,241.84,10
293,269.05,242.36,10
299,269.65,242.92,10
301,270.27,243.50,10
295,270.77,244.02,10
299,271.33,244.57,10
301,271.93,245.13,10
300,272.49,245.68,10
292,272.88,246.14,10
293,273.28,246.61,10
294,273.69,247.09,10
294,274.10,247.56,10
293,274.48,248.01,10
291,274.81,248.44,10
290,275.11,248.86,10
292,275.45,249.29,10
289,275.72,249.68,10
288,275.97,250.07,10
293,276.31,250.50,10
295,276.68,250.94,10
292,276.99,251.35,10
290,277.25,251.74,10
289,277.48,252.11,10
294,277.81,252.53,10
292,278.10,252.92,10
291,278.36,253.31,10
294,278.67,253.71,10
294,278.97,254.12,10
294,279.28,254.51,10
291,279.51,254.88,10
294,279.80,255.27,10
294,280.08,255.66,10
289,280.26,255.99,10
292,280.50,256.35,10
290,280.69,256.69,10
291,280.89,257.03,10
287,281.02,257.33,10
287,281.13,257.63,10
290,281.31,257.95,10
288,281.45,258.25,10
287,281.56,258.54,10
286,281.65,258.81,10
286,281.73,259.09,10
288,281.86,259.37,10
289,282.00,259.67,10
285,282.06,259.92,10
285,282.12,260.17,10
284,282.16,260.41,10
284,282.19,260.65,10
283,282.21,260.87,10
286,282.29,261.12,10
287,282.38,261.38,10
282,282.37,261.59,10
283,282.39,261.80,10
282,282.38,262.00,10
281,282.35,262.19,10
281,282.32,262.38,10
280,282.28,262.56,10
280,282.23,262.73,10
281,282.21,262.92,10
279,282.14,263.08,10
278,282.06,263.23,10
279,282.00,263.38,10
278,281.92,263.53,10
278,281.84,263.67,10
278,281.76,263.82,10
276,281.65,263.94,10
277,281.56,264.07,10
278,281.48,264.21,10
279,281.43,264.36,10
276,281.33,264.47,10
275,281.20,264.58,10
276,281.10,264.69,10
276,280.99,264.81,10
274,280.85,264.90,10
274,280.72,264.99,10
273,280.56,265.07,10
274,280.43,265.16,10
272,280.26,265.23,10
275,280.16,265.32,10
274,280.03,265.41,10
274,279.91,265.50,10
274,279.79,265.58,10
274,279.68,265.67,10
273,279.55,265.74,10
271,279.37,265.79,10
270,279.19,265.83,10
271,279.02,265.89,10
271,278.86,265.94,10
270,278.69,265.98,10
268,278.47,266.00,10
269,278.28,266.03,10
268,278.08,266.05,10
267,277.86,266.06,10
270,277.70,266.10,10
267,277.48,266.11,10
266,277.25,266.11,10
267,277.05,266.11,10
265,276.81,266.10,10
265,276.57,266.09,10
265,276.34,266.08,10
264,276.09,266.06,10
264,275.85,266.04,10
263,275.60,266.01,10
261,275.30,265.96,10
262,275.04,265.92,10
262,274.78,265.88,10
262,274.52,265.84,10
262,274.27,265.80,10
261,274.01,265.76,10
260,273.72,265.70,10
261,273.47,265.65,10
261,273.22,265.60,10
262,273.00,265.57,10
261,272.76,265.52,10
259,272.48,265.46,10
259,272.21,265.39,10
258,271.93,265.32,10
258,271.65,265.25,10
257,271.36,265.16,10
257,271.07,265.08,10
257,270.79,265.00,10
256,270.49,264.91,10
255,270.18,264.81,10
256,269.90,264.72,10
256,269.62,264.64,10
255,269.33,264.54,10
254,269.02,264.43,10
254,268.72,264.33,10
255,268.45,264.24,10
253,268.14,264.12,10
252,267.82,264.00,10
253,267.52,263.89,10
253,267.23,263.78,10
252,266.92,263.67,10
251,266.61,263.54,10
251,266.29,263.41,10
251,265.99,263.29,10
250,265.67,263.16,10
249,265.33,263.02,10
248,264.99,262.87,10
249,264.67,262.73,10
248,264.33,262.58,10
247,263.99,262.42,10
247,263.65,262.27,10
248,263.34,262.13,10
247,263.01,261.98,10
246,262.67,261.82,10
245,262.31,261.65,10
246,261.99,261.49,10
245,261.65,261.33,10
245,261.32,261.16,10
245,260.99,261.00,11
243,260.63,260.82,11
243,260.28,260.64,11
243,259.93,260.47,11
245,259.63,260.31,11
244,259.32,260.15,11
241,258.95,259.96,11
242,258.61,259.78,11
243,258.30,259.61,11
243,258.00,259.44,11
242,257.68,259.27,11
242,257.36,259.10,11
242,257.06,258.93,11
243,256.77,258.77,11
241,256.46,258.59,11
240,256.13,258.40,11
241,255.83,258.23,11
241,255.53,258.06,11
240,255.22,257.88,11
239,254.90,257.69,11
239,254.58,257.50,11
239,254.27,257.32,11
241,254.00,257.15,11
239,253.70,256.97,11
237,253.37,256.77,11
235,253.00,256.55,11
235,252.64,256.34,11
236,252.31,256.13,11
236,251.98,255.93,11
236,251.66,255.73,11
233,251.29,255.51,11
236,250.98,255.31,11
235,250.66,255.11,11
236,250.37,254.92,11
233,250.02,254.70,11
234,249.70,254.49,11
233,249.37,254.28,11
233,249.04,254.06,11
233,248.72,253.85,11
233,248.40,253.64,11
231,248.06,253.42,11
230,247.70,253.18,11
230,247.34,252.95,11
230,246.99,252.72,11
231,246.68,252.51,11
229,246.32,252.27,11
229,245.98,252.04,11
230,245.66,251.82,11
229,245.32,251.59,11
227,244.96,251.34,11
228,244.62,251.11,11
227,244.26,250.87,11
228,243.94,250.64,11
228,243.62,250.41,11
227,243.29,250.18,11
226,242.94,249.94,11
226,242.60,249.70,11
227,242.29,249.47,11
227,241.99,249.25,11
225,241.65,249.00,11
225,241.31,248.76,11
228,241.05,248.56,11
226,240.75,248.33,11
224,240.41,248.09,11
224,240.08,247.85,11
223,239.74,247.60,11
225,239.45,247.37,11
224,239.14,247.14,11
223,238.81,246.90,11
224,238.52,246.67,11
223,238.21,246.43,11
223,237.90,246.20,11
222,237.59,245.96,11
221,237.25,245.71,11
222,236.95,245.47,11
223,236.67,245.24,11
222,236.38,245.01,11
220,236.05,244.76,11
221,235.75,244.52,11
222,235.47,244.30,11
221,235.18,244.07,11
219,234.86,243.81,11
219,234.54,243.57,11
220,234.25,243.33,11
220,233.97,243.10,11
219,233.67,242.86,11
218,233.35,242.61,11
218,233.05,242.36,11
218,232.75,242.12,11
217,232.43,241.87,11
217,232.12,241.62,11
217,231.82,241.37,11
216,231.50,241.12,11
216,231.19,240.87,11
215,230.87,240.61,11
216,230.57,240.36,11
217,230.30,240.13,11
217,230.04,239.90,11
215,229.73,239.65,11
215,229.44,239.40,11
215,229.15,239.16,11
213,228.83,238.90,11
214,228.53,238.65,11
214,228.24,238.40,11
214,227.96,238.16,11
212,227.64,237.90,11
212,227.32,237.64,11
212,227.02,237.38,11
213,226.74,237.14,11
213,226.46,236.90,11
213,226.19,236.66,11
213,225.93,236.42,11
211,225.63,236.17,11
211,225.34,235.91,11
211,225.05,235.66,11
211,224.77,235.42,11
210,224.47,235.16,11
209,224.17,234.90,11
211,223.90,234.66,11
210,223.62,234.42,11
208,223.31,234.15,11
209,223.03,233.90,11
207,222.70,233.63,11
208,222.41,233.38,11
208,222.12,233.12,11
208,221.84,232.87,11
208,221.56,232.62,11
206,221.25,232.36,11
207,220.97,232.10,11
206,220.67,231.84,11
205,220.35,231.57,11
205,220.05,231.31,11
205,219.75,231.04,11
205,219.45,230.78,11
205,219.16,230.53,11
205,218.88,230.27,11
203,218.56,230.00,11
203,218.25,229.73,11
203,217.95,229.46,11
203,217.65,229.20,11
204,217.37,228.94,11
203,217.09,228.68,11
204,216.82,228.44,11
202,216.53,228.17,11
201,216.22,227.90,11
201,215.91,227.63,11
201,215.61,227.37,11
202,215.34,227.11,11
201,215.06,226.85,11
204,214.83,226.62,11
202,214.58,226.38,11
201,214.31,226.12,11
200,214.02,225.86,11
201,213.76,225.61,11
204,213.56,225.40,11
203,213.35,225.17,11
201,213.11,224.93,11
198,212.80,224.66,11
201,212.57,224.43,11
201,212.34,224.19,11
201,212.11,223.96,11
199,211.85,223.71,11
199,211.59,223.46,11
198,211.32,223.21,11
198,211.05,222.96,11
198,210.79,222.71,11
198,210.54,222.46,11
198,210.29,222.21,11
197,210.02,221.96,11
198,209.78,221.72,11
197,209.52,221.48,11
198,209.29,221.24,11
196,209.03,220.99,11
198,208.81,220.76,11
199,208.61,220.54,11
197,208.38,220.31,11
196,208.13,220.06,11
195,207.87,219.81,11
197,207.65,219.58,11
197,207.44,219.36,11
195,207.19,219.11,11
195,206.95,218.87,11
194,206.69,218.62,11
195,206.45,218.39,11
194,206.20,218.14,11
194,205.96,217.90,11
194,205.72,217.66,11
196,205.53,217.45,11
193,205.28,217.20,11
194,205.05,216.97,11
195,204.85,216.75,11
197,204.69,216.55,11
192,204.44,216.31,11
192,204.19,216.06,11
194,203.99,215.84,11
199,203.89,215.68,11
196,203.73,215.48,11
192,203.49,215.24,11
194,203.30,215.03,11
195,203.14,214.83,11
195,202.97,214.63,11
193,202.78,214.42,11
193,202.58,214.20,11
192,202.37,213.98,11
193,202.18,213.77,11
193,202.00,213.56,11
191,201.78,213.34,11
191,201.56,213.11,11
191,201.35,212.89,11
191,201.14,212.67,11
193,200.98,212.48,11
194,200.84,212.29,11
191,200.64,212.08,11
191,200.45,211.87,11
194,200.32,211.69,11
193,200.18,211.50,11
194,200.05,211.33,11
192,199.89,211.13,11
192,199.73,210.94,11
192,199.58,210.75,11
191,199.41,210.56,11
192,199.26,210.37,11
193,199.13,210.20,11
193,199.01,210.03,11
191,198.85,209.84,11
190,198.67,209.64,11
192,198.54,209.46,11
192,198.41,209.29,11
192,198.28,209.11,11
190,198.12,208.92,11
189,197.93,208.72,11
190,197.78,208.54,11
189,197.60,208.34,11
188,197.41,208.14,11
188,197.22,207.94,11
188,197.03,207.74,11
187,196.83,207.53,11
186,196.62,207.31,11
187,196.43,207.11,11
189,196.28,206.93,11
187,196.09,206.73,11
185,195.87,206.51,11
186,195.67,206.31,11
187,195.50,206.11,11
187,195.33,205.92,11
185,195.12,205.71,11
185,194.92,205.51,11
185,194.72,205.30,11
185,194.53,205.10,11
188,194.40,204.93,11
186,194.23,204.74,11
185,194.04,204.54,11
182,193.80,204.32,11
183,193.59,204.10,11
183,193.38,203.89,11
184,193.19,203.69,11
183,192.98,203.49,11
182,192.76,203.27,11
183,192.57,203.07,11
183,192.38,202.87,11
182,192.17,202.66,11
182,191.97,202.45,11
183,191.79,202.26,11
183,191.61,202.07,11
181,191.40,201.85,11
180,191.17,201.64,11
181,190.97,201.43,11
183,190.81,201.25,11
180,190.59,201.03,11
179,190.36,200.81,11
179,190.13,200.59,11
180,189.93,200.39,11
179,189.71,200.17,11
183,189.58,200.00,11
179,189.37,199.79,11
179,189.16,199.58,11
181,189.00,199.40,11
178,188.78,199.18,11
179,188.58,198.98,11
179,188.39,198.78,11
181,188.24,198.61,11
182,188.12,198.44,11
179,187.93,198.25,11
179,187.76,198.05,11
179,187.58,197.86,11
179,187.41,197.67,11
179,187.24,197.49,11
178,187.06,197.29,11
176,186.83,197.08,11
177,186.64,196.88,11
176,186.43,196.67,11
176,186.22,196.46,11
176,186.01,196.26,11
175,185.79,196.05,11
175,185.58,195.83,11
175,185.36,195.63,11
174,185.14,195.41,11
174,184.91,195.20,11
174,184.70,194.98,11
173,184.46,194.76,11
174,184.25,194.56,11
174,184.05,194.35,11
175,183.87,194.16,11
173,183.65,193.95,11
176,183.50,193.77,11
176,183.35,193.59,11
176,183.20,193.41,11
176,183.06,193.24,11
179,182.97,193.10,11
174,182.80,192.91,11
174,182.62,192.72,11
175,182.47,192.54,11
175,182.32,192.36,11
174,182.15,192.18,11
174,181.99,192.00,11
174,181.83,191.82,11
172,181.63,191.62,11
172,181.44,191.42,11
172,181.25,191.23,11
172,181.07,191.04,11
172,180.88,190.85,11
172,180.71,190.66,11
171,180.51,190.46,11
171,180.32,190.27,11
171,180.14,190.07,11
171,179.95,189.88,11
171,179.77,189.70,11
170,179.58,189.50,11
171,179.41,189.31,11
172,179.26,189.14,11
171,179.09,188.96,11
170,178.91,188.77,11
170,178.73,188.58,11
170,178.56,188.40,11
169,178.37,188.20,11
168,178.16,188.00,11
168,177.96,187.80,11
170,177.80,187.62,11
168,177.60,187.43,11
169,177.43,187.24,11
169,177.26,187.06,11
167,177.06,186.86,11
168,176.88,186.67,11
167,176.68,186.47,11
168,176.50,186.29,11
168,176.33,186.11,11
169,176.19,185.93,11
169,176.04,185.77,11
167,175.86,185.58,11
166,175.67,185.38,11
167,175.49,185.20,11
168,175.34,185.03,11
169,175.22,184.87,11
167,175.05,184.69,11
166,174.87,184.50,11
166,174.69,184.32,11
167,174.54,184.14,11
167,174.39,183.97,11
166,174.22,183.79,11
166,174.06,183.61,11
165,173.87,183.43,11
164,173.68,183.23,11
165,173.50,183.05,11
164,173.31,182.86,11
164,173.13,182.67,11
164,172.94,182.48,11
164,172.77,182.30,11
166,172.63,182.14,11
166,172.50,181.98,11
164,172.33,181.80,11
165,172.18,181.63,11
165,172.04,181.46,11
165,171.90,181.30,11
165,171.76,181.13,11
164,171.60,180.96,11
166,171.49,180.81,11
168,171.42,180.68,11
168,171.35,180.56,11
164,171.21,180.39,11
164,171.06,180.23,11
165,170.94,180.08,11
166,170.84,179.94,11
166,170.75,179.80,11
164,170.61,179.64,11
164,170.48,179.48,11
165,170.37,179.34,11
164,170.24,179.18,11
164,170.12,179.03,11
163,169.97,178.87,11
163,169.83,178.71,11
164,169.72,178.57,11
166,169.64,178.44,11
166,169.57,178.32,11
166,169.50,178.19,11
164,169.39,178.05,11
163,169.26,177.90,11
166,169.20,177.78,11
166,169.13,177.66,11
166,169.07,177.55,11
166,169.01,177.43,11
163,168.89,177.29,11
165,168.81,177.16,11
164,168.71,177.03,11
164,168.62,176.90,11
163,168.51,176.76,11
164,168.42,176.64,11
163,168.31,176.50,11
165,168.24,176.38,11
163,168.14,176.25,11
162,168.02,176.11,11
162,167.90,175.97,11
162,167.78,175.83,11
161,167.64,175.68,11
161,167.51,175.53,11
159,167.34,175.37,11
159,167.17,175.20,11
159,167.01,175.04,11
160,166.87,174.89,11
160,166.73,174.74,11
160,166.60,174.59,11
160,166.46,174.45,11
160,166.34,174.30,11
161,166.23,174.17,11
159,166.08,174.02,11
159,165.94,173.87,11
158,165.78,173.71,11
161,165.69,173.58,11
162,165.61,173.47,11
159,165.48,173.32,11
159,165.35,173.18,11
159,165.23,173.04,11
160,165.12,172.91,11
158,164.98,172.76,11
159,164.86,172.62,11
159,164.74,172.48,11
159,164.63,172.35,11
161,164.55,172.24,11
159,164.44,172.10,11
159,164.33,171.97,11
159,164.23,171.84,11
160,164.14,171.72,11
159,164.04,171.60,11
158,163.92,171.46,11
158,163.80,171.33,11
159,163.70,171.20,11
158,163.59,171.07,11
157,163.46,170.93,11
158,163.35,170.80,11
158,163.24,170.67,11
159,163.16,170.56,11
156,163.01,170.41,11
156,162.87,170.27,11
157,162.76,170.13,11
157,162.64,170.00,11
157,162.53,169.87,11
156,162.40,169.73,11
158,162.31,169.62,11
157,162.20,169.49,11
160,162.16,169.40,11
158,162.08,169.28,11
155,161.94,169.14,11
157,161.84,169.02,11
159,161.78,168.92,11
159,161.72,168.82,11
159,161.67,168.72,11
158,161.60,168.61,11
157,161.50,168.50,11
157,161.41,168.38,11
157,161.33,168.27,11
159,161.28,168.18,11
158,161.21,168.07,11
157,161.13,167.96,11
160,161.11,167.88,11
160,161.09,167.80,11
158,161.02,167.71,11
156,160.92,167.59,11
159,160.88,167.50,11
159,160.85,167.42,11
157,160.77,167.31,11
157,160.69,167.21,11
156,160.60,167.10,11
159,160.57,167.02,11
158,160.52,166.93,11
156,160.43,166.82,11
155,160.32,166.70,11
157,160.25,166.60,11
157,160.19,166.51,11
157,160.12,166.41,11
157,160.06,166.32,11
157,160.00,166.22,11
156,159.92,166.12,11
155,159.82,166.01,11
156,159.74,165.91,11
157,159.69,165.82,11
159,159.68,165.75,11
156,159.60,165.66,11
156,159.53,165.56,11
155,159.44,165.45,11
154,159.33,165.34,11
154,159.22,165.23,11
155,159.14,165.12,11
155,159.06,165.02,11
153,158.94,164.90,11
154,158.84,164.79,11
153,158.72,164.68,11
153,158.61,164.56,11
154,158.51,164.45,11
156,158.46,164.37,11
157,158.43,164.29,11
156,158.39,164.21,11
156,158.34,164.13,11
153,158.23,164.02,11
156,158.19,163.94,11
157,158.16,163.87,11
159,158.18,163.82,11
158,158.18,163.76,11
155,158.11,163.67,11
157,158.09,163.61,11
157,158.07,163.54,11
155,158.01,163.46,11
156,157.97,163.38,11
155,157.91,163.30,11
157,157.89,163.23,11
154,157.81,163.14,11
154,157.74,163.05,11
157,157.72,162.99,11
156,157.69,162.92,11
156,157.65,162.85,11
154,157.58,162.76,11
154,157.51,162.68,11
156,157.48,162.61,11
154,157.41,162.52,11
156,157.38,162.46,11
153,157.29,162.36,11
153,157.21,162.27,11
153,157.12,162.18,11
153,157.04,162.08,11
154,156.98,162.00,11
156,156.96,161.94,11
155,156.92,161.87,11
154,156.86,161.80,11
153,156.78,161.71,11
152,156.69,161.61,11
153,156.62,161.52,11
153,156.54,161.44,11
152,156.45,161.34,11
152,156.36,161.25,11
155,156.34,161.19,11
155,156.31,161.13,11
153,156.24,161.05,11
154,156.20,160.98,11
152,156.11,160.89,11
156,156.11,160.84,11
156,156.11,160.79,11
157,156.13,160.75,11
155,156.10,160.69,11
155,156.08,160.64,11
155,156.06,160.58,11
154,156.02,160.51,11
154,155.98,160.45,11
155,155.96,160.39,11
156,155.96,160.35,11
154,155.92,160.29,11
155,155.90,160.23,11
154,155.87,160.17,11
153,155.81,160.10,11
154,155.77,160.04,11
155,155.76,159.99,11
153,155.70,159.92,11
154,155.67,159.86,11
153,155.61,159.79,11
154,155.58,159.73,11
155,155.57,159.69,11
154,155.54,159.63,11
156,155.55,159.59,11
154,155.52,159.54,11
152,155.45,159.46,11
153,155.40,159.40,11
152,155.33,159.32,11
152,155.26,159.25,11
155,155.26,159.21,11
153,155.21,159.14,11
154,155.19,159.09,11
153,155.14,159.03,11
151,155.06,158.95,11
152,155.00,158.88,11
155,155.00,158.84,11
152,154.94,158.78,11
153,154.90,158.72,11
152,154.84,158.65,11
152,154.79,158.58,11
151,154.71,158.51,11
151,154.64,158.43,11
153,154.60,158.38,11
154,154.59,158.33,11
151,154.52,158.26,11
154,154.51,158.22,11
152,154.46,158.16,11
152,154.41,158.10,11
151,154.34,158.02,11
151,154.28,157.95,11
153,154.25,157.90,11
152,154.20,157.85,11
153,154.18,157.80,11
152,154.14,157.74,11
153,154.11,157.69,11
153,154.09,157.64,11
151,154.03,157.58,11
153,154.01,157.53,11
153,153.99,157.49,11
152,153.95,157.43,11
153,153.93,157.39,11
151,153.87,157.32,11
151,153.81,157.26,11
153,153.80,157.22,11
154,153.80,157.19,11
152,153.77,157.13,11
154,153.77,157.10,11
152,153.74,157.05,11
151,153.68,156.99,11
153,153.67,156.95,11
155,153.69,156.93,11
152,153.66,156.88,11
152,153.63,156.83,11
154,153.63,156.81,11
153,153.62,156.77,11
153,153.61,156.73,11
151,153.56,156.67,11
153,153.55,156.64,11
152,153.51,156.59,11
154,153.52,156.56,11
152,153.49,156.52,11
154,153.50,156.49,11
154,153.51,156.47,11
152,153.48,156.42,11
152,153.45,156.38,11
151,153.41,156.32,11
156,153.46,156.32,11
153,153.45,156.29,11
154,153.46,156.27,11
154,153.47,156.24,11
154,153.48,156.22,11
152,153.45,156.18,11
153,153.44,156.15,11
153,153.43,156.11,11
151,153.38,156.06,11
151,153.34,156.01,11
153,153.33,155.98,11
154,153.34,155.96,11
151,153.30,155.91,11
155,153.33,155.90,11
152,153.30,155.87,11
155,153.34,155.86,11
154,153.35,155.84,11
153,153.34,155.81,11
155,153.38,155.80,11
153,153.37,155.77,11
155,153.40,155.77,11
153,153.39,155.74,11
155,153.43,155.73,11
152,153.40,155.69,11
154,153.41,155.68,11
154,153.42,155.66,11
153,153.41,155.63,11
152,153.38,155.60,11
154,153.40,155.58,11
152,153.37,155.55,11
152,153.34,155.51,11
151,153.30,155.46,11
152,153.27,155.43,11
149,153.18,155.37,11
152,153.16,155.33,11
152,153.14,155.30,11
151,153.09,155.26,11
151,153.05,155.21,11
154,153.07,155.20,11
152,153.05,155.17,11
152,153.03,155.14,11
150,152.97,155.09,11
151,152.93,155.05,11
152,152.91,155.01,11
156,152.97,155.02,11
159,153.09,155.06,11
155,153.13,155.06,11
153,153.13,155.04,11
154,153.15,155.03,11
159,153.26,155.07,11
158,153.36,155.10,11
155,153.39,155.10,11
154,153.40,155.09,11
159,153.51,155.13,11
155,153.54,155.13,11
156,153.59,155.14,11
158,153.68,155.16,11
157,153.75,155.18,11
157,153.81,155.20,11
162,153.98,155.27,11
159,154.08,155.31,11
159,154.18,155.34,11
157,154.23,155.36,11
160,154.35,155.41,11
158,154.42,155.43,11
159,154.51,155.47,11
160,154.62,155.51,11
163,154.79,155.59,11
162,154.93,155.65,11
157,154.97,155.67,11
161,155.10,155.72,11
159,155.17,155.75,11
159,155.25,155.78,11
158,155.31,155.81,11
158,155.36,155.83,11
159,155.43,155.86,11
158,155.48,155.88,11
159,155.55,155.91,11
159,155.62,155.94,11
164,155.79,156.02,11
160,155.87,156.06,11
164,156.04,156.14,12
164,156.20,156.22,12
161,156.29,156.27,13
160,156.37,156.31,13
159,156.42,156.33,14
159,156.47,156.36,14
164,156.62,156.44,14
165,156.79,156.52,14
160,156.85,156.56,14
168,157.08,156.67,14
172,157.37,156.83,14
166,157.55,156.92,14
165,157.70,157.00,14
164,157.82,157.07,14
164,157.95,157.14,14
172,158.23,157.29,14
176,158.58,157.47,14
174,158.89,157.64,14
167,159.05,157.73,14
175,159.37,157.90,14
167,159.52,158.00,14
173,159.79,158.15,14
172,160.04,158.28,14
171,160.26,158.41,14
170,160.45,158.53,14
168,160.60,158.62,14
169,160.77,158.73,14
170,160.96,158.84,14
178,161.30,159.03,14
171,161.49,159.15,14
170,161.66,159.26,14
175,161.93,159.42,14
179,162.27,159.61,14
178,162.58,159.80,14
176,162.85,159.96,14
173,163.05,160.09,14
173,163.25,160.22,14
179,163.57,160.40,14
174,163.78,160.54,14
174,163.98,160.68,14
174,164.18,160.81,14
179,164.48,160.99,14
182,164.83,161.20,14
175,165.03,161.34,14
179,165.31,161.52,14
183,165.67,161.73,14
180,165.95,161.91,14
178,166.19,162.07,14
182,166.51,162.27,14
188,166.94,162.53,14
178,167.16,162.68,14
181,167.44,162.87,14
178,167.65,163.02,14
189,168.08,163.28,14
190,168.51,163.55,14
187,168.88,163.78,14
187,169.25,164.01,14
188,169.62,164.25,14
189,170.01,164.50,14
184,170.29,164.70,14
183,170.54,164.88,14
183,170.79,165.06,14
197,171.32,165.38,14
191,171.71,165.64,14
193,172.14,165.91,14
189,172.47,166.14,14
197,172.96,166.45,14
187,173.24,166.65,14
187,173.52,166.86,14
189,173.83,167.08,14
197,174.29,167.38,14
198,174.77,167.68,14
198,175.23,167.99,14
197,175.67,168.28,14
193,176.01,168.52,14
194,176.37,168.78,14
195,176.75,169.04,14
194,177.09,169.29,14
195,177.45,169.55,14
198,177.86,169.83,14
192,178.14,170.05,14
198,178.54,170.33,14
204,179.05,170.67,14
196,179.39,170.92,14
209,179.98,171.30,14
214,180.66,171.73,14
200,181.05,172.01,14
215,181.73,172.44,14
216,182.41,172.88,14
217,183.10,173.32,14
209,183.62,173.68,14
217,184.29,174.11,14
223,185.06,174.60,14
223,185.82,175.08,14
215,186.41,175.48,14
222,187.12,175.95,14
219,187.76,176.38,14
218,188.36,176.79,14
213,188.85,177.16,14
223,189.54,177.62,14
225,190.25,178.09,14
229,191.02,178.60,14
231,191.82,179.12,14
234,192.66,179.67,14
237,193.55,180.24,14
239,194.46,180.83,14
225,195.07,181.27,14
241,195.99,181.87,14
243,196.93,182.48,14
246,197.91,183.12,14
239,198.73,183.68,14
239,199.54,184.23,14
248,200.51,184.87,14
251,201.52,185.53,14
246,202.41,186.13,14
243,203.22,186.70,14
240,203.95,187.23,14
243,204.73,187.79,14
252,205.68,188.43,14
254,206.65,189.09,14
250,207.51,189.70,14
258,208.52,190.38,14
261,209.57,191.09,14
263,210.64,191.81,14
253,211.49,192.42,14
266,212.58,193.16,14
265,213.63,193.87,14
257,214.49,194.51,14
266,215.52,195.22,14
271,216.63,195.98,14
259,217.48,196.61,14
259,218.31,197.23,14
259,219.13,197.85,14
262,219.98,198.49,14
273,221.04,199.24,14
275,222.12,199.99,14
275,223.18,200.74,14
270,224.12,201.44,14
279,225.21,202.21,14
279,226.29,202.98,14
270,227.16,203.65,14
279,228.20,204.40,14
273,229.10,205.09,14
270,229.91,205.74,14
273,230.78,206.41,14
274,231.64,207.09,14
271,232.43,207.73,14
275,233.28,208.40,14
276,234.13,209.08,14
273,234.91,209.71,14
277,235.75,210.39,14
271,236.46,210.99,14
273,237.19,211.61,14
270,237.85,212.20,14
272,238.53,212.80,14
281,239.38,213.48,14
274,240.07,214.08,14
271,240.69,214.65,14
272,241.32,215.23,14
277,242.03,215.84,14
281,242.81,216.49,14
277,243.49,217.10,14
275,244.12,217.68,14
275,244.74,218.25,14
285,245.54,218.92,14
281,246.25,219.54,14
289,247.11,220.23,14
291,247.99,220.94,14
294,248.91,221.67,14
293,249.79,222.39,14
297,250.73,223.13,14
300,251.72,223.90,14
296,252.60,224.62,14
291,253.37,225.29,14
290,254.10,225.93,14
296,254.94,226.63,14
304,255.92,227.41,14
306,256.93,228.19,14
308,257.95,228.99,14
306,258.91,229.76,14
311,259.95,230.57,14
312,260.99,231.39,14
313,262.03,232.20,14
306,262.91,232.94,14
309,263.83,233.70,14
307,264.70,234.44,14
302,265.44,235.11,14
305,266.23,235.81,14
305,267.01,236.50,14
317,268.01,237.31,14
319,269.03,238.12,14
307,269.79,238.81,14
317,270.73,239.59,14
318,271.68,240.38,14
320,272.64,241.18,14
311,273.41,241.87,14
311,274.16,242.56,14
318,275.04,243.32,14
310,275.74,243.99,14
313,276.48,244.68,14
315,277.25,245.38,14
317,278.05,246.10,14
309,278.67,246.72,14
314,279.37,247.40,14
312,280.03,248.04,14
314,280.71,248.70,14
313,281.35,249.35,14
317,282.07,250.02,14
310,282.62,250.62,14
313,283.23,251.25,14
310,283.77,251.83,14
312,284.33,252.44,14
313,284.90,253.04,14
312,285.45,253.63,14
316,286.06,254.25,14
321,286.76,254.92,14
315,287.32,255.52,14
314,287.86,256.11,14
318,288.46,256.73,14
318,289.05,257.34,14
317,289.61,257.94,14
315,290.12,258.51,14
313,290.57,259.05,14
311,290.98,259.57,14
319,291.54,260.16,14
312,291.95,260.68,14
319,292.49,261.27,14
316,292.96,261.81,14
312,293.34,262.32,14
323,293.94,262.92,14
317,294.40,263.46,14
315,294.81,263.98,14
318,295.27,264.52,14
320,295.77,265.07,14
317,296.19,265.59,14
314,296.55,266.08,14
313,296.88,266.55,14
315,297.24,267.03,14
315,297.60,267.51,14
312,297.88,267.96,14
311,298.15,268.39,14
314,298.46,268.84,14
313,298.75,269.28,14
315,299.08,269.74,14
311,299.32,270.15,14
312,299.57,270.57,14
312,299.82,270.99,14
314,300.10,271.42,14
310,300.30,271.80,14
312,300.53,272.20,14
309,300.70,272.57,14
317,301.03,273.02,14
316,301.33,273.45,14
314,301.58,273.85,14
309,301.73,274.20,14
315,302.00,274.61,14
316,302.28,275.02,14
312,302.47,275.39,14
312,302.66,275.76,14
311,302.83,276.11,14
309,302.95,276.44,14
312,303.13,276.80,14
313,303.33,277.16,14
307,303.40,277.46,14
308,303.50,277.76,14
307,303.57,278.06,14
306,303.61,278.34,14
309,303.72,278.64,14
308,303.81,278.94,14
306,303.85,279.21,14
306,303.89,279.47,14
306,303.94,279.74,14
304,303.94,279.98,14
303,303.92,280.21,14
304,303.92,280.45,14
303,303.90,280.68,14
305,303.92,280.92,14
303,303.91,281.14,14
303,303.89,281.36,14
301,303.83,281.55,14
301,303.77,281.75,14
301,303.72,281.94,14
299,303.62,282.11,14
300,303.55,282.29,14
298,303.44,282.45,14
301,303.39,282.63,14
300,303.32,282.81,14
296,303.18,282.94,14
295,303.01,283.06,14
296,302.87,283.19,14
297,302.76,283.33,14
294,302.58,283.43,14
297,302.47,283.57,14
296,302.34,283.69,14
296,302.21,283.82,14
296,302.09,283.94,14
295,301.95,284.05,14
295,301.81,284.16,14
294,301.65,284.26,14
294,301.50,284.35,14
296,301.39,284.47,14
298,301.32,284.61,14
296,301.21,284.72,14
293,301.05,284.80,14
291,300.85,284.87,14
293,300.69,284.95,14
294,300.56,285.04,14
294,300.43,285.13,14
295,300.32,285.23,14
294,300.19,285.31,14
294,300.07,285.40,14
295,299.97,285.50,14
291,299.79,285.55,14
291,299.61,285.61,14
290,299.42,285.65,14
291,299.25,285.70,14
291,299.09,285.76,14
292,298.94,285.82,14
291,298.79,285.87,14
290,298.61,285.91,14
289,298.42,285.94,14
288,298.21,285.96,14
288,298.01,285.98,14
289,297.83,286.01,14
290,297.67,286.05,14
289,297.50,286.08,14
288,297.31,286.10,14
287,297.10,286.11,14
287,296.90,286.12,14
286,296.68,286.12,14
285,296.45,286.11,14
285,296.22,286.10,14
287,296.03,286.11,14
286,295.83,286.10,14
283,295.58,286.07,14
282,295.30,286.03,14
281,295.02,285.98,14
282,294.76,285.94,14
281,294.48,285.89,14
279,294.17,285.82,14
283,293.95,285.80,14
282,293.71,285.76,14
279,293.42,285.69,14
279,293.13,285.62,14
278,292.83,285.55,14
278,292.53,285.47,14
276,292.20,285.38,14
276,291.87,285.28,14
276,291.56,285.19,14
275,291.23,285.09,14
274,290.88,284.98,14
274,290.54,284.87,14
274,290.21,284.76,14
273,289.87,284.64,14
273,289.53,284.53,14
271,289.16,284.39,14
272,288.82,284.27,14
272,288.48,284.14,14
270,288.11,284.00,14
271,287.77,283.87,14
269,287.39,283.72,14
270,287.05,283.59,14
271,286.72,283.46,14
268,286.35,283.31,14
271,286.04,283.18,14
269,285.70,283.04,14
268,285.35,282.89,14
267,284.98,282.73,14
267,284.62,282.57,14
268,284.29,282.43,14
267,283.94,282.27,14
266,283.58,282.11,14
265,283.21,281.94,14
266,282.87,281.78,14
265,282.51,281.61,14
263,282.12,281.43,14
263,281.74,281.24,14
264,281.38,281.07,14
264,281.04,280.90,14
262,280.66,280.71,15
262,280.28,280.52,15
262,279.92,280.34,15
262,279.56,280.16,15
261,279.19,279.96,15
260,278.80,279.76,15
259,278.41,279.56,15
260,278.04,279.36,15
260,277.68,279.17,15
259,277.31,278.97,15
258,276.92,278.76,15
258,276.54,278.55,15
258,276.17,278.34,15
257,275.79,278.13,15
256,275.39,277.91,15
257,275.02,277.70,15
256,274.64,277.48,15
256,274.27,277.27,15
256,273.90,277.05,15
255,273.53,276.83,15
254,273.14,276.61,15
257,272.81,276.41,15
254,272.44,276.19,15
254,272.07,275.96,15
254,271.71,275.74,15
254,271.35,275.53,15
252,270.97,275.29,15
251,270.57,275.05,15
251,270.17,274.81,15
250,269.77,274.56,15
250,269.38,274.31,15
250,268.99,274.07,15
250,268.61,273.83,15
250,268.24,273.59,15
250,267.87,273.36,15
249,267.49,273.11,15
248,267.10,272.86,15
248,266.72,272.61,15
247,266.33,272.36,15
247,265.94,272.10,15
246,265.54,271.84,15
246,265.15,271.58,15
245,264.75,271.32,15
245,264.35,271.05,15
245,263.97,270.79,15
244,263.57,270.53,15
243,263.16,270.25,15
244,262.77,269.99,15
244,262.40,269.73,15
243,262.01,269.46,15
242,261.61,269.19,15
242,261.22,268.91,15
243,260.85,268.66,15
241,260.46,268.38,15
241,260.07,268.11,15
241,259.69,267.83,15
240,259.29,267.56,15
240,258.91,267.28,15
240,258.53,267.01,15
239,258.14,266.73,15
242,257.81,266.48,15
238,257.42,266.20,15
239,257.05,265.92,15
237,256.65,265.63,15
237,256.26,265.35,15
237,255.87,265.06,15
236,255.47,264.77,15
237,255.10,264.50,15
235,254.70,264.20,15
236,254.33,263.92,15
235,253.94,263.63,15
234,253.54,263.33,15
233,253.13,263.03,15
234,252.75,262.74,15
232,252.33,262.43,15
233,251.95,262.14,15
232,251.55,261.84,15
232,251.16,261.54,15
233,250.79,261.25,15
233,250.44,260.97,15
230,250.03,260.66,15
230,249.63,260.35,15
230,249.24,260.05,15
230,248.85,259.75,15
229,248.45,259.44,15
229,248.07,259.14,15
229,247.68,258.84,15
228,247.29,258.53,15
227,246.88,258.21,15
228,246.51,257.91,15
226,246.10,257.59,15
227,245.71,257.29,15
227,245.34,256.98,15
225,244.93,256.66,15
227,244.58,256.37,15
229,244.26,256.09,15
226,243.90,255.79,15
225,243.52,255.48,15
225,243.15,255.18,15
224,242.77,254.87,15
223,242.37,254.55,15
226,242.04,254.26,15
225,241.70,253.97,15
223,241.33,253.66,15
223,240.96,253.35,15
224,240.62,253.06,15
223,240.27,252.76,15
222,239.91,252.45,15
221,239.53,252.14,15
223,239.20,251.85,15
223,238.87,251.56,15
220,238.50,251.24,15
219,238.11,250.92,15
221,237.76,250.62,15
221,237.43,250.33,15
222,237.12,250.04,15
219,236.76,249.73,15
219,236.40,249.42,15
220,236.07,249.13,15
219,235.73,248.83,15
218,235.38,248.52,15
218,235.03,248.22,15
218,234.69,247.91,15
219,234.38,247.62,15
217,234.03,247.32,15
217,233.69,247.01,15
217,233.35,246.71,15
217,233.03,246.42,15
218,232.73,246.13,15
217,232.41,245.84,15
215,232.06,245.53,15
215,231.72,245.23,15
215,231.39,244.93,15
214,231.04,244.62,15
214,230.70,244.31,15
213,230.35,244.00,15
212,229.98,243.68,15
213,229.64,243.37,15
214,229.33,243.08,15
213,229.00,242.78,15
213,228.68,242.48,15
212,228.35,242.17,15
213,228.04,241.88,15
213,227.74,241.59,15
211,227.40,241.29,15
211,227.08,240.98,15
211,226.75,240.68,15
211,226.44,240.39,15
210,226.11,240.08,15
210,225.79,239.78,15
211,225.49,239.49,15
212,225.22,239.22,15
209,224.90,238.92,15
209,224.58,238.62,15
209,224.27,238.32,15
208,223.94,238.02,15
207,223.60,237.71,15
210,223.33,237.43,15
207,223.01,237.13,15
207,222.69,236.83,15
206,222.35,236.52,15
206,222.02,236.21,15
206,221.70,235.91,15
206,221.39,235.61,15
205,221.06,235.31,15
204,220.72,234.99,15
205,220.41,234.69,15
206,220.12,234.41,15
206,219.84,234.12,15
203,219.50,233.81,15
204,219.19,233.51,15
204,218.89,233.22,15
203,218.57,232.91,15
204,218.28,232.63,15
202,217.95,232.32,15
203,217.65,232.03,15
202,217.34,231.73,15
203,217.05,231.44,15
201,216.73,231.13,15
201,216.42,230.83,15
200,216.09,230.52,15
200,215.77,230.22,15
200,215.45,229.92,15
199,215.12,229.61,15
199,214.80,229.30,15
199,214.48,229.00,15
200,214.19,228.71,15
200,213.91,228.42,15
200,213.63,228.14,15
199,213.34,227.85,15
200,213.07,227.57,15
198,212.77,227.27,15
198,212.48,226.98,15
197,212.17,226.68,15
199,211.90,226.40,15
199,211.64,226.13,15
199,211.39,225.86,15
198,211.12,225.58,15
198,210.86,225.30,15
199,210.62,225.04,15
196,210.33,224.75,15
196,210.05,224.46,15
197,209.78,224.19,15
199,209.57,223.94,15
200,209.38,223.70,15
197,209.13,223.43,15
198,208.91,223.18,15
198,208.69,222.92,15
198,208.48,222.67,15
200,208.31,222.45,15
199,208.12,222.21,15
196,207.88,221.95,15
198,207.68,221.71,15
197,207.47,221.46,15
199,207.30,221.24,15
196,207.07,220.99,15
195,206.83,220.73,15
195,206.59,220.47,15
194,206.34,220.21,15
195,206.11,219.95,15
194,205.87,219.69,15
196,205.67,219.46,15
195,205.46,219.21,15
192,205.19,218.94,15
192,204.93,218.67,15
194,204.71,218.42,15
193,204.48,218.17,15
192,204.23,217.91,15
192,203.98,217.65,15
196,203.82,217.43,15
198,203.71,217.24,15
194,203.51,217.01,15
192,203.28,216.76,15
194,203.10,216.53,15
195,202.93,216.31,15
196,202.79,216.11,15
194,202.62,215.89,15
194,202.45,215.67,15
196,202.32,215.47,15
194,202.15,215.26,15
192,201.95,215.03,15
192,201.75,214.80,15
191,201.53,214.56,15
192,201.34,214.33,15
193,201.18,214.12,15
194,201.03,213.92,15
195,200.91,213.73,15
192,200.73,213.51,15
191,200.54,213.29,15
190,200.33,213.05,15
191,200.14,212.83,15
189,199.92,212.59,15
189,199.70,212.36,15
190,199.51,212.13,15
191,199.34,211.92,15
189,199.13,211.69,15
189,198.93,211.47,15
193,198.81,211.28,15
187,198.57,211.04,15
187,198.34,210.80,15
186,198.09,210.55,15
188,197.89,210.33,15
189,197.71,210.11,15
185,197.46,209.86,15
187,197.25,209.63,15
186,197.03,209.40,15
186,196.81,209.16,15
185,196.57,208.92,15
185,196.34,208.68,15
187,196.15,208.46,15
187,195.97,208.25,15
183,195.71,208.00,15
185,195.49,207.77,15
184,195.26,207.53,15
184,195.04,207.29,15
184,194.82,207.06,15
184,194.60,206.83,15
182,194.35,206.58,15
186,194.18,206.38,15
187,194.04,206.18,15
184,193.84,205.96,15
187,193.70,205.77,15
183,193.49,205.54,15
183,193.28,205.32,15
185,193.11,205.12,15
183,192.91,204.89,15
185,192.75,204.70,15
182,192.54,204.47,15
182,192.33,204.24,15
181,192.10,204.01,15
181,191.88,203.78,15
179,191.62,203.53,15
180,191.39,203.30,15
182,191.20,203.09,15
179,190.96,202.84,15
179,190.72,202.61,15
179,190.48,202.37,15
179,190.25,202.14,15
178,190.01,201.89,15
178,189.77,201.66,15
177,189.51,201.41,15
178,189.28,201.18,15
176,189.02,200.92,15
176,188.76,200.67,15
175,188.48,200.42,15
175,188.21,200.16,15
176,187.97,199.92,15
175,187.71,199.67,15
175,187.45,199.43,15
177,187.24,199.20,15
178,187.06,198.99,15
178,186.88,198.78,15
176,186.66,198.55,15
175,186.43,198.32,15
177,186.24,198.10,15
175,186.01,197.87,15
178,185.85,197.67,15
176,185.66,197.46,15
174,185.42,197.22,15
175,185.22,197.00,15
173,184.97,196.76,15
174,184.75,196.53,15
174,184.54,196.31,15
175,184.35,196.09,15
175,184.16,195.88,15
174,183.96,195.66,15
172,183.72,195.43,15
174,183.52,195.21,15
174,183.33,195.00,15
173,183.13,194.78,15
172,182.90,194.55,15
172,182.68,194.33,15
172,182.47,194.10,15
172,182.26,193.88,15
174,182.10,193.68,15
171,181.87,193.46,15
171,181.66,193.23,15
172,181.46,193.02,15
171,181.25,192.80,15
169,181.01,192.56,15
171,180.81,192.35,15
169,180.57,192.11,15
170,180.36,191.89,15
168,180.11,191.65,15
169,179.89,191.43,15
168,179.65,191.19,15
169,179.44,190.97,15
168,179.21,190.74,15
168,178.99,190.51,15
169,178.79,190.30,15
168,178.57,190.08,15
167,178.34,189.84,15
167,178.11,189.62,15
166,177.87,189.38,15
167,177.65,189.16,15
168,177.46,188.94,15
167,177.25,188.73,15
167,177.05,188.51,15
166,176.83,188.28,15
166,176.61,188.06,15
166,176.40,187.84,15
166,176.19,187.62,15
164,175.95,187.38,15
166,175.75,187.17,15
165,175.53,186.95,15
166,175.34,186.74,15
168,175.19,186.55,15
164,174.97,186.33,15
165,174.77,186.11,15
165,174.58,185.90,15
164,174.36,185.68,15
164,174.16,185.47,15
162,173.91,185.23,15
165,173.74,185.03,15
166,173.58,184.84,15
166,173.43,184.65,15
165,173.26,184.45,15
166,173.12,184.27,15
167,172.99,184.10,15
166,172.85,183.92,15
165,172.70,183.73,15
165,172.54,183.54,15
165,172.39,183.35,15
165,172.24,183.17,15
164,172.08,182.98,15
163,171.90,182.78,15
161,171.68,182.56,15
162,171.49,182.36,15
163,171.32,182.16,15
163,171.15,181.97,15
162,170.97,181.77,15
163,170.81,181.58,15
162,170.63,181.39,15
161,170.44,181.18,15
162,170.27,180.99,15
161,170.08,180.79,15
161,169.90,180.59,15
161,169.72,180.40,15
161,169.55,180.20,15
162,169.40,180.02,15
161,169.23,179.83,15
159,169.03,179.62,15
161,168.87,179.44,15
159,168.67,179.23,15
159,168.48,179.03,15
160,168.31,178.84,15
162,168.18,178.67,15
161,168.04,178.50,15
160,167.88,178.31,15
159,167.70,178.12,15
161,167.56,177.95,15
161,167.43,177.78,15
162,167.32,177.62,15
162,167.22,177.46,15
160,167.07,177.29,15
159,166.91,177.11,15
160,166.77,176.93,15
161,166.66,176.77,15
160,166.52,176.61,15
159,166.37,176.43,15
159,166.23,176.26,15
160,166.10,176.09,15
160,165.98,175.93,15
159,165.84,175.76,15
158,165.68,175.59,15
159,165.55,175.42,15
160,165.44,175.27,15
158,165.29,175.09,15
158,165.14,174.92,15
158,165.00,174.75,15
157,164.84,174.58,15
157,164.68,174.40,15
159,164.57,174.25,15
157,164.42,174.07,15
157,164.27,173.90,15
156,164.11,173.72,15
157,163.96,173.56,15
157,163.82,173.39,15
157,163.69,173.23,15
158,163.57,173.07,15
156,163.42,172.90,15
156,163.27,172.74,15
157,163.15,172.58,15
158,163.05,172.43,15
159,162.97,172.30,15
157,162.85,172.14,15
156,162.71,171.98,15
159,162.63,171.85,15
159,162.56,171.72,15
159,162.49,171.60,15
156,162.36,171.44,15
159,162.29,171.32,15
160,162.25,171.20,15
159,162.18,171.08,15
157,162.08,170.94,15
157,161.98,170.80,15
158,161.90,170.67,15
159,161.84,170.56,15
157,161.74,170.42,15
156,161.63,170.28,15
155,161.50,170.12,15
155,161.37,169.97,15
155,161.24,169.82,15
156,161.13,169.69,15
156,161.03,169.55,15
155,160.91,169.40,15
155,160.79,169.26,15
160,160.78,169.17,15
158,160.72,169.05,15
157,160.65,168.93,15
155,160.53,168.79,15
155,160.42,168.66,15
158,160.37,168.55,15
158,160.33,168.44,15
157,160.26,168.33,15
156,160.18,168.21,15
156,160.09,168.08,15
156,160.01,167.96,15
156,159.93,167.84,15
155,159.83,167.72,15
156,159.75,167.60,15
155,159.66,167.47,15
154,159.55,167.34,15
156,159.48,167.22,15
155,159.39,167.10,15
156,159.32,166.99,15
154,159.21,166.86,15
153,159.09,166.72,15
157,159.05,166.63,15
156,158.98,166.52,15
156,158.93,166.41,15
155,158.85,166.30,15
154,158.75,166.18,15
155,158.67,166.07,15
155,158.60,165.95,15
153,158.49,165.83,15
155,158.42,165.72,15
154,158.33,165.60,15
154,158.24,165.48,15
154,158.16,165.37,15
155,158.10,165.27,15
152,157.97,165.13,15
155,157.92,165.03,15
154,157.84,164.92,15
155,157.78,164.82,15
154,157.70,164.71,15
153,157.61,164.60,15
155,157.56,164.50,15
154,157.49,164.40,15
155,157.44,164.30,15
154,157.37,164.20,15
154,157.30,164.10,15
154,157.24,164.00,15
154,157.17,163.90,15
153,157.09,163.79,15
153,157.01,163.68,15
154,156.95,163.58,15
153,156.87,163.48,15
152,156.77,163.36,15
155,156.73,163.28,15
155,156.70,163.19,15
153,156.62,163.09,15
154,156.57,163.00,15
152,156.48,162.89,15
153,156.41,162.79,15
154,156.36,162.71,15
152,156.28,162.60,15
153,156.21,162.50,15
152,156.13,162.40,15
153,156.06,162.30,15
154,156.02,162.22,15
156,156.02,162.16,15
155,156.00,162.09,15
154,155.96,162.01,15
153,155.90,161.92,15
156,155.90,161.86,15
158,155.95,161.82,15
157,155.97,161.77,15
157,155.99,161.72,15
156,155.99,161.66,15
155,155.97,161.60,15
158,156.01,161.56,15
159,156.07,161.54,15
156,156.07,161.48,15
156,156.07,161.43,15
156,156.06,161.37,15
156,156.06,161.32,15
155,156.04,161.26,15
154,156.00,161.18,15
155,155.98,161.12,15
154,155.94,161.05,15
156,155.94,161.00,15
154,155.90,160.93,15
153,155.85,160.85,15
154,155.81,160.78,15
156,155.81,160.73,15
154,155.78,160.67,15
155,155.76,160.61,15
155,155.75,160.55,15
156,155.75,160.51,15
154,155.72,160.44,15
154,155.68,160.38,15
156,155.69,160.33,15
155,155.67,160.28,15
158,155.72,160.26,15
159,155.79,160.25,15
154,155.75,160.18,15
160,155.84,160.18,15
158,155.88,160.16,15
160,155.96,160.16,15
156,155.96,160.12,15
158,156.00,160.10,15
158,156.04,160.07,15
159,156.10,160.06,15
156,156.10,160.02,15
158,156.14,160.00,15
158,156.18,159.98,15
160,156.25,159.98,15
158,156.29,159.96,15
159,156.34,159.95,15
158,156.37,159.93,15
159,156.43,159.92,15
157,156.44,159.90,15
158,156.47,159.88,15
158,156.50,159.86,15
160,156.57,159.86,15
156,156.56,159.82,15
155,156.53,159.77,15
155,156.50,159.72,15
155,156.47,159.68,15
158,156.50,159.66,15
158,156.53,159.64,15
154,156.48,159.59,15
156,156.47,159.55,15
156,156.46,159.52,15
154,156.41,159.46,15
157,156.42,159.44,15
159,156.47,159.43,15
156,156.46,159.40,15
156,156.45,159.36,15
160,156.52,159.37,15
158,156.55,159.36,15
157,156.56,159.33,15
155,156.53,159.29,15
155,156.50,159.25,15
157,156.51,159.22,15
155,156.48,159.18,15
154,156.43,159.13,15
155,156.40,159.09,15
154,156.35,159.04,15
154,156.31,158.99,15
154,156.26,158.94,15
153,156.20,158.88,15
152,156.11,158.81,15
153,156.05,158.75,15
154,156.01,158.70,15
153,155.95,158.65,15
155,155.93,158.61,15
156,155.93,158.58,15
153,155.87,158.53,15
152,155.80,158.46,15
153,155.74,158.41,15
153,155.68,158.35,15
154,155.65,158.31,15
153,155.60,158.26,15
154,155.57,158.22,15
152,155.49,158.15,15
153,155.44,158.10,15
157,155.48,158.09,15
155,155.47,158.06,15
152,155.40,158.00,15
154,155.37,157.96,15
152,155.30,157.90,15
153,155.26,157.85,15
151,155.17,157.78,15
153,155.13,157.73,15
151,155.04,157.67,15
152,154.98,157.61,15
151,154.90,157.54,15
152,154.85,157.49,15
152,154.79,157.43,15
151,154.71,157.37,15
150,154.62,157.30,15
153,154.59,157.25,15
154,154.57,157.22,15
153,154.54,157.18,15
158,154.61,157.19,15
154,154.60,157.15,15
153,154.57,157.11,15
152,154.52,157.06,15
153,154.49,157.02,15
154,154.48,156.99,15
155,154.49,156.97,15
154,154.48,156.94,15
151,154.41,156.88,15
151,154.34,156.82,15
154,154.33,156.79,15
153,154.31,156.76,15
153,154.28,156.72,15
159,154.37,156.74,15
153,154.35,156.70,15
155,154.36,156.69,15
155,154.37,156.67,15
154,154.37,156.64,15
154,154.36,156.62,15
152,154.31,156.57,15
153,154.28,156.54,15
154,154.28,156.51,15
152,154.23,156.47,15
155,154.25,156.45,15
154,154.24,156.43,15
155,154.26,156.41,15
156,154.29,156.41,15
154,154.29,156.38,15
152,154.24,156.34,15
155,154.26,156.33,15
154,154.25,156.30,15
153,154.23,156.27,15
152,154.18,156.23,15
153,154.16,156.20,15
153,154.14,156.16,15
152,154.09,156.12,15
154,154.09,156.10,15
157,154.15,156.11,15
157,154.21,156.12,15
155,154.22,156.11,15
153,154.20,156.08,15
158,154.27,156.10,15
159,154.37,156.12,15
155,154.38,156.11,15
158,154.45,156.13,15
155,154.46,156.12,15
154,154.46,156.10,15
155,154.47,156.09,15
156,154.50,156.09,15
159,154.59,156.12,15
158,154.66,156.14,15
161,154.78,156.18,15
157,154.83,156.19,15
158,154.89,156.21,15
160,154.99,156.25,15
161,155.11,156.30,15
162,155.25,156.35,15
159,155.32,156.38,15
158,155.38,156.40,15
159,155.45,156.42,15
164,155.62,156.50,15
167,155.85,156.60,15
162,155.97,156.66,15
159,156.03,156.68,15
164,156.19,156.75,15
163,156.33,156.82,15
161,156.42,156.86,15
160,156.49,156.89,15
160,156.56,156.92,15
163,156.69,156.98,15
162,156.80,157.03,15
162,156.90,157.08,15
161,156.98,157.12,15
161,157.06,157.16,16
159,157.10,157.18,16
159,157.14,157.20,17
162,157.24,157.24,17
164,157.37,157.31,18
159,157.41,157.33,18
163,157.52,157.38,18
161,157.59,157.42,18
162,157.68,157.47,18
162,157.76,157.51,18
164,157.89,157.58,18
167,158.07,157.67,18
165,158.21,157.74,18
162,158.28,157.79,18
166,158.44,157.87,18
166,158.59,157.95,18
164,158.70,158.01,18
162,158.76,158.05,18
162,158.83,158.09,18
162,158.89,158.13,18
162,158.95,158.17,18
165,159.08,158.24,18
167,159.23,158.32,18
167,159.39,158.41,18
164,159.48,158.47,18
168,159.65,158.56,18
167,159.80,158.65,18
168,159.96,158.74,18
165,160.06,158.80,18
166,160.18,158.87,18
168,160.34,158.97,18
167,160.47,159.05,18
167,160.60,159.13,18
167,160.73,159.20,18
170,160.92,159.31,18
171,161.12,159.43,18
171,161.31,159.54,18
167,161.43,159.62,18
170,161.60,159.72,18
167,161.71,159.80,18
166,161.79,159.86,18
174,162.04,160.00,18
178,162.36,160.18,18
177,162.65,160.35,18
184,163.08,160.58,18
175,163.32,160.73,18
180,163.65,160.92,18
181,164.00,161.12,18
188,164.48,161.39,18
186,164.91,161.64,18
190,165.41,161.92,18
183,165.76,162.13,18
181,166.07,162.32,18
189,166.52,162.59,18
197,167.13,162.93,18
200,167.79,163.30,18
190,168.24,163.57,18
187,168.61,163.80,18
193,169.10,164.09,18
194,169.60,164.39,18
197,170.14,164.72,18
189,170.52,164.96,18
192,170.95,165.23,18
189,171.31,165.47,18
193,171.75,165.75,18
195,172.21,166.04,18
193,172.63,166.31,18
199,173.15,166.63,18
199,173.67,166.96,18
196,174.12,167.25,18
204,174.72,167.62,18
197,175.16,167.91,18
196,175.58,168.19,18
206,176.19,168.57,18
199,176.64,168.87,18
197,177.05,169.15,18
197,177.45,169.43,18
195,177.80,169.69,18
202,178.28,170.01,18
209,178.90,170.40,18
210,179.52,170.80,18
207,180.07,171.16,18
203,180.53,171.48,18
204,181.00,171.80,18
203,181.44,172.12,18
201,181.83,172.40,18
202,182.23,172.70,18
205,182.69,173.02,18
210,183.23,173.39,18
209,183.75,173.75,18
218,184.43,174.19,18
211,184.97,174.56,18
213,185.53,174.94,18
222,186.26,175.41,18
223,186.99,175.89,18
217,187.59,176.30,18
214,188.12,176.68,18
215,188.66,177.06,18
217,189.22,177.46,18
214,189.72,177.83,18
213,190.18,178.18,18
218,190.74,178.58,18
218,191.29,178.97,18
214,191.74,179.32,18
219,192.29,179.72,18
228,193.00,180.20,18
231,193.76,180.71,18
222,194.32,181.12,18
218,194.80,181.49,18
217,195.24,181.85,18
223,195.80,182.26,18
233,196.54,182.76,18
224,197.09,183.18,18
227,197.69,183.62,18
223,198.20,184.01,18
228,198.79,184.45,18
227,199.36,184.87,18
223,199.83,185.26,18
227,200.37,185.67,18
234,201.04,186.16,18
224,201.50,186.53,18
223,201.93,186.90,18
226,202.41,187.29,18
226,202.89,187.68,18
229,203.41,188.09,18
232,203.98,188.53,18
240,204.70,189.04,18
229,205.19,189.44,18
227,205.62,189.82,18
235,206.21,190.27,18
243,206.95,190.80,18
242,207.65,191.31,18
241,208.31,191.81,18
235,208.85,192.24,18
237,209.41,192.69,18
244,210.10,193.20,18
247,210.84,193.74,18
243,211.48,194.23,18
246,212.17,194.75,18
240,212.73,195.20,18
248,213.44,195.73,18
256,214.29,196.33,18
258,215.16,196.95,18
251,215.88,197.49,18
260,216.76,198.11,18
263,217.69,198.76,18
261,218.55,199.39,18
251,219.20,199.90,18
257,219.96,200.47,18
255,220.66,201.02,18
265,221.54,201.66,18
259,222.29,202.23,18
259,223.03,202.80,18
264,223.85,203.41,18
256,224.49,203.94,18
256,225.12,204.46,18
255,225.72,204.96,18
269,226.58,205.60,18
273,227.51,206.28,18
270,228.36,206.91,18
275,229.29,207.60,18
277,230.25,208.29,18
280,231.24,209.01,18
282,232.26,209.74,18
271,233.03,210.35,18
277,233.91,211.02,18
285,234.94,211.76,18
284,235.92,212.48,18
287,236.94,213.22,18
279,237.78,213.88,18
278,238.58,214.52,18
283,239.47,215.21,18
283,240.34,215.88,18
276,241.06,216.49,18
293,242.09,217.25,18
295,243.15,218.03,18
283,243.95,218.68,18
293,244.93,219.42,18
298,245.99,220.21,18
297,247.01,220.98,18
290,247.87,221.67,18
298,248.87,222.43,18
300,249.90,223.20,18
295,250.80,223.92,18
301,251.80,224.69,18
306,252.89,225.51,18
304,253.91,226.29,18
299,254.81,227.02,18
299,255.69,227.74,18
304,256.66,228.50,18
312,257.77,229.34,18
316,258.93,230.20,18
308,259.91,230.98,18
303,260.78,231.70,18
312,261.80,232.50,18
313,262.82,233.31,18
307,263.71,234.05,18
306,264.55,234.76,18
316,265.58,235.58,18
314,266.55,236.36,18
308,267.38,237.08,18
314,268.31,237.85,18
314,269.23,238.61,18
313,270.10,239.35,18
307,270.84,240.03,18
312,271.66,240.75,18
321,272.65,241.55,18
326,273.72,242.40,18
322,274.68,243.19,18
314,275.47,243.90,18
319,276.34,244.65,18
325,277.31,245.45,18
327,278.31,246.27,18
322,279.18,247.03,18
318,279.96,247.74,18
315,280.66,248.41,18
319,281.42,249.12,18
316,282.12,249.78,18
320,282.87,250.49,18
318,283.58,251.16,18
314,284.18,251.79,18
319,284.88,252.46,18
318,285.54,253.12,18
314,286.11,253.73,18
314,286.67,254.33,18
313,287.20,254.92,18
314,287.73,255.51,18
314,288.26,256.09,18
313,288.75,256.66,18
311,289.20,257.20,18
314,289.69,257.77,18
311,290.12,258.30,18
311,290.54,258.83,18
310,290.93,259.34,18
310,291.31,259.85,18
311,291.70,260.36,18
311,292.09,260.87,18
309,292.43,261.35,18
312,292.82,261.86,18
308,293.12,262.32,18
308,293.42,262.77,18
308,293.71,263.23,18
306,293.96,263.65,18
306,294.20,264.08,18
305,294.41,264.49,18
304,294.61,264.88,18
305,294.81,265.28,18
303,294.98,265.66,18
303,295.14,266.03,18
303,295.29,266.40,18
303,295.45,266.77,18
306,295.66,267.16,18
303,295.81,267.52,18
303,295.95,267.87,18
305,296.13,268.25,18
305,296.31,268.61,18
302,296.42,268.95,18
302,296.53,269.28,18
302,296.64,269.60,18
301,296.73,269.92,18
302,296.84,270.24,18
303,296.96,270.57,18
300,297.02,270.86,18
299,297.06,271.14,18
298,297.08,271.41,18
298,297.10,271.68,18
297,297.10,271.93,18
300,297.15,272.21,18
296,297.13,272.45,18
296,297.11,272.68,18
295,297.07,272.91,18
296,297.04,273.14,18
297,297.04,273.38,18
295,297.00,273.59,18
295,296.96,273.81,18
295,296.92,274.02,18
293,296.84,274.21,18
292,296.75,274.39,18
294,296.69,274.58,18
293,296.62,274.77,18
291,296.51,274.93,18
291,296.40,275.09,18
291,296.29,275.25,18
291,296.18,275.41,18
291,296.08,275.56,18
291,295.98,275.72,18
291,295.88,275.87,18
293,295.82,276.04,18
295,295.80,276.23,18
294,295.77,276.41,18
291,295.67,276.55,18
292,295.60,276.71,18
288,295.45,276.82,18
289,295.32,276.94,18
289,295.19,277.06,18
289,295.07,277.18,18
287,294.91,277.28,18
286,294.73,277.37,18
286,294.55,277.46,18
287,294.40,277.55,18
285,294.21,277.63,18
285,294.03,277.70,18
285,293.85,277.77,18
286,293.69,277.85,18
284,293.50,277.92,18
283,293.29,277.97,18
282,293.06,278.01,18
282,292.84,278.05,18
281,292.61,278.08,18
281,292.37,278.11,18
280,292.13,278.12,18
281,291.90,278.15,18
279,291.65,278.16,18
278,291.37,278.16,18
278,291.10,278.16,18
278,290.84,278.16,18
277,290.57,278.15,18
277,290.29,278.13,18
276,290.01,278.11,18
275,289.71,278.08,18
274,289.39,278.04,18
273,289.07,277.99,18
274,288.77,277.95,18
273,288.45,277.90,18
273,288.14,277.85,18
272,287.82,277.79,18
272,287.50,277.74,18
272,287.19,277.68,18
271,286.87,277.61,18
270,286.53,277.54,18
269,286.18,277.45,18
270,285.86,277.38,18
269,285.52,277.29,18
267,285.15,277.19,18
268,284.81,277.10,18
267,284.45,277.00,18
267,284.10,276.90,18
267,283.76,276.80,18
266,283.40,276.69,18
265,283.04,276.57,18
266,282.69,276.47,18
266,282.36,276.36,18
264,281.99,276.24,18
265,281.65,276.13,18
265,281.32,276.01,18
264,280.97,275.89,18
264,280.63,275.78,18
264,280.30,275.66,18
265,280.00,275.55,18
262,279.64,275.42,18
262,279.28,275.28,18
264,278.98,275.17,18
264,278.68,275.06,18
264,278.38,274.95,18
262,278.06,274.82,18
261,277.72,274.68,18
260,277.36,274.53,18
260,277.01,274.39,18
261,276.69,274.25,18
259,276.34,274.10,18
259,275.99,273.95,18
259,275.65,273.80,18
259,275.32,273.65,18
