Teste de posicionamento 1.1(EMG ao centro do bíceps (Verde A, Vermelho B) + Ref no pulso) - 16/09/2024 - teste6 - 5 contrações
long frequencia = 1000;                 //frequência de aquisição do sinal, neste caso, 1000 sinais por segundo
float fator1 = 0.02, fator2 = 0.01;
float incerteza = 0.13;
float pico_basal = 130; // Mínimo para ser considerado um pico de contração
int filtro_horizontal=200000; //intervalo de 200ms valores não pode ter mais de 1 contração

Biceps_D,mediaMovel_1,mediaMovel_2,Contracao
152,3.04,1.52,0
153,6.04,3.03,0
151,8.94,4.51,0
150,11.76,5.97,0
150,14.52,7.41,0
151,17.25,8.85,0
152,19.95,10.28,0
151,22.57,11.68,0
151,25.14,13.08,0
149,27.62,14.44,0
151,30.08,15.80,0
150,32.48,17.14,0
151,34.85,18.48,0
151,37.18,19.81,0
150,39.43,21.11,0
149,41.62,22.39,0
151,43.81,23.67,0
150,45.93,24.94,0
149,48.00,26.18,0
149,50.02,27.41,0
148,51.98,28.61,0
149,53.92,29.82,0
149,55.82,31.01,0
149,57.68,32.19,0
149,59.51,33.36,0
148,61.28,34.50,0
147,62.99,35.63,0
149,64.71,36.76,0
151,66.44,37.90,0
148,68.07,39.01,0
147,69.65,40.09,0
147,71.19,41.15,0
147,72.71,42.21,0
149,74.24,43.28,0
150,75.75,44.35,0
147,77.18,45.37,0
147,78.57,46.39,0
147,79.94,47.40,0
149,81.32,48.41,0
149,82.68,49.42,0
146,83.94,50.38,0
145,85.16,51.33,0
145,86.36,52.27,0
149,87.61,53.23,0
147,88.80,54.17,0
147,89.97,55.10,0
147,91.11,56.02,0
146,92.20,56.92,0
148,93.32,57.83,0
146,94.37,58.71,0
145,95.39,59.57,0
145,96.38,60.43,0
145,97.35,61.27,0
147,98.34,62.13,0
146,99.30,62.97,0
145,100.21,63.79,0
144,101.09,64.59,0
145,101.96,65.40,0
145,102.83,66.19,0
146,103.69,66.99,0
147,104.56,67.79,0
143,105.32,68.54,0
146,106.14,69.32,0
145,106.92,70.07,0
146,107.70,70.83,0
144,108.42,71.57,0
143,109.11,72.28,0
143,109.79,72.99,0
144,110.48,73.70,0
145,111.17,74.41,0
146,111.86,75.13,0
142,112.47,75.79,0
144,113.10,76.48,0
145,113.73,77.16,0
144,114.34,77.83,0
142,114.89,78.47,0
143,115.46,79.12,0
143,116.01,79.76,0
144,116.57,80.40,0
144,117.11,81.03,0
142,117.61,81.64,0
143,118.12,82.26,0
143,118.62,82.87,0
144,119.13,83.48,0
142,119.58,84.06,0
142,120.03,84.64,0
142,120.47,85.22,0
143,120.92,85.79,0
144,121.38,86.37,0
143,121.82,86.94,0
142,122.22,87.49,0
141,122.59,88.03,0
142,122.98,88.57,0
143,123.38,89.11,0
142,123.76,89.64,0
141,124.10,90.15,0
145,124.52,90.70,0
142,124.87,91.21,0
142,125.21,91.72,0
142,125.55,92.23,0
142,125.88,92.72,0
142,126.20,93.22,0
142,126.51,93.70,0
142,126.82,94.19,0
141,127.11,94.65,0
140,127.37,95.11,0
141,127.64,95.57,0
142,127.93,96.03,0
142,128.21,96.49,0
141,128.46,96.94,0
140,128.69,97.37,0
140,128.92,97.79,0
142,129.18,98.24,0
142,129.44,98.67,0
140,129.65,99.09,0
140,129.86,99.50,0
140,130.06,99.90,0
140,130.26,100.30,0
141,130.47,100.71,0
140,130.66,101.10,0
140,130.85,101.49,0
141,131.05,101.89,0
141,131.25,102.28,0
140,131.43,102.65,0
137,131.54,103.00,0
140,131.71,103.37,0
140,131.87,103.73,0
140,132.04,104.10,0
140,132.19,104.46,0
141,132.37,104.82,0
140,132.52,105.17,0
140,132.67,105.52,0
140,132.82,105.87,0
139,132.94,106.20,0
139,133.06,106.53,0
139,133.18,106.85,0
141,133.34,107.19,0
139,133.45,107.51,0
137,133.52,107.80,0
137,133.59,108.10,0
139,133.70,108.41,0
140,133.83,108.72,0
139,133.93,109.02,0
138,134.01,109.31,0
138,134.09,109.60,0
139,134.19,109.89,0
139,134.29,110.19,0
137,134.34,110.45,0
137,134.39,110.72,0
138,134.47,110.99,0
140,134.58,111.28,0
139,134.66,111.56,0
137,134.71,111.81,0
139,134.80,112.09,0
137,134.84,112.33,0
139,134.92,112.60,0
137,134.97,112.85,0
137,135.01,113.09,0
138,135.07,113.34,0
138,135.13,113.58,0
137,135.16,113.82,0
136,135.18,114.04,0
137,135.22,114.27,0
141,135.33,114.54,0
137,135.37,114.76,0
137,135.40,114.98,0
137,135.43,115.20,0
136,135.44,115.41,0
137,135.47,115.63,0
137,135.50,115.84,0
136,135.51,116.04,0
136,135.52,116.24,0
137,135.55,116.45,0
137,135.58,116.65,0
138,135.63,116.87,0
136,135.64,117.06,0
136,135.64,117.25,0
137,135.67,117.45,0
137,135.70,117.64,0
135,135.68,117.82,0
135,135.67,117.99,0
135,135.66,118.16,0
137,135.68,118.35,0
137,135.71,118.53,0
135,135.70,118.70,0
135,135.68,118.86,0
135,135.67,119.02,0
137,135.70,119.20,0
135,135.68,119.36,0
134,135.65,119.51,0
135,135.63,119.66,0
135,135.62,119.81,0
135,135.61,119.97,0
135,135.60,120.12,0
133,135.55,120.25,0
133,135.49,120.37,0
135,135.48,120.52,0
135,135.47,120.66,0
133,135.43,120.79,0
134,135.40,120.92,0
133,135.35,121.04,0
135,135.34,121.18,0
134,135.32,121.31,0
133,135.27,121.42,0
133,135.22,121.54,0
133,135.18,121.66,0
135,135.18,121.79,0
133,135.13,121.90,0
132,135.07,122.00,0
133,135.03,122.11,0
133,134.99,122.22,0
134,134.97,122.34,0
131,134.89,122.43,0
133,134.85,122.53,0
133,134.81,122.64,0
133,134.78,122.74,0
133,134.74,122.84,0
133,134.71,122.94,0
132,134.65,123.03,0
133,134.62,123.13,0
133,134.59,123.23,0
132,134.54,123.32,0
132,134.48,123.41,0
131,134.42,123.48,0
132,134.37,123.57,0
132,134.32,123.65,0
131,134.25,123.73,0
131,134.19,123.80,0
132,134.14,123.88,0
132,134.10,123.96,0
132,134.06,124.04,0
130,133.98,124.10,0
129,133.88,124.15,0
131,133.82,124.22,0
133,133.80,124.31,0
131,133.75,124.37,0
130,133.67,124.43,0
131,133.62,124.50,0
132,133.59,124.57,0
131,133.54,124.64,0
131,133.49,124.70,0
129,133.40,124.74,0
129,133.31,124.78,0
131,133.26,124.85,0
130,133.20,124.90,0
129,133.11,124.94,0
129,133.03,124.98,0
131,132.99,125.04,0
131,132.95,125.10,0
131,132.91,125.16,0
129,132.83,125.20,0
131,132.80,125.25,0
129,132.72,125.29,0
130,132.67,125.34,0
129,132.59,125.38,0
130,132.54,125.42,0
129,132.47,125.46,0
130,132.42,125.50,0
129,132.35,125.54,0
128,132.26,125.56,0
129,132.20,125.60,0
129,132.14,125.63,0
130,132.09,125.68,0
129,132.03,125.71,0
128,131.95,125.73,0
128,131.87,125.75,0
129,131.81,125.79,0
129,131.76,125.82,0
129,131.70,125.85,0
128,131.63,125.87,0
128,131.56,125.89,0
129,131.50,125.92,0
129,131.45,125.96,0
127,131.37,125.97,0
128,131.30,125.99,0
128,131.23,126.01,0
129,131.19,126.04,0
127,131.10,126.05,0
127,131.02,126.06,0
128,130.96,126.07,0
128,130.90,126.09,0
129,130.86,126.12,0
127,130.79,126.13,0
127,130.71,126.14,0
128,130.66,126.16,0
128,130.60,126.18,0
128,130.55,126.20,0
127,130.48,126.20,0
127,130.41,126.21,0
127,130.34,126.22,0
127,130.28,126.23,0
127,130.21,126.23,0
126,130.13,126.23,0
126,130.04,126.23,0
127,129.98,126.24,0
127,129.92,126.25,0
126,129.84,126.24,0
125,129.75,126.23,0
125,129.65,126.22,0
127,129.60,126.23,0
127,129.55,126.23,0
125,129.46,126.22,0
126,129.39,126.22,0
127,129.34,126.23,0
127,129.29,126.23,0
125,129.21,126.22,0
125,129.12,126.21,0
125,129.04,126.20,0
126,128.98,126.20,0
127,128.94,126.20,0
125,128.86,126.19,0
125,128.78,126.18,0
130,128.81,126.22,0
127,128.77,126.23,0
126,128.72,126.22,0
125,128.64,126.21,0
125,128.57,126.20,0
125,128.50,126.19,0
127,128.47,126.20,0
125,128.40,126.18,0
123,128.29,126.15,0
124,128.21,126.13,0
125,128.14,126.12,0
125,128.08,126.11,0
125,128.02,126.10,0
124,127.94,126.08,0
125,127.88,126.07,0
126,127.84,126.06,0
124,127.76,126.04,0
123,127.67,126.01,0
125,127.61,126.00,0
125,127.56,125.99,0
127,127.55,126.00,0
125,127.50,125.99,0
125,127.45,125.98,0
125,127.40,125.97,0
127,127.39,125.98,0
125,127.35,125.97,0
125,127.30,125.96,0
125,127.25,125.95,0
125,127.21,125.95,0
125,127.16,125.94,0
125,127.12,125.93,0
123,127.04,125.90,0
124,126.98,125.88,0
125,126.94,125.87,0
125,126.90,125.86,0
125,126.86,125.85,0
123,126.78,125.82,0
124,126.73,125.81,0
124,126.67,125.79,0
125,126.64,125.78,0
123,126.57,125.75,0
125,126.54,125.74,0
124,126.48,125.73,0
125,126.46,125.72,0
124,126.41,125.70,0
123,126.34,125.68,0
123,126.27,125.65,0
124,126.23,125.63,0
124,126.18,125.62,0
123,126.12,125.59,0
124,126.08,125.57,0
123,126.01,125.55,0
124,125.97,125.53,0
123,125.91,125.51,0
122,125.84,125.47,0
122,125.76,125.44,0
124,125.72,125.42,0
123,125.67,125.40,0
124,125.64,125.38,0
121,125.54,125.34,0
123,125.49,125.32,0
124,125.46,125.30,0
124,125.43,125.29,0
123,125.38,125.27,0
122,125.32,125.24,0
123,125.27,125.21,0
123,125.23,125.19,0
124,125.20,125.18,0
123,125.16,125.16,0
122,125.09,125.13,0
123,125.05,125.10,0
125,125.05,125.10,0
123,125.01,125.08,0
123,124.97,125.06,0
121,124.89,125.02,0
121,124.81,124.98,0
124,124.80,124.97,0
122,124.74,124.94,0
120,124.65,124.89,0
123,124.61,124.87,0
122,124.56,124.84,0
121,124.49,124.81,0
121,124.42,124.77,0
121,124.35,124.73,0
121,124.28,124.69,0
123,124.26,124.68,0
121,124.19,124.64,0
121,124.13,124.60,0
121,124.07,124.57,0
121,124.01,124.53,0
123,123.99,124.52,0
121,123.93,124.48,0
121,123.87,124.45,0
121,123.81,124.41,0
122,123.77,124.39,0
123,123.76,124.37,0
121,123.70,124.34,0
121,123.65,124.31,0
121,123.60,124.27,0
124,123.60,124.27,0
121,123.55,124.24,0
122,123.52,124.22,0
121,123.47,124.18,0
122,123.44,124.16,0
121,123.39,124.13,0
121,123.34,124.10,0
122,123.32,124.08,0
123,123.31,124.07,0
122,123.28,124.05,0
123,123.28,124.04,0
119,123.19,123.99,0
123,123.19,123.98,0
123,123.19,123.97,0
125,123.22,123.98,0
124,123.24,123.98,0
121,123.19,123.95,0
123,123.19,123.94,0
124,123.21,123.94,0
124,123.22,123.94,0
123,123.22,123.93,0
123,123.21,123.92,0
123,123.21,123.91,0
125,123.24,123.92,0
125,123.28,123.93,0
125,123.31,123.94,0
124,123.33,123.94,0
123,123.32,123.93,0
124,123.33,123.93,0
124,123.35,123.94,0
123,123.34,123.93,0
123,123.33,123.92,0
121,123.29,123.89,0
124,123.30,123.89,0
121,123.26,123.86,0
125,123.29,123.87,0
124,123.30,123.87,0
124,123.32,123.87,0
124,123.33,123.87,0
121,123.29,123.85,0
123,123.28,123.84,0
122,123.25,123.82,0
124,123.27,123.82,0
121,123.22,123.79,0
122,123.20,123.77,0
123,123.20,123.77,0
123,123.19,123.76,0
121,123.15,123.73,0
121,123.10,123.70,0
123,123.10,123.70,0
126,123.16,123.72,0
124,123.18,123.72,0
122,123.15,123.71,0
121,123.11,123.68,0
121,123.07,123.65,0
121,123.03,123.63,0
123,123.03,123.62,0
123,123.03,123.61,0
121,122.99,123.59,0
122,122.97,123.57,0
121,122.93,123.55,0
122,122.91,123.53,0
121,122.87,123.50,0
121,122.83,123.48,0
121,122.80,123.46,0
120,122.74,123.42,0
121,122.71,123.40,0
123,122.71,123.39,0
124,122.74,123.40,0
121,122.70,123.37,0
121,122.67,123.35,0
121,122.63,123.33,0
121,122.60,123.30,0
121,122.57,123.28,0
123,122.58,123.28,0
121,122.55,123.26,0
121,122.52,123.23,0
121,122.49,123.21,0
121,122.46,123.19,0
122,122.45,123.18,0
124,122.48,123.18,0
121,122.45,123.16,0
121,122.42,123.14,0
122,122.41,123.13,0
124,122.44,123.14,0
123,122.45,123.14,0
123,122.46,123.14,0
123,122.48,123.13,0
125,122.53,123.15,0
127,122.62,123.19,0
125,122.66,123.21,0
123,122.67,123.21,0
123,122.68,123.21,0
125,122.72,123.22,0
125,122.77,123.24,0
125,122.81,123.26,0
123,122.82,123.26,0
123,122.82,123.25,0
123,122.82,123.25,0
123,122.83,123.25,0
124,122.85,123.26,0
124,122.87,123.26,0
121,122.84,123.24,0
123,122.84,123.24,0
125,122.88,123.26,0
124,122.91,123.26,0
124,122.93,123.27,0
122,122.91,123.26,0
124,122.93,123.27,0
123,122.93,123.26,0
124,122.95,123.27,0
123,122.95,123.27,0
123,122.96,123.26,0
124,122.98,123.27,0
122,122.96,123.26,0
122,122.94,123.25,0
124,122.96,123.25,0
123,122.96,123.25,0
123,122.96,123.25,0
123,122.96,123.25,0
122,122.94,123.23,0
124,122.96,123.24,0
127,123.04,123.28,0
124,123.06,123.29,0
123,123.06,123.28,0
124,123.08,123.29,0
123,123.08,123.29,0
125,123.12,123.31,0
123,123.11,123.30,0
125,123.15,123.32,0
125,123.19,123.34,0
124,123.21,123.34,0
123,123.20,123.34,0
123,123.20,123.34,0
124,123.21,123.34,0
123,123.21,123.34,0
123,123.21,123.34,0
123,123.20,123.33,0
121,123.16,123.31,0
123,123.15,123.31,0
123,123.15,123.30,0
123,123.15,123.30,0
124,123.16,123.31,0
122,123.14,123.29,0
123,123.14,123.29,0
124,123.16,123.30,0
121,123.11,123.28,0
124,123.13,123.28,0
124,123.15,123.29,0
124,123.17,123.30,0
121,123.12,123.27,0
122,123.10,123.26,0
123,123.10,123.26,0
124,123.12,123.27,0
122,123.09,123.25,0
124,123.11,123.26,0
123,123.11,123.26,0
125,123.15,123.28,0
127,123.22,123.31,0
129,123.34,123.37,0
121,123.29,123.35,0
126,123.35,123.37,0
127,123.42,123.41,0
131,123.57,123.48,0
131,123.72,123.56,0
130,123.85,123.62,0
127,123.91,123.66,0
126,123.95,123.68,0
129,124.05,123.73,0
127,124.11,123.77,0
127,124.17,123.80,0
129,124.26,123.85,0
131,124.40,123.92,0
127,124.45,123.95,0
128,124.52,123.99,0
127,124.57,124.02,0
127,124.62,124.05,0
125,124.63,124.06,0
127,124.68,124.09,0
125,124.68,124.10,0
127,124.73,124.13,0
127,124.77,124.16,0
125,124.78,124.17,0
126,124.80,124.19,0
130,124.91,124.24,0
127,124.95,124.27,0
128,125.01,124.31,0
130,125.11,124.37,0
131,125.23,124.43,0
129,125.30,124.48,0
127,125.34,124.50,0
131,125.45,124.57,0
132,125.58,124.64,0
132,125.71,124.72,0
133,125.86,124.80,0
135,126.04,124.90,0
131,126.14,124.96,0
129,126.19,125.00,0
129,126.25,125.04,0
140,126.53,125.19,0
141,126.82,125.35,0
137,127.02,125.47,0
138,127.24,125.59,0
135,127.39,125.69,0
133,127.51,125.76,0
136,127.68,125.86,0
135,127.82,125.95,0
133,127.93,126.02,0
136,128.09,126.12,0
137,128.27,126.23,0
137,128.44,126.34,0
138,128.63,126.46,0
136,128.78,126.55,0
136,128.92,126.65,0
134,129.02,126.72,0
136,129.16,126.81,0
135,129.28,126.89,0
137,129.44,127.00,0
141,129.67,127.14,0
136,129.79,127.22,0
137,129.94,127.32,0
139,130.12,127.44,0
139,130.30,127.55,0
139,130.47,127.67,0
139,130.64,127.78,0
141,130.85,127.91,0
141,131.05,128.05,0
137,131.17,128.13,0
137,131.29,128.22,0
140,131.46,128.34,0
141,131.65,128.47,0
141,131.84,128.59,0
141,132.02,128.72,0
139,132.16,128.82,0
139,132.30,128.92,0
142,132.49,129.05,0
140,132.64,129.16,0
138,132.75,129.25,0
144,132.97,129.40,0
144,133.20,129.54,0
141,133.35,129.66,0
145,133.58,129.81,0
142,133.75,129.93,0
141,133.90,130.04,0
142,134.06,130.16,0
141,134.20,130.27,0
141,134.33,130.38,0
143,134.51,130.51,0
141,134.64,130.61,0
145,134.84,130.75,0
143,135.01,130.88,0
141,135.13,130.98,0
140,135.23,131.07,0
141,135.34,131.17,0
143,135.49,131.29,0
141,135.60,131.38,0
141,135.71,131.48,0
141,135.82,131.57,0
143,135.96,131.69,0
144,136.12,131.81,0
143,136.26,131.92,0
141,136.35,132.01,0
140,136.43,132.09,0
143,136.56,132.20,0
141,136.65,132.29,0
141,136.73,132.38,0
141,136.82,132.46,0
143,136.94,132.57,0
141,137.02,132.65,0
143,137.14,132.76,0
145,137.30,132.88,0
145,137.46,133.00,0
141,137.53,133.08,0
145,137.68,133.20,0
145,137.82,133.32,0
143,137.93,133.42,0
151,138.19,133.59,0
147,138.36,133.73,0
145,138.50,133.84,0
144,138.61,133.94,0
144,138.71,134.04,0
143,138.80,134.13,0
143,138.88,134.22,0
143,138.97,134.31,0
145,139.09,134.41,0
143,139.17,134.50,0
143,139.24,134.58,0
145,139.36,134.69,0
143,139.43,134.77,0
143,139.50,134.85,0
142,139.55,134.93,0
142,139.60,135.00,0
143,139.67,135.08,0
146,139.79,135.19,0
143,139.86,135.26,0
145,139.96,135.36,0
141,139.98,135.42,0
143,140.04,135.49,0
143,140.10,135.57,0
148,140.26,135.69,0
147,140.39,135.81,0
145,140.49,135.90,0
145,140.58,135.99,0
147,140.71,136.10,0
145,140.79,136.19,0
145,140.88,136.28,0
143,140.92,136.34,0
147,141.04,136.45,0
143,141.08,136.52,0
151,141.28,136.66,0
149,141.43,136.78,0
151,141.62,136.93,0
145,141.69,137.01,0
149,141.84,137.13,0
153,142.06,137.28,0
153,142.28,137.44,0
153,142.49,137.60,0
151,142.66,137.73,0
153,142.87,137.88,0
151,143.03,138.02,0
149,143.15,138.13,0
149,143.27,138.23,0
151,143.42,138.36,0
155,143.66,138.53,0
159,143.96,138.73,0
163,144.34,138.98,0
165,144.76,139.24,0
156,144.98,139.40,0
164,145.36,139.65,0
167,145.79,139.92,0
172,146.32,140.24,0
173,146.85,140.57,0
162,147.15,140.79,0
165,147.51,141.03,0
169,147.94,141.31,0
163,148.24,141.52,0
164,148.56,141.75,0
164,148.87,141.97,0
170,149.29,142.25,0
173,149.76,142.56,0
172,150.21,142.85,0
169,150.58,143.12,0
169,150.95,143.37,0
177,151.47,143.71,0
174,151.92,144.01,0
169,152.27,144.26,0
183,152.88,144.65,0
179,153.40,144.99,0
176,153.85,145.30,0
185,154.48,145.70,0
189,155.17,146.13,0
185,155.76,146.52,0
177,156.19,146.83,0
181,156.69,147.17,0
187,157.29,147.57,0
184,157.83,147.93,0
178,158.23,148.23,0
186,158.78,148.61,0
195,159.51,149.07,0
198,160.28,149.56,0
192,160.91,149.99,0
187,161.44,150.36,0
200,162.21,150.85,0
202,163.00,151.37,0
204,163.82,151.89,0
204,164.63,152.41,0
204,165.41,152.93,0
195,166.01,153.35,0
203,166.75,153.85,0
211,167.63,154.42,0
213,168.54,155.00,0
212,169.41,155.57,0
203,170.08,156.05,0
217,171.02,156.66,0
220,172.00,157.29,0
221,172.98,157.93,0
224,174.00,158.59,0
220,174.92,159.20,0
215,175.72,159.76,0
228,176.76,160.44,0
224,177.71,161.08,0
221,178.58,161.68,0
220,179.40,162.26,0
226,180.34,162.90,0
233,181.39,163.60,0
230,182.36,164.26,0
229,183.29,164.91,0
230,184.23,165.56,0
238,185.30,166.29,0
241,186.42,167.03,0
242,187.53,167.78,0
233,188.44,168.44,0
237,189.41,169.12,0
237,190.36,169.80,0
239,191.33,170.49,0
236,192.23,171.15,0
239,193.16,171.83,0
238,194.06,172.49,0
233,194.84,173.09,0
243,195.80,173.79,0
235,196.59,174.40,0
233,197.31,174.99,0
241,198.19,175.65,0
241,199.04,176.30,0
245,199.96,176.99,0
247,200.90,177.69,0
240,201.69,178.31,0
243,202.51,178.96,0
253,203.52,179.70,0
255,204.55,180.45,0
257,205.60,181.22,0
249,206.47,181.90,0
262,207.58,182.70,0
263,208.69,183.50,0
265,209.81,184.32,0
267,210.96,185.14,0
254,211.82,185.83,0
254,212.66,186.51,0
255,213.51,187.20,0
257,214.38,187.90,0
269,215.47,188.71,0
271,216.58,189.53,0
273,217.71,190.36,0
274,218.84,191.20,0
269,219.84,191.98,0
278,221.00,192.84,0
279,222.16,193.70,0
281,223.34,194.57,0
275,224.37,195.38,0
279,225.46,196.21,0
281,226.58,197.06,0
285,227.74,197.94,0
279,228.77,198.75,0
276,229.71,199.52,0
276,230.64,200.29,0
279,231.61,201.08,0
278,232.53,201.85,0
275,233.38,202.58,0
275,234.22,203.30,0
277,235.07,204.04,0
285,236.07,204.85,0
279,236.93,205.59,0
279,237.77,206.32,0
275,238.52,207.01,0
280,239.34,207.74,0
281,240.18,208.47,0
281,240.99,209.20,0
285,241.87,209.96,0
288,242.80,210.74,0
281,243.56,211.44,0
291,244.51,212.23,0
293,245.48,213.04,0
286,246.29,213.77,0
285,247.06,214.48,0
289,247.90,215.23,0
299,248.92,216.07,0
290,249.75,216.81,0
293,250.61,217.57,0
301,251.62,218.40,0
298,252.55,219.20,0
296,253.42,219.97,0
301,254.37,220.78,0
306,255.40,221.63,0
308,256.45,222.49,0
297,257.26,223.24,0
304,258.20,224.05,0
303,259.09,224.84,0
297,259.85,225.56,0
297,260.60,226.27,0
302,261.42,227.03,0
312,262.43,227.88,0
314,263.47,228.74,0
305,264.30,229.50,0
313,265.27,230.34,0
318,266.33,231.21,0
320,267.40,232.10,0
313,268.31,232.91,0
309,269.12,233.67,0
308,269.90,234.41,0
323,270.96,235.30,0
320,271.94,236.15,0
311,272.73,236.90,0
315,273.57,237.68,0
317,274.44,238.47,0
319,275.33,239.28,0
317,276.16,240.05,0
314,276.92,240.79,0
316,277.70,241.54,0
313,278.41,242.26,0
312,279.08,242.96,0
312,279.74,243.65,0
316,280.46,244.37,0
317,281.19,245.10,0
318,281.93,245.83,0
313,282.55,246.50,0
321,283.32,247.24,0
328,284.22,248.05,0
324,285.01,248.81,0
317,285.65,249.49,0
317,286.28,250.17,0
315,286.85,250.81,0
314,287.39,251.45,0
315,287.95,252.08,0
315,288.49,252.71,0
321,289.14,253.39,0
316,289.68,254.02,0
326,290.40,254.74,0
320,290.99,255.39,0
322,291.61,256.06,0
320,292.18,256.70,0
319,292.72,257.32,0
317,293.20,257.92,0
328,293.90,258.62,0
324,294.50,259.27,0
325,295.11,259.93,0
329,295.79,260.62,0
335,296.57,261.36,0
331,297.26,262.06,0
330,297.92,262.74,0
335,298.66,263.46,0
328,299.25,264.11,0
325,299.76,264.72,0
329,300.35,265.36,0
327,300.88,265.98,0
327,301.40,266.59,0
325,301.87,267.17,0
336,302.56,267.86,0
334,303.18,268.52,0
325,303.62,269.09,0
331,304.17,269.70,0
326,304.60,270.27,0
332,305.15,270.88,0
327,305.59,271.45,0
327,306.02,272.00,0
334,306.58,272.62,0
329,307.03,273.19,0
325,307.39,273.70,0
325,307.74,274.22,0
330,308.18,274.77,0
326,308.54,275.29,0
331,308.99,275.84,0
325,309.31,276.34,0
327,309.66,276.84,0
326,309.99,277.33,0
324,310.27,277.80,0
327,310.60,278.29,0
325,310.89,278.76,0
323,311.13,279.20,0
330,311.51,279.71,0
330,311.88,280.21,0
329,312.22,280.70,0
324,312.46,281.13,0
325,312.71,281.57,0
326,312.98,282.02,0
328,313.28,282.48,0
330,313.61,282.95,0
331,313.96,283.43,0
329,314.26,283.89,0
328,314.53,284.33,0
331,314.86,284.80,0
332,315.21,285.27,0
333,315.56,285.74,0
327,315.79,286.16,0
329,316.06,286.59,0
330,316.33,287.02,0
329,316.59,287.44,0
326,316.78,287.83,0
327,316.98,288.22,0
331,317.26,288.64,0
330,317.52,289.06,0
327,317.71,289.44,0
325,317.85,289.79,0
330,318.09,290.20,0
330,318.33,290.59,0
329,318.55,290.98,0
325,318.67,291.32,0
325,318.80,291.65,0
324,318.91,291.98,0
323,318.99,292.29,0
324,319.09,292.61,0
326,319.23,292.94,0
324,319.32,293.25,0
322,319.37,293.54,0
322,319.43,293.82,0
320,319.44,294.08,0
320,319.45,294.34,0
320,319.46,294.60,0
319,319.45,294.84,0
319,319.44,295.09,0
319,319.43,295.32,0
318,319.41,295.55,0
321,319.44,295.81,0
317,319.39,296.02,0
316,319.32,296.22,0
316,319.25,296.42,0
315,319.17,296.60,0
315,319.09,296.79,0
314,318.98,296.96,0
313,318.86,297.12,0
312,318.73,297.27,0
313,318.61,297.42,0
311,318.46,297.56,0
311,318.31,297.69,0
311,318.16,297.83,0
313,318.06,297.98,0
314,317.98,298.14,0
312,317.86,298.28,0
313,317.76,298.42,0
317,317.75,298.61,0
314,317.67,298.76,0
311,317.54,298.89,0
310,317.39,299.00,0
309,317.22,299.10,0
308,317.04,299.19,0
309,316.88,299.29,0
309,316.72,299.38,0
309,316.56,299.48,0
309,316.41,299.57,0
307,316.22,299.65,0
306,316.02,299.71,0
305,315.80,299.76,0
307,315.62,299.84,0
305,315.41,299.89,0
305,315.20,299.94,0
304,314.98,299.98,0
305,314.78,300.03,0
303,314.54,300.06,0
303,314.31,300.09,0
302,314.07,300.11,0
303,313.85,300.14,0
303,313.63,300.17,0
301,313.38,300.17,0
301,313.13,300.18,0
301,312.89,300.19,0
302,312.67,300.21,0
301,312.43,300.22,0
299,312.17,300.20,0
301,311.94,300.21,0
300,311.70,300.21,0
299,311.45,300.20,0
301,311.24,300.21,0
297,310.96,300.17,0
297,310.68,300.14,0
298,310.42,300.12,0
297,310.15,300.09,0
295,309.85,300.04,0
295,309.55,299.99,0
294,309.24,299.93,0
294,308.94,299.87,0
295,308.66,299.82,0
294,308.37,299.76,0
293,308.06,299.70,0
294,307.78,299.64,0
294,307.50,299.58,0
295,307.25,299.54,0
293,306.97,299.47,0
292,306.67,299.40,0
296,306.45,299.36,0
295,306.23,299.32,0
293,305.96,299.26,0
291,305.66,299.17,0
292,305.39,299.10,0
290,305.08,299.01,0
292,304.82,298.94,0
289,304.50,298.84,0
289,304.19,298.74,0
292,303.95,298.67,0
289,303.65,298.58,0
287,303.32,298.46,0
287,302.99,298.35,0
288,302.69,298.24,0
287,302.38,298.13,0
288,302.09,298.03,0
285,301.75,297.90,0
285,301.41,297.77,0
285,301.08,297.64,0
285,300.76,297.52,0
284,300.43,297.38,0
284,300.10,297.25,0
283,299.76,297.11,0
283,299.42,296.96,0
283,299.09,296.82,0
282,298.75,296.68,0
282,298.42,296.53,0
281,298.07,296.37,0
280,297.71,296.21,0
280,297.35,296.05,0
279,296.99,295.88,0
279,296.63,295.71,0
280,296.29,295.55,0
280,295.97,295.40,0
279,295.63,295.23,0
277,295.26,295.05,0
277,294.89,294.87,1
277,294.53,294.69,1
277,294.18,294.51,1
276,293.82,294.33,1
275,293.44,294.14,1
276,293.09,293.95,1
275,292.73,293.76,1
275,292.38,293.58,1
275,292.03,293.39,1
273,291.65,293.19,1
273,291.28,292.99,1
273,290.91,292.79,1
274,290.57,292.60,1
273,290.22,292.40,1
272,289.86,292.20,1
272,289.50,292.00,1
273,289.17,291.81,1
272,288.83,291.61,1
271,288.47,291.40,1
271,288.12,291.20,1
271,287.78,291.00,1
270,287.42,290.79,1
270,287.07,290.58,1
268,286.69,290.35,1
269,286.34,290.14,1
269,285.99,289.93,1
269,285.65,289.72,1
267,285.28,289.49,1
268,284.93,289.28,1
267,284.57,289.05,1
267,284.22,288.83,1
266,283.86,288.60,1
266,283.50,288.38,1
265,283.13,288.14,1
267,282.81,287.93,1
265,282.45,287.70,1
263,282.06,287.46,1
264,281.70,287.22,1
263,281.33,286.98,1
263,280.96,286.74,1
263,280.60,286.50,1
261,280.21,286.25,1
261,279.83,286.00,1
263,279.49,285.77,1
263,279.16,285.54,1
261,278.80,285.29,1
261,278.44,285.05,1
264,278.15,284.84,1
259,277.77,284.58,1
259,277.39,284.32,1
258,277.01,284.06,1
259,276.65,283.81,1
258,276.27,283.55,1
257,275.89,283.29,1
257,275.51,283.02,1
256,275.12,282.75,1
257,274.76,282.50,1
256,274.38,282.23,1
257,274.03,281.98,1
255,273.65,281.71,1
256,273.30,281.45,1
256,272.95,281.20,1
255,272.60,280.94,1
254,272.22,280.67,1
254,271.86,280.40,1
253,271.48,280.13,1
255,271.15,279.87,1
253,270.79,279.61,1
252,270.41,279.33,1
252,270.05,279.06,1
252,269.68,278.79,1
251,269.31,278.51,1
250,268.92,278.22,1
250,268.55,277.94,1
249,268.16,277.65,1
249,267.77,277.36,1
249,267.40,277.08,1
249,267.03,276.80,1
249,266.67,276.52,1
249,266.31,276.25,1
249,265.97,275.97,1
248,265.61,275.69,1
247,265.24,275.41,1
248,264.89,275.13,1
247,264.53,274.85,1
246,264.16,274.56,1
245,263.78,274.27,1
246,263.42,273.99,1
245,263.06,273.70,1
245,262.70,273.41,1
245,262.34,273.12,1
242,261.93,272.81,1
244,261.58,272.53,1
244,261.22,272.24,1
244,260.88,271.96,1
243,260.52,271.67,1
242,260.15,271.37,1
242,259.79,271.08,1
243,259.45,270.80,1
241,259.08,270.50,1
243,258.76,270.22,1
241,258.41,269.93,1
244,258.12,269.67,1
240,257.76,269.38,1
241,257.42,269.09,1
240,257.07,268.80,1
239,256.71,268.50,1
239,256.36,268.21,1
238,255.99,267.91,1
239,255.65,267.62,1
238,255.30,267.32,1
237,254.93,267.02,1
237,254.57,266.72,1
237,254.22,266.42,1
237,253.88,266.13,1
238,253.56,265.84,1
236,253.21,265.55,1
235,252.84,265.24,1
235,252.49,264.94,1
237,252.18,264.66,1
234,251.81,264.35,1
233,251.44,264.04,1
233,251.07,263.73,1
233,250.71,263.42,1
234,250.37,263.13,1
232,250.01,262.82,1
233,249.67,262.52,1
233,249.33,262.22,1
233,249.01,261.93,1
232,248.67,261.63,1
233,248.35,261.34,1
231,248.01,261.04,1
231,247.67,260.74,1
231,247.33,260.44,1
230,246.99,260.14,1
229,246.63,259.83,1
229,246.27,259.52,1
230,245.95,259.22,1
231,245.65,258.94,1
229,245.32,258.64,1
229,244.99,258.35,1
229,244.67,258.05,1
229,244.36,257.76,1
229,244.05,257.47,1
227,243.71,257.17,1
228,243.39,256.88,1
227,243.07,256.58,1
229,242.78,256.30,1
228,242.49,256.02,1
226,242.16,255.72,1
226,241.84,255.42,1
227,241.54,255.14,1
226,241.23,254.85,1
225,240.90,254.55,1
223,240.55,254.23,1
226,240.26,253.95,1
225,239.95,253.66,1
223,239.61,253.36,1
225,239.32,253.07,1
223,238.99,252.77,1
223,238.67,252.47,1
224,238.38,252.19,1
225,238.11,251.92,1
223,237.81,251.63,1
222,237.49,251.33,1
222,237.18,251.04,1
221,236.86,250.74,1
221,236.54,250.44,1
221,236.23,250.15,1
220,235.91,249.84,1
220,235.59,249.55,1
219,235.26,249.24,1
220,234.95,248.95,1
220,234.65,248.66,1
221,234.38,248.38,1
220,234.09,248.10,1
219,233.79,247.81,1
219,233.49,247.52,1
219,233.20,247.23,1
219,232.92,246.95,1
217,232.60,246.65,1
217,232.29,246.36,1
217,231.98,246.06,1
217,231.68,245.77,1
218,231.41,245.49,1
216,231.10,245.20,1
216,230.80,244.91,1
215,230.48,244.61,1
216,230.19,244.32,1
215,229.89,244.03,1
217,229.63,243.76,1
215,229.34,243.47,1
215,229.05,243.19,1
214,228.75,242.89,1
216,228.50,242.62,1
215,228.23,242.35,1
217,228.00,242.10,1
213,227.70,241.80,1
215,227.45,241.54,1
214,227.18,241.26,1
212,226.88,240.97,1
213,226.60,240.69,1
213,226.33,240.41,1
212,226.04,240.13,1
211,225.74,239.84,1
212,225.46,239.56,1
212,225.20,239.28,1
210,224.89,238.99,1
211,224.61,238.71,1
209,224.30,238.41,1
209,224.00,238.12,1
209,223.70,237.83,1
209,223.40,237.54,1
209,223.11,237.25,1
209,222.83,236.97,1
209,222.55,236.69,1
209,222.28,236.41,1
211,222.06,236.16,1
209,221.80,235.89,1
210,221.56,235.63,1
212,221.37,235.39,1
211,221.16,235.15,1
211,220.96,234.91,1
209,220.72,234.65,1
210,220.51,234.40,1
212,220.34,234.18,1
215,220.23,233.99,1
210,220.02,233.75,1
208,219.78,233.49,1
210,219.59,233.25,1
210,219.40,233.02,1
209,219.19,232.78,1
208,218.96,232.53,1
208,218.75,232.29,1
213,218.63,232.10,1
212,218.50,231.89,1
209,218.31,231.67,1
207,218.08,231.42,1
209,217.90,231.19,1
208,217.70,230.96,1
209,217.53,230.74,1
208,217.34,230.52,1
207,217.13,230.28,1
207,216.93,230.05,1
206,216.71,229.81,1
207,216.52,229.58,1
207,216.32,229.35,1
207,216.14,229.13,1
209,216.00,228.93,1
209,215.86,228.73,1
209,215.72,228.53,1
207,215.54,228.32,1
207,215.37,228.10,1
207,215.21,227.89,1
209,215.08,227.70,1
210,214.98,227.53,1
207,214.82,227.32,1
206,214.64,227.11,1
208,214.51,226.92,1
209,214.40,226.74,1
207,214.25,226.54,1
208,214.13,226.36,1
206,213.97,226.15,1
207,213.83,225.96,1
207,213.69,225.77,1
206,213.54,225.57,1
207,213.41,225.39,1
205,213.24,225.18,1
205,213.07,224.98,1
205,212.91,224.78,1
203,212.71,224.56,1
203,212.52,224.35,1
203,212.33,224.13,1
204,212.16,223.93,1
203,211.98,223.72,1
205,211.84,223.54,1
203,211.66,223.33,1
204,211.51,223.14,1
203,211.34,222.94,1
205,211.21,222.76,1
204,211.07,222.57,1
205,210.95,222.39,1
203,210.79,222.20,1
203,210.63,222.01,1
201,210.44,221.80,1
201,210.25,221.59,1
203,210.11,221.40,1
203,209.96,221.22,1
201,209.78,221.02,1
200,209.59,220.81,1
200,209.40,220.60,1
200,209.21,220.39,1
200,209.02,220.19,1
199,208.82,219.98,1
198,208.61,219.76,1
198,208.40,219.54,1
200,208.23,219.35,1
199,208.04,219.14,1
199,207.86,218.94,1
197,207.64,218.72,1
197,207.43,218.50,1
199,207.26,218.31,1
197,207.06,218.10,1
197,206.86,217.88,1
197,206.66,217.68,1
197,206.47,217.47,1
195,206.24,217.24,1
196,206.03,217.03,1
195,205.81,216.81,1
194,205.58,216.58,1
194,205.34,216.36,1
195,205.14,216.14,1
194,204.91,215.92,1
193,204.68,215.69,1
193,204.44,215.47,1
193,204.21,215.24,1
193,203.99,215.02,1
193,203.77,214.80,1
194,203.57,214.59,1
194,203.38,214.39,1
193,203.18,214.17,1
193,202.97,213.96,1
192,202.75,213.74,1
193,202.56,213.53,1
195,202.41,213.35,1
193,202.22,213.14,1
192,202.01,212.93,1
191,201.79,212.71,1
191,201.58,212.50,1
190,201.35,212.27,1
191,201.14,212.06,1
189,200.90,211.83,1
191,200.70,211.62,1
189,200.46,211.39,1
189,200.24,211.17,1
189,200.01,210.95,1
189,199.79,210.73,1
189,199.57,210.51,1
190,199.38,210.31,1
188,199.16,210.08,1
189,198.95,209.87,1
192,198.81,209.69,1
192,198.68,209.52,1
190,198.50,209.32,1
189,198.31,209.12,1
192,198.19,208.95,1
189,198.00,208.75,1
192,197.88,208.58,1
192,197.77,208.41,1
191,197.63,208.24,1
188,197.44,208.04,1
189,197.27,207.85,1
190,197.12,207.67,1
191,197.00,207.50,1
189,196.84,207.32,1
188,196.66,207.12,1
189,196.51,206.94,1
189,196.36,206.76,1
188,196.19,206.58,1
187,196.01,206.38,1
187,195.83,206.19,1
186,195.63,205.98,1
188,195.48,205.80,1
186,195.29,205.61,1
187,195.12,205.42,1
186,194.94,205.23,1
185,194.74,205.02,1
185,194.55,204.82,1
185,194.36,204.63,1
186,194.19,204.44,1
185,194.01,204.24,1
184,193.81,204.04,1
184,193.61,203.84,1
185,193.44,203.65,1
186,193.29,203.48,1
184,193.10,203.28,1
183,192.90,203.08,1
185,192.74,202.90,1
185,192.59,202.72,1
185,192.44,202.54,1
183,192.25,202.35,1
184,192.08,202.16,1
184,191.92,201.98,1
185,191.78,201.81,1
183,191.61,201.62,1
184,191.46,201.45,1
181,191.25,201.24,1
181,191.04,201.04,1
181,190.84,200.84,1
183,190.68,200.66,1
182,190.51,200.48,1
181,190.32,200.28,1
181,190.13,200.09,1
181,189.95,199.90,1
181,189.77,199.71,1
181,189.60,199.52,1
181,189.42,199.34,1
181,189.26,199.15,1
179,189.05,198.95,1
180,188.87,198.76,1
183,188.75,198.60,1
179,188.56,198.41,1
179,188.37,198.21,1
177,188.14,198.00,1
177,187.92,197.79,1
179,187.74,197.60,1
179,187.56,197.42,1
178,187.37,197.22,1
178,187.18,197.03,1
177,186.98,196.83,1
178,186.80,196.64,1
179,186.64,196.47,1
178,186.47,196.28,1
179,186.32,196.11,1
177,186.14,195.92,1
177,185.95,195.73,1
176,185.75,195.53,1
178,185.60,195.36,1
176,185.41,195.16,1
175,185.20,194.96,1
176,185.02,194.77,1
176,184.83,194.58,1
176,184.66,194.40,1
175,184.47,194.20,1
175,184.28,194.01,1
175,184.09,193.82,1
175,183.91,193.63,1
176,183.75,193.46,1
175,183.58,193.27,1
174,183.38,193.08,1
174,183.20,192.89,1
174,183.01,192.70,1
175,182.85,192.52,1
173,182.65,192.33,1
173,182.46,192.13,1
172,182.25,191.93,1
173,182.07,191.74,1
173,181.89,191.56,1
173,181.71,191.37,1
173,181.53,191.19,1
172,181.34,190.99,1
173,181.18,190.81,1
171,180.97,190.62,1
172,180.79,190.43,1
171,180.60,190.24,1
174,180.47,190.07,1
173,180.32,189.90,1
172,180.15,189.72,1
171,179.97,189.54,1
171,179.79,189.35,1
170,179.59,189.16,1
171,179.42,188.98,1
169,179.21,188.78,1
169,179.01,188.58,1
170,178.83,188.39,1
166,178.57,188.17,1
169,178.38,187.98,1
170,178.21,187.80,1
170,178.05,187.62,1
169,177.87,187.43,1
169,177.69,187.25,1
169,177.52,187.07,1
168,177.33,186.88,1
168,177.14,186.69,1
169,176.98,186.51,1
168,176.80,186.33,1
169,176.64,186.15,1
167,176.45,185.96,1
169,176.30,185.79,1
169,176.15,185.62,1
167,175.97,185.44,1
167,175.79,185.25,1
167,175.61,185.07,1
168,175.46,184.90,1
168,175.31,184.73,1
167,175.15,184.55,1
167,174.98,184.38,1
168,174.84,184.21,1
168,174.71,184.05,1
167,174.55,183.88,1
166,174.38,183.70,1
167,174.23,183.54,1
166,174.07,183.36,1
167,173.93,183.20,1
167,173.79,183.03,1
166,173.63,182.86,1
166,173.48,182.70,1
166,173.33,182.53,1
165,173.17,182.35,1
165,173.00,182.18,1
165,172.84,182.01,1
163,172.65,181.82,1
165,172.49,181.65,1
165,172.34,181.48,1
168,172.26,181.35,1
166,172.13,181.19,1
165,171.99,181.03,1
163,171.81,180.85,1
164,171.65,180.68,1
164,171.50,180.52,1
163,171.33,180.34,1
163,171.16,180.17,1
163,171.00,180.00,1
161,170.80,179.81,1
162,170.62,179.63,1
162,170.45,179.45,1
161,170.26,179.27,1
161,170.08,179.09,1
162,169.91,178.91,1
161,169.74,178.74,1
160,169.54,178.55,1
159,169.33,178.35,1
160,169.14,178.17,1
161,168.98,178.00,1
161,168.82,177.83,1
163,168.71,177.68,1
161,168.55,177.51,1
160,168.38,177.34,1
160,168.21,177.16,1
161,168.07,177.00,1
161,167.93,176.84,1
161,167.79,176.68,1
159,167.61,176.51,1
161,167.48,176.35,1
161,167.35,176.20,1
160,167.20,176.04,1
159,167.04,175.87,1
159,166.88,175.70,1
161,166.76,175.55,1
160,166.63,175.39,1
161,166.51,175.25,1
161,166.40,175.11,1
160,166.28,174.96,1
159,166.13,174.80,1
158,165.97,174.63,1
159,165.83,174.47,1
159,165.69,174.32,1
157,165.52,174.15,1
159,165.39,173.99,1
159,165.26,173.84,1
159,165.13,173.70,1
159,165.01,173.55,1
157,164.85,173.38,1
157,164.69,173.22,1
157,164.54,173.06,1
156,164.37,172.89,1
155,164.18,172.71,1
157,164.04,172.55,1
155,163.86,172.38,1
156,163.70,172.21,1
156,163.55,172.05,1
156,163.40,171.89,1
155,163.23,171.72,1
158,163.12,171.58,1
157,163.00,171.44,1
155,162.84,171.27,1
156,162.70,171.12,1
158,162.61,170.99,1
159,162.54,170.87,1
156,162.41,170.72,1
155,162.26,170.56,1
157,162.15,170.43,1
157,162.05,170.29,1
155,161.91,170.14,1
157,161.81,170.01,1
156,161.70,169.87,1
155,161.56,169.72,1
154,161.41,169.56,1
156,161.30,169.43,1
153,161.14,169.26,1
156,161.03,169.13,1
153,160.87,168.97,1
154,160.73,168.82,1
155,160.62,168.68,1
153,160.47,168.52,1
153,160.32,168.37,1
153,160.17,168.22,1
153,160.03,168.06,1
152,159.87,167.90,1
153,159.73,167.75,1
152,159.58,167.60,1
153,159.44,167.45,1
153,159.32,167.31,1
153,159.19,167.16,1
152,159.05,167.01,1
154,158.94,166.88,1
153,158.83,166.74,1
151,158.67,166.58,1
153,158.56,166.45,1
151,158.40,166.29,1
151,158.26,166.14,1
151,158.11,165.99,1
152,157.99,165.85,1
152,157.87,165.71,1
149,157.69,165.54,1
156,157.66,165.45,1
154,157.59,165.33,1
153,157.49,165.21,1
151,157.36,165.07,1
150,157.22,164.92,1
153,157.13,164.80,1
153,157.05,164.68,1
153,156.97,164.56,1
153,156.89,164.45,1
151,156.77,164.31,1
153,156.70,164.20,1
150,156.56,164.06,1
150,156.43,163.92,1
151,156.32,163.79,1
151,156.22,163.66,1
149,156.07,163.51,1
151,155.97,163.39,1
151,155.87,163.27,1
151,155.77,163.14,1
150,155.66,163.01,1
153,155.60,162.91,1
153,155.55,162.81,1
153,155.50,162.71,1
152,155.43,162.61,1
152,155.36,162.50,1
152,155.30,162.40,1
152,155.23,162.29,1
152,155.16,162.19,1
154,155.14,162.11,1
153,155.10,162.02,1
151,155.02,161.91,1
151,154.94,161.80,1
151,154.86,161.69,1
151,154.78,161.58,1
150,154.69,161.47,1
152,154.63,161.37,1
150,154.54,161.26,1
151,154.47,161.16,1
151,154.40,161.05,1
149,154.29,160.93,1
151,154.22,160.83,1
150,154.14,160.73,1
152,154.10,160.64,1
152,154.06,160.55,1
151,153.99,160.46,1
150,153.91,160.35,1
149,153.82,160.24,1
149,153.72,160.13,1
152,153.69,160.04,1
149,153.59,159.93,1
149,153.50,159.82,1
150,153.43,159.73,1
148,153.32,159.61,1
149,153.23,159.50,1
149,153.15,159.40,1
147,153.03,159.27,1
148,152.93,159.16,1
147,152.81,159.04,1
153,152.81,158.98,1
147,152.70,158.86,1
150,152.64,158.77,1
149,152.57,158.67,1
151,152.54,158.60,1
151,152.51,158.52,1
145,152.36,158.39,1
149,152.29,158.29,1
147,152.18,158.18,1
149,152.12,158.09,1
147,152.02,157.98,1
149,151.96,157.89,1
149,151.90,157.80,1
148,151.82,157.70,1
148,151.74,157.60,1
149,151.69,157.52,1
148,151.62,157.42,1
148,151.54,157.33,1
147,151.45,157.22,1
150,151.42,157.15,1
148,151.35,157.06,1
147,151.27,156.96,1
146,151.16,156.85,1
147,151.08,156.75,1
149,151.04,156.67,1
147,150.96,156.58,1
147,150.88,156.48,1
146,150.78,156.38,1
145,150.66,156.26,1
147,150.59,156.17,1
149,150.56,156.10,1
146,150.47,156.00,1
147,150.40,155.91,1
147,150.33,155.82,1
151,150.34,155.77,1
156,150.46,155.77,1
154,150.53,155.75,1
149,150.50,155.69,1
150,150.49,155.63,1
157,150.62,155.64,1
159,150.79,155.68,1
156,150.89,155.68,1
155,150.97,155.67,1
153,151.01,155.65,1
152,151.03,155.61,1
157,151.15,155.62,1
151,151.15,155.58,1
153,151.19,155.55,1
152,151.20,155.52,1
153,151.24,155.49,1
155,151.31,155.49,1
159,151.47,155.52,1
154,151.52,155.51,1
152,151.53,155.47,1
152,151.54,155.44,1
154,151.59,155.42,1
156,151.67,155.43,1
154,151.72,155.41,1
154,151.77,155.40,1
152,151.77,155.37,1
153,151.80,155.34,1
154,151.84,155.33,1
157,151.94,155.35,1
154,151.98,155.33,1
153,152.00,155.31,1
155,152.06,155.31,1
155,152.12,155.30,1
153,152.14,155.28,1
156,152.22,155.29,1
156,152.29,155.29,1
157,152.39,155.31,1
158,152.50,155.34,1
155,152.55,155.33,1
156,152.62,155.34,1
156,152.69,155.35,1
156,152.75,155.35,1
155,152.80,155.35,1
156,152.86,155.36,1
153,152.86,155.33,1
156,152.93,155.34,1
157,153.01,155.36,1
158,153.11,155.38,1
158,153.21,155.41,1
157,153.28,155.43,1
157,153.36,155.44,1
156,153.41,155.45,1
157,153.48,155.46,1
155,153.51,155.46,1
156,153.56,155.46,1
154,153.57,155.45,1
153,153.56,155.42,1
155,153.59,155.42,1
155,153.62,155.42,1
155,153.64,155.41,1
153,153.63,155.39,1
153,153.62,155.36,1
154,153.63,155.35,1
153,153.61,155.33,1
154,153.62,155.31,1
153,153.61,155.29,1
156,153.66,155.30,1
153,153.64,155.27,1
155,153.67,155.27,1
153,153.66,155.25,1
153,153.64,155.23,1
153,153.63,155.20,1
153,153.62,155.18,1
153,153.61,155.16,1
154,153.61,155.15,1
153,153.60,155.13,1
152,153.57,155.10,1
153,153.56,155.07,1
156,153.61,155.08,1
152,153.57,155.05,1
151,153.52,155.01,1
157,153.59,155.03,1
153,153.58,155.01,1
153,153.57,154.99,1
153,153.56,154.97,1
155,153.59,154.97,1
153,153.58,154.95,1
152,153.54,154.92,1
151,153.49,154.88,1
151,153.44,154.85,1
151,153.39,154.81,1
153,153.39,154.79,1
153,153.38,154.77,1
151,153.33,154.73,1
153,153.32,154.72,1
151,153.28,154.68,1
153,153.27,154.66,1
155,153.31,154.67,1
153,153.30,154.65,1
155,153.33,154.65,1
157,153.41,154.68,1
153,153.40,154.66,1
152,153.37,154.63,1
153,153.36,154.62,1
155,153.40,154.62,1
159,153.51,154.66,1
157,153.58,154.69,1
153,153.57,154.67,1
157,153.64,154.69,1
157,153.70,154.72,1
158,153.79,154.75,1
155,153.81,154.75,1
157,153.88,154.77,1
161,154.02,154.84,1
157,154.08,154.86,1
157,154.14,154.88,1
156,154.17,154.89,1
157,154.23,154.91,1
157,154.29,154.93,1
156,154.32,154.94,1
159,154.41,154.98,1
155,154.43,154.98,1
156,154.46,154.99,1
155,154.47,154.99,1
156,154.50,155.00,1
155,154.51,155.00,1
155,154.52,155.00,1
154,154.51,154.99,1
155,154.52,154.99,1
155,154.53,154.99,1
157,154.58,155.01,1
155,154.59,155.01,1
154,154.57,155.00,1
153,154.54,154.98,1
155,154.55,154.98,1
154,154.54,154.97,1
155,154.55,154.97,1
154,154.54,154.97,1
154,154.53,154.96,1
159,154.62,155.00,1
155,154.63,155.00,1
156,154.65,155.01,1
155,154.66,155.01,1
154,154.65,155.00,1
157,154.69,155.02,1
157,154.74,155.04,1
154,154.73,155.03,1
155,154.73,155.03,1
153,154.70,155.00,1
156,154.72,155.01,1
156,154.75,155.02,1
155,154.75,155.02,1
153,154.72,155.00,1
157,154.76,155.02,1
153,154.73,155.00,1
153,154.69,154.98,1
155,154.70,154.98,1
156,154.73,154.99,1
154,154.71,154.98,1
155,154.72,154.98,1
162,154.86,155.05,1
155,154.87,155.05,1
157,154.91,155.07,1
155,154.91,155.07,1
159,154.99,155.11,2
155,154.99,155.11,2
155,154.99,155.11,3
154,154.97,155.10,3
157,155.01,155.12,4
153,154.97,155.10,4
155,154.97,155.10,5
157,155.01,155.11,5
155,155.01,155.11,6
156,155.03,155.12,6
157,155.07,155.14,7
155,155.07,155.14,7
155,155.07,155.14,8
156,155.09,155.15,8
155,155.09,155.15,9
157,155.12,155.16,9
156,155.14,155.17,10
161,155.26,155.23,10
159,155.33,155.27,11
158,155.39,155.30,11
159,155.46,155.33,12
168,155.71,155.46,12
164,155.88,155.54,12
163,156.02,155.62,12
164,156.18,155.70,12
160,156.25,155.75,12
163,156.39,155.82,12
160,156.46,155.86,12
160,156.53,155.90,12
164,156.68,155.98,12
169,156.93,156.11,12
173,157.25,156.28,12
168,157.46,156.40,12
165,157.62,156.49,12
169,157.84,156.61,12
175,158.19,156.79,12
174,158.50,156.97,12
171,158.75,157.11,12
168,158.94,157.22,12
172,159.20,157.36,12
170,159.41,157.49,12
173,159.69,157.64,12
172,159.93,157.79,12
172,160.17,157.93,12
175,160.47,158.10,12
175,160.76,158.27,12
172,160.99,158.41,12
171,161.19,158.53,12
175,161.46,158.70,12
175,161.73,158.86,12
173,161.96,159.00,12
174,162.20,159.15,12
175,162.46,159.31,12
178,162.77,159.50,12
188,163.27,159.78,12
179,163.59,159.98,12
173,163.77,160.11,12
177,164.04,160.27,12
191,164.58,160.58,12
191,165.11,160.89,12
192,165.64,161.20,12
186,166.05,161.44,12
191,166.55,161.74,12
193,167.08,162.05,12
189,167.52,162.32,12
190,167.97,162.60,12
191,168.43,162.88,12
187,168.80,163.12,12
198,169.38,163.47,12
203,170.06,163.87,12
191,170.47,164.14,12
199,171.05,164.49,12
208,171.78,164.92,12
212,172.59,165.39,12
205,173.24,165.79,12
197,173.71,166.10,12
199,174.22,166.43,12
197,174.67,166.74,12
199,175.16,167.06,12
199,175.64,167.38,12
203,176.18,167.74,12
200,176.66,168.06,12
199,177.11,168.37,12
198,177.53,168.66,12
196,177.89,168.94,12
207,178.48,169.32,12
206,179.03,169.68,12
201,179.47,170.00,12
203,179.94,170.33,12
205,180.44,170.67,12
206,180.95,171.03,12
201,181.35,171.33,12
200,181.72,171.61,12
200,182.09,171.90,12
201,182.47,172.19,12
201,182.84,172.48,12
200,183.18,172.75,12
202,183.56,173.04,12
207,184.03,173.38,12
210,184.55,173.75,12
209,185.04,174.10,12
204,185.41,174.40,12
213,185.97,174.79,12
217,186.59,175.21,12
216,187.18,175.62,12
209,187.61,175.95,12
216,188.18,176.35,12
214,188.70,176.73,12
210,189.12,177.06,12
217,189.68,177.46,12
215,190.19,177.84,12
213,190.64,178.19,12
220,191.23,178.61,12
218,191.76,179.00,12
217,192.27,179.38,12
218,192.78,179.77,12
220,193.33,180.17,12
216,193.78,180.53,12
214,194.19,180.86,12
227,194.84,181.32,12
224,195.43,181.75,12
217,195.86,182.10,12
218,196.30,182.46,12
222,196.81,182.86,12
219,197.26,183.22,12
216,197.63,183.55,12
215,197.98,183.86,12
219,198.40,184.21,12
219,198.81,184.56,12
220,199.24,184.91,12
217,199.59,185.23,12
222,200.04,185.60,12
218,200.40,185.93,12
216,200.71,186.23,12
217,201.04,186.54,12
219,201.40,186.86,12
217,201.71,187.16,12
232,202.31,187.61,12
226,202.79,187.99,12
219,203.11,188.30,12
227,203.59,188.69,12
225,204.02,189.05,12
222,204.38,189.38,12
230,204.89,189.79,12
236,205.51,190.25,12
231,206.02,190.66,12
236,206.62,191.11,12
231,207.11,191.51,12
233,207.63,191.93,12
233,208.13,192.34,12
231,208.59,192.72,12
237,209.16,193.17,12
236,209.70,193.59,12
231,210.12,193.97,12
237,210.66,194.40,12
234,211.13,194.79,12
231,211.52,195.16,12
237,212.03,195.58,12
232,212.43,195.94,12
235,212.88,196.33,12
235,213.33,196.72,12
235,213.76,197.10,12
234,214.17,197.47,12
238,214.64,197.87,12
240,215.15,198.30,12
234,215.53,198.65,12
235,215.92,199.02,12
233,216.26,199.36,12
236,216.65,199.72,12
239,217.10,200.11,12
240,217.56,200.51,12
234,217.89,200.85,12
237,218.27,201.21,12
241,218.72,201.61,12
240,219.15,201.99,12
237,219.51,202.34,12
239,219.90,202.71,12
241,220.32,203.09,12
238,220.67,203.44,12
239,221.04,203.80,12
239,221.40,204.15,12
246,221.89,204.57,12
246,222.37,204.98,12
243,222.78,205.36,12
242,223.17,205.73,12
253,223.76,206.20,12
254,224.37,206.68,12
253,224.94,207.14,12
243,225.30,207.50,12
248,225.76,207.91,12
246,226.16,208.29,12
245,226.54,208.65,12
245,226.91,209.02,12
251,227.39,209.44,12
249,227.82,209.83,12
246,228.19,210.19,12
243,228.48,210.52,12
246,228.83,210.88,12
247,229.20,211.24,12
246,229.53,211.59,12
245,229.84,211.92,12
245,230.14,212.25,12
245,230.44,212.58,12
248,230.79,212.93,12
246,231.10,213.26,12
244,231.35,213.57,12
243,231.59,213.86,12
246,231.88,214.19,12
248,232.20,214.52,12
245,232.45,214.83,12
244,232.69,215.12,12
246,232.95,215.43,12
251,233.31,215.79,12
248,233.61,216.11,12
245,233.83,216.40,12
246,234.08,216.69,12
244,234.28,216.97,12
243,234.45,217.23,12
244,234.64,217.49,12
243,234.81,217.75,12
246,235.03,218.03,12
244,235.21,218.29,12
246,235.43,218.57,12
243,235.58,218.81,12
244,235.75,219.06,12
244,235.91,219.31,12
245,236.09,219.57,12
244,236.25,219.81,12
242,236.37,220.04,12
242,236.48,220.26,12
242,236.59,220.47,12
241,236.68,220.68,12
241,236.77,220.88,12
239,236.81,221.06,12
239,236.85,221.24,12
239,236.90,221.42,12
238,236.92,221.59,12
237,236.92,221.74,12
237,236.92,221.89,12
238,236.94,222.05,12
236,236.92,222.19,12
237,236.93,222.34,12
240,236.99,222.52,12
236,236.97,222.65,12
237,236.97,222.80,12
235,236.93,222.92,12
238,236.95,223.07,12
236,236.93,223.20,12
236,236.91,223.33,12
235,236.87,223.44,12
236,236.86,223.57,12
233,236.78,223.66,12
233,236.70,223.76,12
232,236.61,223.84,12
233,236.54,223.93,12
232,236.45,224.01,12
233,236.38,224.10,12
235,236.35,224.21,12
234,236.30,224.31,12
234,236.26,224.40,12
234,236.21,224.50,12
236,236.21,224.62,12
236,236.20,224.73,12
232,236.12,224.80,12
232,236.04,224.87,12
232,235.96,224.95,12
232,235.88,225.02,12
229,235.74,225.06,12
229,235.61,225.10,12
229,235.47,225.13,12
229,235.34,225.17,12
229,235.22,225.21,12
230,235.11,225.26,12
229,234.99,225.30,12
229,234.87,225.33,12
229,234.75,225.37,12
227,234.60,225.39,12
233,234.57,225.46,12
231,234.49,225.52,12
229,234.39,225.55,12
228,234.26,225.58,12
227,234.11,225.59,12
226,233.95,225.60,12
226,233.79,225.60,12
225,233.62,225.59,12
225,233.44,225.59,12
225,233.27,225.58,12
224,233.09,225.57,12
226,232.95,225.57,12
224,232.77,225.55,12
224,232.59,225.54,12
224,232.42,225.52,12
224,232.25,225.51,12
223,232.07,225.48,12
223,231.89,225.46,12
224,231.73,225.44,12
224,231.57,225.43,12
224,231.42,225.42,12
221,231.21,225.37,12
220,230.99,225.32,12
220,230.77,225.26,12
219,230.53,225.20,12
221,230.34,225.16,12
219,230.12,225.10,12
220,229.91,225.05,12
220,229.72,225.00,12
220,229.52,224.95,12
218,229.29,224.88,12
219,229.09,224.82,12
218,228.86,224.75,12
216,228.61,224.66,12
216,228.35,224.58,12
216,228.11,224.49,12
217,227.89,224.42,12
217,227.67,224.34,12
216,227.43,224.26,12
215,227.19,224.17,12
215,226.94,224.07,12
214,226.68,223.97,12
214,226.43,223.87,12
214,226.18,223.77,12
215,225.96,223.69,12
213,225.70,223.58,12
212,225.42,223.46,12
211,225.14,223.34,12
211,224.85,223.22,12
212,224.60,223.10,12
210,224.30,222.97,12
210,224.02,222.84,12
212,223.78,222.73,12
211,223.52,222.62,12
210,223.25,222.49,12
209,222.97,222.36,12
210,222.71,222.23,12
209,222.43,222.10,12
211,222.20,221.99,12
208,221.92,221.85,13
208,221.64,221.71,13
208,221.37,221.57,13
207,221.08,221.43,13
207,220.80,221.28,13
206,220.50,221.13,13
206,220.21,220.98,13
207,219.95,220.84,13
208,219.71,220.71,13
206,219.44,220.56,13
205,219.15,220.41,13
203,218.82,220.23,13
205,218.55,220.08,13
204,218.26,219.92,13
203,217.95,219.75,13
204,217.67,219.59,13
204,217.40,219.44,13
204,217.13,219.28,13
202,216.83,219.11,13
202,216.53,218.94,13
201,216.22,218.76,13
202,215.94,218.59,13
201,215.64,218.42,13
202,215.37,218.25,13
201,215.08,218.08,13
202,214.82,217.92,13
201,214.54,217.75,13
200,214.25,217.57,13
200,213.96,217.40,13
200,213.69,217.22,13
201,213.43,217.06,13
200,213.16,216.89,13
198,212.86,216.70,13
199,212.58,216.52,13
198,212.29,216.34,13
199,212.03,216.17,13
198,211.74,215.98,13
199,211.49,215.81,13
199,211.24,215.65,13
197,210.96,215.46,13
195,210.64,215.26,13
198,210.38,215.08,13
198,210.14,214.91,13
195,209.83,214.71,13
196,209.56,214.53,13
198,209.33,214.36,13
197,209.08,214.19,13
195,208.80,214.00,13
194,208.50,213.80,13
196,208.25,213.62,13
196,208.01,213.44,13
195,207.75,213.26,13
193,207.45,213.05,13
195,207.20,212.87,13
195,206.96,212.69,13
192,206.66,212.49,13
192,206.37,212.28,13
192,206.08,212.08,13
191,205.78,211.87,13
192,205.50,211.67,13
192,205.23,211.47,13
193,204.99,211.29,13
192,204.73,211.10,13
189,204.41,210.88,13
190,204.12,210.67,13
191,203.86,210.47,13
191,203.60,210.28,13
189,203.31,210.06,13
189,203.03,209.85,13
191,202.79,209.66,13
189,202.51,209.46,13
188,202.22,209.24,13
187,201.92,209.02,13
188,201.64,208.81,13
188,201.36,208.60,13
188,201.10,208.40,13
187,200.82,208.18,13
188,200.56,207.98,13
188,200.31,207.78,13
187,200.04,207.57,13
186,199.76,207.36,13
186,199.49,207.14,13
187,199.24,206.94,13
187,198.99,206.74,13
185,198.71,206.52,13
185,198.44,206.31,13
185,198.17,206.10,13
184,197.88,205.88,13
184,197.61,205.66,13
185,197.36,205.45,13
184,197.09,205.24,13
183,196.81,205.01,13
186,196.59,204.82,13
184,196.34,204.61,13
183,196.07,204.40,13
182,195.79,204.17,13
183,195.53,203.96,13
184,195.30,203.76,13
183,195.06,203.56,13
181,194.78,203.33,13
181,194.50,203.11,13
185,194.31,202.93,13
183,194.08,202.73,13
181,193.82,202.51,13
181,193.57,202.29,13
182,193.34,202.09,13
183,193.13,201.90,13
181,192.89,201.69,13
180,192.63,201.47,13
180,192.38,201.26,13
182,192.17,201.07,13
182,191.96,200.88,13
179,191.71,200.66,13
181,191.49,200.46,13
183,191.32,200.29,13
180,191.10,200.08,13
180,190.87,199.88,13
181,190.68,199.69,13
183,190.52,199.53,13
181,190.33,199.34,13
179,190.11,199.14,13
181,189.92,198.96,13
181,189.74,198.78,13
179,189.53,198.58,13
180,189.34,198.39,13
179,189.13,198.20,13
179,188.93,198.01,13
181,188.77,197.84,13
179,188.58,197.65,13
178,188.36,197.45,13
177,188.14,197.25,13
177,187.91,197.05,13
179,187.74,196.87,13
177,187.52,196.67,13
177,187.31,196.47,13
177,187.10,196.28,13
177,186.90,196.08,13
176,186.68,195.88,13
176,186.47,195.68,13
177,186.28,195.50,13
177,186.10,195.31,13
177,185.91,195.13,13
177,185.74,194.95,13
175,185.52,194.75,13
176,185.33,194.56,13
177,185.16,194.38,13
176,184.98,194.20,13
175,184.78,194.01,13
177,184.63,193.84,13
176,184.45,193.66,13
175,184.26,193.47,13
174,184.06,193.28,13
175,183.88,193.10,13
175,183.70,192.91,13
174,183.51,192.73,13
173,183.30,192.53,13
174,183.11,192.34,13
173,182.91,192.15,13
176,182.77,191.99,13
178,182.67,191.85,13
175,182.52,191.68,13
173,182.33,191.49,13
177,182.22,191.35,13
176,182.10,191.19,13
177,182.00,191.05,13
177,181.90,190.91,13
175,181.76,190.75,13
175,181.62,190.60,13
175,181.49,190.44,13
176,181.38,190.30,13
174,181.23,190.13,13
174,181.09,189.97,13
177,181.01,189.84,13
176,180.91,189.70,13
173,180.75,189.54,13
173,180.59,189.37,13
174,180.46,189.22,13
174,180.33,189.06,13
173,180.19,188.90,13
173,180.04,188.74,13
172,179.88,188.58,13
173,179.74,188.42,13
173,179.61,188.27,13
171,179.44,188.09,13
172,179.29,187.93,13
171,179.12,187.76,13
171,178.96,187.60,13
172,178.82,187.44,13
172,178.68,187.29,13
171,178.53,187.12,13
173,178.42,186.98,13
173,178.31,186.84,13
171,178.17,186.68,13
170,178.00,186.52,13
171,177.86,186.36,13
173,177.77,186.23,13
171,177.63,186.08,13
167,177.42,185.89,13
170,177.27,185.73,13
171,177.14,185.58,13
174,177.08,185.46,13
171,176.96,185.32,13
170,176.82,185.17,13
170,176.68,185.01,13
170,176.55,184.86,13
171,176.44,184.73,13
170,176.31,184.58,13
171,176.20,184.44,13
170,176.08,184.30,13
168,175.92,184.13,13
168,175.76,183.97,13
170,175.64,183.83,13
170,175.53,183.70,13
167,175.36,183.53,13
169,175.23,183.38,13
168,175.09,183.23,13
167,174.93,183.07,13
168,174.79,182.92,13
166,174.61,182.75,13
166,174.44,182.58,13
169,174.33,182.44,13
167,174.19,182.29,13
167,174.04,182.14,13
166,173.88,181.98,13
165,173.70,181.81,13
166,173.55,181.65,13
165,173.38,181.48,13
166,173.23,181.33,13
167,173.11,181.18,13
166,172.96,181.03,13
165,172.80,180.87,13
163,172.61,180.69,13
163,172.42,180.52,13
166,172.29,180.37,13
166,172.16,180.23,13
166,172.04,180.08,13
165,171.90,179.93,13
164,171.74,179.77,13
164,171.59,179.62,13
163,171.41,179.45,13
164,171.27,179.30,13
163,171.10,179.13,13
163,170.94,178.97,13
165,170.82,178.83,13
165,170.70,178.69,13
165,170.59,178.56,13
163,170.44,178.40,13
163,170.29,178.25,13
163,170.14,178.09,13
163,170.00,177.94,13
162,169.84,177.78,13
163,169.70,177.64,13
161,169.53,177.47,13
161,169.36,177.31,13
161,169.19,177.14,13
161,169.03,176.98,13
161,168.87,176.82,13
161,168.71,176.66,13
159,168.52,176.49,13
161,168.37,176.33,13
160,168.20,176.17,13
159,168.01,176.00,13
159,167.83,175.83,13
161,167.70,175.68,13
161,167.56,175.53,13
160,167.41,175.38,13
158,167.22,175.20,13
160,167.08,175.05,13
161,166.96,174.91,13
160,166.82,174.76,13
159,166.66,174.60,13
159,166.51,174.45,13
159,166.36,174.29,13
159,166.21,174.14,13
158,166.05,173.98,13
158,165.89,173.82,13
159,165.75,173.67,13
160,165.63,173.53,13
158,165.48,173.38,13
159,165.35,173.23,13
157,165.18,173.07,13
158,165.04,172.92,13
157,164.88,172.76,13
157,164.72,172.60,13
158,164.59,172.46,13
156,164.42,172.29,13
156,164.25,172.13,13
157,164.10,171.98,13
157,163.96,171.83,13
156,163.80,171.67,13
156,163.65,171.51,13
158,163.53,171.38,13
157,163.40,171.24,13
155,163.23,171.07,13
154,163.05,170.90,13
155,162.89,170.74,13
155,162.73,170.59,13
156,162.60,170.44,13
154,162.42,170.28,13
154,162.26,170.11,13
153,162.07,169.94,13
155,161.93,169.79,13
156,161.81,169.65,13
155,161.67,169.51,13
155,161.54,169.36,13
153,161.37,169.20,13
156,161.26,169.07,13
158,161.20,168.96,13
158,161.13,168.85,13
156,161.03,168.72,13
154,160.89,168.57,13
155,160.77,168.44,13
153,160.62,168.28,13
154,160.48,168.14,13
153,160.33,167.99,13
154,160.21,167.85,13
154,160.08,167.71,13
153,159.94,167.56,13
153,159.80,167.42,13
155,159.71,167.29,13
153,159.57,167.15,13
151,159.40,166.99,13
151,159.23,166.83,13
152,159.09,166.68,13
151,158.93,166.52,13
152,158.79,166.38,13
150,158.61,166.21,13
152,158.48,166.07,13
152,158.35,165.93,13
152,158.22,165.79,13
152,158.10,165.65,13
149,157.92,165.49,13
152,157.80,165.35,13
152,157.68,165.22,13
151,157.55,165.08,13
151,157.42,164.94,13
151,157.29,164.80,13
153,157.20,164.68,13
150,157.06,164.53,13
150,156.92,164.39,13
152,156.82,164.26,13
152,156.72,164.14,13
150,156.59,164.00,13
150,156.46,163.86,13
151,156.35,163.73,13
151,156.24,163.60,13
151,156.14,163.48,13
150,156.01,163.34,13
153,155.95,163.24,13
150,155.83,163.11,13
150,155.72,162.97,13
150,155.60,162.85,13
149,155.47,162.71,13
149,155.34,162.57,13
149,155.22,162.43,13
150,155.11,162.31,13
147,154.95,162.16,13
147,154.79,162.01,13
148,154.65,161.86,13
151,154.58,161.76,13
149,154.47,161.63,13
148,154.34,161.49,13
148,154.21,161.36,13
150,154.13,161.24,13
150,154.05,161.13,13
147,153.91,160.99,13
146,153.75,160.84,13
149,153.65,160.72,13
150,153.58,160.61,13
149,153.49,160.50,13
148,153.38,160.37,13
148,153.27,160.25,13
151,153.23,160.16,13
150,153.16,160.06,13
150,153.10,159.96,13
149,153.02,159.85,13
151,152.98,159.76,13
152,152.96,159.68,13
153,152.96,159.61,13
151,152.92,159.53,13
149,152.84,159.42,13
150,152.78,159.33,13
151,152.75,159.24,13
153,152.75,159.18,13
151,152.72,159.10,13
150,152.66,159.01,13
149,152.59,158.91,13
151,152.56,158.83,13
152,152.55,158.76,13
151,152.52,158.68,13
149,152.45,158.59,13
151,152.42,158.51,13
150,152.37,158.43,13
149,152.30,158.33,13
148,152.21,158.23,13
148,152.13,158.13,13
147,152.03,158.01,13
147,151.93,157.90,13
148,151.85,157.81,13
149,151.79,157.72,13
148,151.72,157.62,13
146,151.60,157.50,13
147,151.51,157.40,13
147,151.42,157.30,13
147,151.33,157.19,13
147,151.24,157.09,13
146,151.14,156.98,13
147,151.06,156.88,13
148,151.00,156.79,13
148,150.94,156.70,13
147,150.86,156.61,13
146,150.76,156.50,13
147,150.68,156.40,13
147,150.61,156.31,13
147,150.54,156.22,13
147,150.47,156.13,13
146,150.38,156.02,13
148,150.33,155.94,13
146,150.24,155.84,13
145,150.14,155.74,13
144,150.02,155.62,13
145,149.92,155.51,13
144,149.80,155.40,13
145,149.70,155.29,13
146,149.63,155.20,13
146,149.56,155.11,13
147,149.50,155.03,13
145,149.41,154.93,13
145,149.33,154.83,13
145,149.24,154.73,13
146,149.17,154.64,13
147,149.13,154.57,13
146,149.07,154.48,13
144,148.97,154.38,13
144,148.87,154.27,13
146,148.81,154.19,13
146,148.75,154.11,13
144,148.66,154.01,13
144,148.57,153.91,13
145,148.49,153.82,13
144,148.40,153.72,13
143,148.30,153.61,13
146,148.25,153.54,13
146,148.21,153.46,13
145,148.14,153.38,13
144,148.06,153.28,13
145,148.00,153.20,13
146,147.96,153.13,13
144,147.88,153.04,13
143,147.78,152.94,13
143,147.69,152.84,13
144,147.61,152.75,13
143,147.52,152.65,13
143,147.43,152.55,13
142,147.32,152.45,13
143,147.23,152.35,13
143,147.15,152.26,13
141,147.03,152.15,13
142,146.93,152.05,13
143,146.85,151.96,13
146,146.83,151.90,13
145,146.79,151.83,13
146,146.78,151.77,13
143,146.70,151.68,13
143,146.63,151.59,13
147,146.64,151.55,13
148,146.66,151.51,13
147,146.67,151.47,13
147,146.68,151.42,13
144,146.62,151.35,13
146,146.61,151.30,13
149,146.66,151.27,13
146,146.65,151.22,13
146,146.63,151.17,13
144,146.58,151.10,13
146,146.57,151.04,13
146,146.56,150.99,13
146,146.55,150.94,13
144,146.49,150.88,13
145,146.46,150.82,13
145,146.44,150.76,13
145,146.41,150.70,13
144,146.36,150.63,13
145,146.33,150.58,13
144,146.28,150.51,13
143,146.22,150.44,13
143,146.15,150.36,13
143,146.09,150.29,13
143,146.03,150.22,13
143,145.97,150.14,13
143,145.91,150.07,13
143,145.85,150.00,13
142,145.77,149.92,13
144,145.74,149.86,13
143,145.68,149.79,13
144,145.65,149.74,13
142,145.58,149.66,13
143,145.53,149.59,13
142,145.46,149.52,13
143,145.41,149.45,13
143,145.36,149.39,13
143,145.31,149.32,13
142,145.24,149.25,13
141,145.16,149.17,13
143,145.12,149.10,13
141,145.03,149.02,13
141,144.95,148.94,13
139,144.83,148.84,13
139,144.72,148.75,13
139,144.60,148.65,13
140,144.51,148.56,13
140,144.42,148.48,13
140,144.33,148.39,13
139,144.23,148.30,13
138,144.10,148.19,13
142,144.06,148.13,13
139,143.96,148.04,13
140,143.88,147.96,13
139,143.78,147.87,13
139,143.69,147.78,13
138,143.57,147.68,13
139,143.48,147.60,13
140,143.41,147.52,13
138,143.30,147.43,13
139,143.22,147.34,13
139,143.13,147.26,13
139,143.05,147.18,13
138,142.95,147.08,13
139,142.87,147.00,13
138,142.77,146.91,13
139,142.70,146.83,13
139,142.62,146.76,13
137,142.51,146.66,13
137,142.40,146.56,13
138,142.31,146.48,13
138,142.23,146.39,13
137,142.12,146.30,13
139,142.06,146.22,13
140,142.02,146.16,13
139,141.96,146.09,13
139,141.90,146.02,13
136,141.78,145.92,13
138,141.71,145.84,13
139,141.65,145.77,13
141,141.64,145.72,13
139,141.59,145.66,13
139,141.53,145.59,13
138,141.46,145.51,13
137,141.37,145.43,13
138,141.31,145.36,13
137,141.22,145.27,13
138,141.16,145.20,13
137,141.07,145.12,13
139,141.03,145.06,13
138,140.97,144.99,13
137,140.89,144.91,13
139,140.85,144.85,13
137,140.78,144.77,13
138,140.72,144.70,13
136,140.63,144.61,13
138,140.57,144.55,13
140,140.56,144.50,13
137,140.49,144.43,13
137,140.42,144.35,13
138,140.37,144.29,13
136,140.29,144.21,13
141,140.30,144.17,13
140,140.29,144.13,13
139,140.27,144.08,13
141,140.28,144.05,13
138,140.24,143.99,13
139,140.21,143.94,13
142,140.25,143.92,13
141,140.26,143.89,13
140,140.26,143.85,13
139,140.23,143.80,13
138,140.19,143.75,13
139,140.16,143.70,13
142,140.20,143.68,13
139,140.18,143.63,13
140,140.17,143.60,13
141,140.19,143.57,13
143,140.25,143.57,13
140,140.24,143.53,13
139,140.22,143.49,13
141,140.23,143.46,13
142,140.27,143.45,13
139,140.24,143.40,13
139,140.22,143.36,13
140,140.21,143.32,13
139,140.19,143.28,13
140,140.18,143.25,13
139,140.16,143.21,13
140,140.16,143.17,13
138,140.11,143.12,13
141,140.13,143.10,13
141,140.15,143.08,13
141,140.17,143.06,13
141,140.18,143.04,13
142,140.22,143.03,13
138,140.18,142.98,13
140,140.17,142.95,13
143,140.23,142.95,13
141,140.24,142.93,13
146,140.36,142.96,13
141,140.37,142.94,13
140,140.36,142.91,13
146,140.48,142.94,13
147,140.61,142.98,13
145,140.70,143.00,13
144,140.76,143.01,13
144,140.83,143.02,13
142,140.85,143.01,13
144,140.91,143.02,13
143,140.95,143.02,13
145,141.04,143.04,13
144,141.09,143.05,13
146,141.19,143.08,13
145,141.27,143.10,13
144,141.32,143.11,13
143,141.36,143.11,13
142,141.37,143.10,13
145,141.44,143.12,13
149,141.59,143.17,13
149,141.74,143.23,13
146,141.83,143.26,13
143,141.85,143.26,13
144,141.89,143.26,13
145,141.96,143.28,13
146,142.04,143.31,13
145,142.10,143.33,13
146,142.17,143.35,13
143,142.19,143.35,13
143,142.21,143.35,13
144,142.24,143.35,13
143,142.26,143.35,13
144,142.29,143.36,13
144,142.33,143.36,13
143,142.34,143.36,13
143,142.35,143.35,13
142,142.35,143.34,13
142,142.34,143.33,13
143,142.35,143.32,13
141,142.33,143.30,13
141,142.30,143.28,13
141,142.27,143.26,13
141,142.25,143.23,13
143,142.26,143.23,13
143,142.28,143.23,13
142,142.27,143.22,13
143,142.29,143.21,13
142,142.28,143.20,13
141,142.26,143.18,13
143,142.27,143.18,13
141,142.24,143.16,13
142,142.24,143.14,13
143,142.25,143.14,13
141,142.23,143.12,13
141,142.21,143.10,13
139,142.14,143.06,13
140,142.10,143.03,13
143,142.12,143.03,13
141,142.09,143.01,13
141,142.07,142.99,13
139,142.01,142.95,13
139,141.95,142.91,13
141,141.93,142.89,13
142,141.93,142.88,13
141,141.91,142.86,13
143,141.94,142.86,13
142,141.94,142.85,13
144,141.98,142.87,13
143,142.00,142.87,13
141,141.98,142.85,13
139,141.92,142.81,13
141,141.90,142.79,13
144,141.94,142.80,13
144,141.98,142.82,13
141,141.96,142.80,13
144,142.01,142.81,13
142,142.01,142.80,13
144,142.04,142.81,13
144,142.08,142.83,13
148,142.20,142.88,13
145,142.26,142.90,13
144,142.29,142.91,13
145,142.35,142.93,13
147,142.44,142.97,13
148,142.55,143.02,13
145,142.60,143.04,13
143,142.61,143.04,13
148,142.72,143.09,13
148,142.82,143.14,13
149,142.95,143.20,13
148,143.05,143.25,13
144,143.07,143.25,13
145,143.10,143.27,13
144,143.12,143.28,13
147,143.20,143.32,14
145,143.24,143.33,14
148,143.33,143.38,15
145,143.36,143.40,15
144,143.38,143.40,16
144,143.39,143.41,16
145,143.42,143.42,17
146,143.47,143.45,17
144,143.48,143.45,18
144,143.49,143.46,18
145,143.52,143.48,19
145,143.55,143.49,19
148,143.64,143.54,20
146,143.69,143.56,20
146,143.74,143.59,20
146,143.78,143.61,20
150,143.91,143.67,20
148,143.99,143.72,20
148,144.07,143.76,20
147,144.13,143.79,20
149,144.22,143.84,20
152,144.38,143.93,20
148,144.45,143.97,20
147,144.50,144.00,20
150,144.61,144.06,20
149,144.70,144.11,20
149,144.79,144.15,20
148,144.85,144.19,20
149,144.93,144.24,20
148,145.00,144.28,20
146,145.02,144.30,20
150,145.12,144.35,20
149,145.19,144.40,20
150,145.29,144.46,20
151,145.40,144.52,20
148,145.46,144.56,20
149,145.53,144.60,20
151,145.64,144.66,20
152,145.76,144.74,20
150,145.85,144.79,20
148,145.89,144.82,20
148,145.93,144.85,20
149,145.99,144.90,20
148,146.03,144.93,20
148,146.07,144.96,20
147,146.09,144.98,20
146,146.09,144.99,20
150,146.17,145.04,20
153,146.31,145.12,20
149,146.36,145.16,20
152,146.47,145.23,20
149,146.52,145.26,20
152,146.63,145.33,20
153,146.76,145.41,20
155,146.92,145.50,20
155,147.09,145.60,20
152,147.18,145.66,20
154,147.32,145.75,20
152,147.41,145.81,20
153,147.53,145.88,20
153,147.64,145.95,20
152,147.72,146.01,20
152,147.81,146.07,20
152,147.89,146.13,20
153,147.99,146.20,20
153,148.09,146.27,20
153,148.19,146.33,20
155,148.33,146.42,20
155,148.46,146.51,20
152,148.53,146.56,20
155,148.66,146.65,20
160,148.89,146.78,20
159,149.09,146.90,20
157,149.25,147.00,20
158,149.42,147.11,20
156,149.56,147.20,20
158,149.72,147.31,20
158,149.89,147.42,20
156,150.01,147.50,20
154,150.09,147.57,20
155,150.19,147.64,20
156,150.31,147.73,20
156,150.42,147.81,20
157,150.55,147.90,20
159,150.72,148.01,20
161,150.93,148.14,20
159,151.09,148.25,20
157,151.21,148.34,20
161,151.40,148.46,20
164,151.65,148.62,20
161,151.84,148.74,20
159,151.98,148.85,20
161,152.16,148.97,20
159,152.30,149.07,20
157,152.39,149.15,20
157,152.49,149.23,20
157,152.58,149.30,20
158,152.69,149.39,20
158,152.79,149.48,20
157,152.88,149.55,20
157,152.96,149.63,20
156,153.02,149.69,20
160,153.16,149.79,20
161,153.32,149.90,20
159,153.43,150.00,20
158,153.52,150.08,20
158,153.61,150.16,20
161,153.76,150.26,20
159,153.86,150.35,20
158,153.95,150.43,20
157,154.01,150.49,20
158,154.09,150.57,20
159,154.19,150.65,20
164,154.38,150.79,20
161,154.51,150.89,20
159,154.60,150.97,20
158,154.67,151.04,20
163,154.84,151.16,20
161,154.96,151.26,20
159,155.04,151.33,20
162,155.18,151.44,20
158,155.24,151.51,20
163,155.39,151.62,20
160,155.49,151.71,20
159,155.56,151.78,20
163,155.70,151.89,20
162,155.83,151.99,20
159,155.89,152.06,20
162,156.02,152.16,20
162,156.14,152.26,20
160,156.21,152.34,20
164,156.37,152.45,20
167,156.58,152.60,20
167,156.79,152.74,20
167,156.99,152.89,20
163,157.11,152.99,20
167,157.31,153.13,20
172,157.61,153.32,20
169,157.83,153.47,20
169,158.06,153.63,20
169,158.28,153.78,20
167,158.45,153.91,20
167,158.62,154.04,20
169,158.83,154.19,20
170,159.05,154.35,20
169,159.25,154.50,20
167,159.41,154.62,20
166,159.54,154.74,20
167,159.69,154.86,20
169,159.87,155.00,20
175,160.18,155.20,20
168,160.33,155.33,20
168,160.49,155.46,20
170,160.68,155.60,20
175,160.96,155.80,20
172,161.18,155.96,20
170,161.36,156.10,20
174,161.61,156.28,20
177,161.92,156.48,20
170,162.08,156.62,20
172,162.28,156.77,20
179,162.61,157.00,20
179,162.94,157.22,20
173,163.14,157.37,20
172,163.32,157.52,20
179,163.63,157.73,20
179,163.94,157.95,20
179,164.24,158.16,20
175,164.46,158.33,20
174,164.65,158.48,20
182,165.00,158.72,20
182,165.34,158.95,20
183,165.69,159.19,20
182,166.02,159.42,20
182,166.33,159.65,20
187,166.75,159.92,20
181,167.03,160.13,20
181,167.31,160.34,20
182,167.61,160.56,20
186,167.97,160.81,20
182,168.25,161.02,20
187,168.63,161.28,20
193,169.12,161.60,20
191,169.55,161.89,20
187,169.90,162.14,20
191,170.33,162.43,20
199,170.90,162.80,20
199,171.46,163.16,20
189,171.81,163.42,20
195,172.28,163.73,20
203,172.89,164.13,20
195,173.33,164.44,20
192,173.71,164.71,20
198,174.19,165.04,20
202,174.75,165.41,20
203,175.31,165.79,20
198,175.77,166.11,20
197,176.19,166.42,20
199,176.65,166.75,20
199,177.09,167.07,20
201,177.57,167.41,20
198,177.98,167.71,20
197,178.36,168.01,20
202,178.83,168.35,20
200,179.26,168.66,20
203,179.73,169.01,20
200,180.14,169.32,20
198,180.50,169.60,20
202,180.93,169.93,20
206,181.43,170.29,20
202,181.84,170.61,20
199,182.18,170.89,20
201,182.56,171.19,20
197,182.85,171.45,20
199,183.17,171.72,20
197,183.45,171.98,20
205,183.88,172.31,20
198,184.16,172.56,20
200,184.48,172.84,20
202,184.83,173.13,20
200,185.13,173.40,20
201,185.45,173.67,20
197,185.68,173.91,20
201,185.99,174.18,20
203,186.33,174.47,20
204,186.68,174.76,20
205,187.05,175.06,20
207,187.44,175.38,20
200,187.70,175.63,20
200,187.94,175.87,20
201,188.20,176.13,20
201,188.46,176.37,20
207,188.83,176.68,20
216,189.37,177.07,20
204,189.67,177.34,20
212,190.11,177.69,20
218,190.67,178.09,20
218,191.22,178.49,20
209,191.57,178.80,20
209,191.92,179.10,20
216,192.40,179.47,20
209,192.73,179.76,20
211,193.10,180.08,20
217,193.58,180.44,20
210,193.91,180.74,20
211,194.25,181.04,20
215,194.66,181.38,20
221,195.19,181.78,20
219,195.67,182.15,20
212,195.99,182.45,20
221,196.49,182.83,20
222,197.00,183.23,20
217,197.40,183.56,20
222,197.90,183.95,20
216,198.26,184.27,20
231,198.91,184.74,20
233,199.59,185.22,20
223,200.06,185.60,20
227,200.60,186.01,20
236,201.31,186.51,20
239,202.06,187.04,20
229,202.60,187.46,20
238,203.31,187.96,20
238,204.00,188.46,20
233,204.58,188.91,20
239,205.27,189.41,20
240,205.97,189.91,20
233,206.51,190.34,20
237,207.12,190.81,20
239,207.75,191.29,20
235,208.30,191.73,20
242,208.97,192.23,20
241,209.61,192.72,20
238,210.18,193.17,20
251,211.00,193.75,20
253,211.84,194.34,20
242,212.44,194.82,20
255,213.29,195.42,20
255,214.13,196.02,20
260,215.04,196.66,20
255,215.84,197.24,20
250,216.53,197.77,20
248,217.16,198.27,20
251,217.83,198.80,20
254,218.56,199.35,20
255,219.28,199.91,20
252,219.94,200.43,20
259,220.72,201.01,20
260,221.51,201.60,20
257,222.22,202.16,20
256,222.89,202.70,20
254,223.51,203.21,20
254,224.12,203.72,20
255,224.74,204.23,20
253,225.31,204.72,20
258,225.96,205.25,20
262,226.68,205.82,20
267,227.49,206.43,20
262,228.18,206.99,20
256,228.73,207.48,20
257,229.30,207.97,20
255,229.81,208.44,20
256,230.34,208.92,20
258,230.89,209.41,20
262,231.51,209.93,20
257,232.02,210.40,20
254,232.46,210.84,20
257,232.95,211.30,20
256,233.41,211.75,20
255,233.85,212.18,20
257,234.31,212.63,20
256,234.74,213.06,20
262,235.29,213.55,20
266,235.90,214.08,20
256,236.30,214.50,20
261,236.80,214.96,20
265,237.36,215.46,20
263,237.87,215.94,20
259,238.30,216.37,20
260,238.73,216.80,20
257,239.10,217.21,20
257,239.45,217.60,20
258,239.83,218.01,20
259,240.21,218.42,20
256,240.52,218.79,20
258,240.87,219.19,20
255,241.16,219.54,20
255,241.43,219.90,20
255,241.70,220.25,20
255,241.97,220.60,20
254,242.21,220.93,20
253,242.43,221.25,20
253,242.64,221.57,20
253,242.85,221.88,20
255,243.09,222.21,20
255,243.33,222.54,20
252,243.50,222.84,20
255,243.73,223.16,20
253,243.92,223.46,20
252,244.08,223.74,20
253,244.26,224.03,20
252,244.41,224.31,20
251,244.54,224.58,20
251,244.67,224.85,20
250,244.78,225.10,20
249,244.86,225.34,20
249,244.95,225.57,20
248,245.01,225.80,20
247,245.05,226.01,20
249,245.13,226.24,20
247,245.16,226.45,20
247,245.20,226.65,20
247,245.24,226.86,20
246,245.25,227.05,20
245,245.25,227.23,20
245,245.24,227.40,20
244,245.22,227.57,20
244,245.19,227.73,20
244,245.17,227.90,20
246,245.18,228.08,20
247,245.22,228.27,20
242,245.16,228.40,20
245,245.15,228.57,20
248,245.21,228.77,20
246,245.23,228.94,20
243,245.18,229.08,20
244,245.16,229.23,20
241,245.08,229.35,20
242,245.01,229.47,20
242,244.95,229.60,20
243,244.91,229.73,20
241,244.84,229.84,20
241,244.76,229.96,20
241,244.68,230.07,20
240,244.59,230.16,20
240,244.50,230.26,20
239,244.39,230.35,20
238,244.26,230.43,20
239,244.16,230.51,20
239,244.05,230.60,20
238,243.93,230.67,20
237,243.79,230.74,20
237,243.66,230.80,20
238,243.54,230.87,20
238,243.43,230.94,20
235,243.26,230.98,20
235,243.10,231.02,20
235,242.94,231.06,20
236,242.80,231.11,20
234,242.62,231.14,20
234,242.45,231.17,20
233,242.26,231.19,20
235,242.12,231.23,20
232,241.91,231.23,20
233,241.74,231.25,20
231,241.52,231.25,20
233,241.35,231.27,20
233,241.18,231.28,20
233,241.02,231.30,20
232,240.84,231.31,20
235,240.72,231.34,20
234,240.59,231.37,20
232,240.42,231.38,20
231,240.23,231.37,20
231,240.04,231.37,20
231,239.86,231.37,20
230,239.67,231.35,20
230,239.47,231.34,20
231,239.30,231.34,20
228,239.08,231.30,20
227,238.83,231.26,20
228,238.62,231.23,20
227,238.39,231.18,20
228,238.18,231.15,20
228,237.97,231.12,20
226,237.73,231.07,20
225,237.48,231.01,20
226,237.25,230.96,20
223,236.97,230.88,20
225,236.73,230.82,20
225,236.49,230.76,20
225,236.26,230.70,20
224,236.02,230.64,20
224,235.78,230.57,20
223,235.52,230.50,20
222,235.25,230.41,20
222,234.99,230.33,20
222,234.73,230.24,20
221,234.45,230.15,20
221,234.18,230.06,20
222,233.94,229.98,20
222,233.70,229.90,20
220,233.43,229.80,20
221,233.18,229.71,20
220,232.91,229.61,20
220,232.66,229.52,20
221,232.42,229.43,20
219,232.15,229.33,20
219,231.89,229.23,20
219,231.63,229.12,20
219,231.38,229.02,20
218,231.11,228.91,20
217,230.83,228.79,20
218,230.57,228.68,20
218,230.32,228.58,20
217,230.06,228.46,20
216,229.77,228.34,20
217,229.52,228.22,20
218,229.29,228.12,20
217,229.04,228.01,20
215,228.76,227.88,20
215,228.49,227.75,20
215,228.22,227.62,20
216,227.97,227.51,20
214,227.69,227.37,20
214,227.42,227.24,20
215,227.17,227.12,21
214,226.91,226.99,21
214,226.65,226.86,21
214,226.40,226.73,21
212,226.11,226.58,21
212,225.83,226.43,21
212,225.55,226.29,21
215,225.34,226.18,21
212,225.07,226.04,21
211,224.79,225.88,21
211,224.52,225.74,21
211,224.24,225.59,21
210,223.96,225.43,21
210,223.68,225.28,21
210,223.41,225.13,21
212,223.18,224.99,21
211,222.94,224.85,21
210,222.68,224.71,21
209,222.40,224.55,21
210,222.16,224.40,21
208,221.87,224.24,21
207,221.57,224.07,21
207,221.28,223.90,21
210,221.06,223.76,21
210,220.84,223.62,21
207,220.56,223.45,21
207,220.29,223.29,21
207,220.02,223.13,21
207,219.76,222.96,21
207,219.51,222.81,21
205,219.22,222.63,21
207,218.97,222.47,21
206,218.71,222.31,21
203,218.40,222.11,21
205,218.13,221.94,21
203,217.83,221.75,21
204,217.55,221.58,21
204,217.28,221.40,21
205,217.03,221.24,21
204,216.77,221.06,21
204,216.52,220.89,21
202,216.23,220.70,21
203,215.96,220.53,21
203,215.70,220.35,21
201,215.41,220.16,21
202,215.14,219.98,21
203,214.90,219.81,21
203,214.66,219.64,21
201,214.39,219.45,21
200,214.10,219.26,21
199,213.80,219.05,21
199,213.50,218.85,21
198,213.19,218.65,21
198,212.89,218.44,21
199,212.61,218.24,21
201,212.38,218.07,21
200,212.13,217.89,21
198,211.85,217.69,21
197,211.55,217.49,21
196,211.24,217.27,21
197,210.96,217.07,21
196,210.66,216.86,21
196,210.36,216.65,21
198,210.12,216.46,21
196,209.83,216.26,21
196,209.56,216.06,21
194,209.25,215.83,21
195,208.96,215.63,21
196,208.70,215.43,21
194,208.41,215.22,21
193,208.10,214.99,21
196,207.86,214.80,21
192,207.54,214.58,21
194,207.27,214.37,21
193,206.98,214.16,21
193,206.70,213.94,21
193,206.43,213.74,21
192,206.14,213.52,21
196,205.94,213.34,21
194,205.70,213.15,21
192,205.43,212.94,21
192,205.16,212.73,21
192,204.89,212.52,21
192,204.64,212.32,21
192,204.38,212.11,21
190,204.10,211.89,21
191,203.83,211.68,21
189,203.54,211.46,21
190,203.27,211.24,21
191,203.02,211.04,21
189,202.74,210.82,21
191,202.51,210.62,21
190,202.26,210.41,21
190,202.01,210.21,21
190,201.77,210.01,21
192,201.58,209.83,21
191,201.36,209.64,21
188,201.10,209.42,21
188,200.83,209.21,21
190,200.62,209.02,21
189,200.39,208.82,21
188,200.14,208.61,21
187,199.88,208.39,21
187,199.62,208.18,21
188,199.39,207.98,21
187,199.14,207.77,21
186,198.88,207.55,21
187,198.64,207.34,21
185,198.36,207.12,21
187,198.14,206.92,21
186,197.89,206.71,21
185,197.64,206.49,21
184,197.36,206.27,21
183,197.08,206.04,21
183,196.80,205.81,21
183,196.52,205.58,21
183,196.25,205.35,21
184,196.00,205.14,21
185,195.78,204.94,21
184,195.55,204.73,21
184,195.32,204.52,21
184,195.09,204.31,21
184,194.87,204.11,21
184,194.65,203.91,21
182,194.40,203.69,21
182,194.15,203.47,21
182,193.91,203.26,21
187,193.77,203.10,21
183,193.55,202.90,21
183,193.34,202.70,21
183,193.14,202.50,21
182,192.91,202.30,21
184,192.74,202.11,21
185,192.58,201.94,21
185,192.43,201.77,21
183,192.24,201.58,21
183,192.06,201.40,21
182,191.85,201.20,21
181,191.64,201.00,21
181,191.42,200.80,21
181,191.22,200.60,21
181,191.01,200.41,21
181,190.81,200.21,21
182,190.64,200.03,21
183,190.48,199.86,21
181,190.29,199.67,21
180,190.09,199.48,21
180,189.89,199.28,21
182,189.73,199.11,21
182,189.57,198.94,21
182,189.42,198.77,21
182,189.27,198.60,21
180,189.09,198.41,21
180,188.91,198.23,21
180,188.73,198.05,21
180,188.55,197.87,21
179,188.36,197.68,21
178,188.16,197.48,21
180,187.99,197.31,21
178,187.79,197.11,21
178,187.60,196.92,21
179,187.42,196.74,21
181,187.30,196.59,21
180,187.15,196.42,21
177,186.95,196.23,21
179,186.79,196.05,21
180,186.65,195.89,21
181,186.54,195.74,21
180,186.41,195.59,21
177,186.22,195.40,21
180,186.10,195.25,21
181,185.99,195.10,21
181,185.89,194.96,21
180,185.78,194.81,21
178,185.62,194.65,21
179,185.49,194.49,21
180,185.38,194.34,21
181,185.29,194.21,21
180,185.19,194.07,21
179,185.06,193.92,21
177,184.90,193.75,21
180,184.80,193.61,21
177,184.65,193.45,21
176,184.47,193.27,21
178,184.34,193.12,21
177,184.20,192.96,21
177,184.05,192.80,21
177,183.91,192.64,21
176,183.75,192.47,21
177,183.62,192.32,21
177,183.49,192.17,21
175,183.32,191.99,21
175,183.15,191.82,21
176,183.01,191.67,21
175,182.85,191.50,21
174,182.67,191.32,21
173,182.48,191.14,21
174,182.31,190.97,21
174,182.14,190.80,21
173,181.96,190.62,21
172,181.76,190.44,21
173,181.58,190.26,21
173,181.41,190.09,21
173,181.24,189.92,21
172,181.06,189.74,21
172,180.88,189.56,21
173,180.72,189.40,21
173,180.57,189.23,21
173,180.41,189.07,21
172,180.25,188.90,21
173,180.10,188.74,21
171,179.92,188.56,21
172,179.76,188.40,21
171,179.59,188.22,21
171,179.41,188.05,21
171,179.25,187.88,21
170,179.06,187.70,21
171,178.90,187.53,21
168,178.68,187.34,21
171,178.53,187.18,21
170,178.36,187.00,21
168,178.15,186.81,21
169,177.97,186.64,21
169,177.79,186.46,21
169,177.61,186.28,21
170,177.46,186.12,21
169,177.29,185.95,21
169,177.13,185.78,21
168,176.94,185.60,21
169,176.78,185.44,21
168,176.61,185.26,21
167,176.42,185.08,21
167,176.23,184.90,21
167,176.04,184.72,21
166,175.84,184.53,21
165,175.63,184.34,21
165,175.41,184.14,21
166,175.22,183.96,21
165,175.02,183.77,21
166,174.84,183.60,21
167,174.68,183.43,21
166,174.51,183.26,21
165,174.32,183.07,21
165,174.13,182.89,21
164,173.93,182.70,21
163,173.71,182.51,21
167,173.58,182.35,21
167,173.45,182.20,21
166,173.30,182.04,21
165,173.13,181.87,21
166,172.99,181.71,21
167,172.87,181.56,21
166,172.73,181.40,21
165,172.58,181.24,21
163,172.38,181.06,21
163,172.20,180.88,21
165,172.05,180.72,21
164,171.89,180.55,21
163,171.71,180.38,21
163,171.54,180.20,21
164,171.39,180.04,21
163,171.22,179.87,21
163,171.06,179.70,21
162,170.88,179.52,21
163,170.72,179.36,21
163,170.56,179.19,21
163,170.41,179.03,21
161,170.22,178.85,21
162,170.06,178.68,21
163,169.92,178.53,21
163,169.78,178.37,21
161,169.60,178.20,21
161,169.43,178.03,21
161,169.26,177.86,21
163,169.14,177.71,21
161,168.98,177.54,21
160,168.80,177.36,21
160,168.62,177.19,21
162,168.49,177.04,21
159,168.30,176.86,21
159,168.11,176.68,21
160,167.95,176.51,21
160,167.79,176.35,21
161,167.66,176.19,21
159,167.48,176.02,21
159,167.31,175.85,21
158,167.13,175.67,21
159,166.96,175.51,21
158,166.78,175.33,21
159,166.63,175.17,21
158,166.46,175.00,21
158,166.29,174.83,21
157,166.10,174.65,21
157,165.92,174.47,21
157,165.74,174.30,21
158,165.59,174.13,21
156,165.39,173.95,21
157,165.23,173.78,21
157,165.06,173.62,21
159,164.94,173.47,21
157,164.78,173.31,21
155,164.59,173.12,21
155,164.39,172.94,21
155,164.21,172.76,21
156,164.04,172.59,21
158,163.92,172.45,21
156,163.76,172.28,21
156,163.61,172.12,21
155,163.44,171.95,21
157,163.31,171.80,21
157,163.18,171.65,21
155,163.02,171.49,21
154,162.84,171.31,21
156,162.70,171.16,21
156,162.57,171.01,21
156,162.44,170.86,21
154,162.27,170.69,21
155,162.12,170.53,21
155,161.98,170.38,21
156,161.86,170.23,21
154,161.70,170.07,21
154,161.55,169.91,21
156,161.44,169.77,21
156,161.33,169.63,21
155,161.20,169.49,21
154,161.06,169.33,21
153,160.90,169.17,21
154,160.76,169.02,21
154,160.62,168.87,21
154,160.49,168.72,21
152,160.32,168.55,21
154,160.19,168.40,21
153,160.05,168.25,21
153,159.91,168.10,21
153,159.77,167.95,21
155,159.68,167.82,21
155,159.58,167.69,21
154,159.47,167.55,21
154,159.36,167.42,21
154,159.25,167.28,21
154,159.15,167.15,21
156,159.09,167.04,21
154,158.98,166.91,21
153,158.86,166.77,21
153,158.75,166.63,21
154,158.65,166.50,21
155,158.58,166.39,21
153,158.47,166.26,21
152,158.34,166.11,21
153,158.23,165.98,21
151,158.09,165.83,21
151,157.95,165.68,21
151,157.81,165.54,21
151,157.67,165.39,21
152,157.56,165.26,21
151,157.43,165.12,21
152,157.32,164.98,21
151,157.19,164.84,21
151,157.07,164.71,21
149,156.91,164.55,21
150,156.77,164.40,21
151,156.65,164.27,21
151,156.54,164.14,21
151,156.43,164.01,21
149,156.28,163.86,21
151,156.17,163.73,21
151,156.07,163.60,21
150,155.95,163.46,21
150,155.83,163.33,21
147,155.65,163.17,21
151,155.56,163.04,21
149,155.43,162.90,21
150,155.32,162.77,21
150,155.21,162.65,21
147,155.05,162.49,21
148,154.91,162.35,21
149,154.79,162.21,21
149,154.68,162.08,21
147,154.52,161.93,21
147,154.37,161.78,21
147,154.22,161.63,21
147,154.08,161.49,21
146,153.92,161.33,21
146,153.76,161.18,21
145,153.58,161.02,21
148,153.47,160.89,21
147,153.34,160.75,21
146,153.20,160.60,21
146,153.05,160.45,21
145,152.89,160.30,21
145,152.73,160.15,21
145,152.58,159.99,21
145,152.43,159.84,21
144,152.26,159.69,21
144,152.09,159.53,21
145,151.95,159.38,21
144,151.79,159.23,21
144,151.64,159.08,21
144,151.48,158.93,21
144,151.33,158.78,21
145,151.21,158.64,21
146,151.10,158.51,21
144,150.96,158.37,21
143,150.80,158.21,21
142,150.63,158.05,21
143,150.47,157.90,21
143,150.32,157.75,21
143,150.18,157.61,21
144,150.05,157.47,21
143,149.91,157.32,21
143,149.77,157.18,21
142,149.62,157.03,21
143,149.49,156.89,21
143,149.36,156.75,21
141,149.19,156.59,21
143,149.07,156.46,21
143,148.95,156.32,21
142,148.81,156.18,21
143,148.69,156.05,21
144,148.60,155.93,21
145,148.52,155.82,21
144,148.43,155.70,21
142,148.31,155.56,21
145,148.24,155.46,21
145,148.17,155.35,21
143,148.07,155.23,21
142,147.95,155.10,21
142,147.83,154.97,21
143,147.73,154.85,21
143,147.64,154.73,21
144,147.57,154.62,21
143,147.47,154.50,21
141,147.35,154.37,21
142,147.24,154.24,21
143,147.15,154.13,21
142,147.05,154.01,21
142,146.95,153.89,21
141,146.83,153.76,21
143,146.75,153.65,21
144,146.70,153.56,21
144,146.65,153.46,21
143,146.57,153.36,21
142,146.48,153.24,21
142,146.39,153.13,21
145,146.36,153.05,21
145,146.34,152.97,21
143,146.27,152.87,21
142,146.18,152.76,21
143,146.12,152.66,21
143,146.06,152.57,21
142,145.98,152.46,21
142,145.90,152.36,21
143,145.84,152.26,21
141,145.74,152.15,21
141,145.65,152.04,21
141,145.55,151.93,21
143,145.50,151.84,21
143,145.45,151.75,21
143,145.40,151.66,21
141,145.32,151.56,21
143,145.27,151.47,21
143,145.22,151.39,21
143,145.18,151.30,21
143,145.14,151.22,21
143,145.09,151.14,21
141,145.01,151.04,21
141,144.93,150.94,21
141,144.85,150.84,21
142,144.80,150.75,21
143,144.76,150.67,21
141,144.68,150.57,21
140,144.59,150.47,21
140,144.50,150.36,21
139,144.39,150.25,21
140,144.30,150.15,21
140,144.22,150.05,21
139,144.11,149.94,21
139,144.01,149.83,21
140,143.93,149.73,21
140,143.85,149.63,21
141,143.79,149.54,21
138,143.68,149.43,21
138,143.56,149.31,21
138,143.45,149.20,21
140,143.38,149.11,21
143,143.38,149.05,21
138,143.27,148.94,21
138,143.16,148.83,21
139,143.08,148.73,21
140,143.02,148.64,21
138,142.92,148.54,21
138,142.82,148.43,21
138,142.72,148.33,21
139,142.65,148.23,21
138,142.56,148.13,21
138,142.46,148.03,21
136,142.34,147.91,21
136,142.21,147.79,21
138,142.12,147.69,21
137,142.02,147.59,21
136,141.90,147.47,21
136,141.78,147.36,21
136,141.67,147.24,21
138,141.59,147.15,21
137,141.50,147.05,21
137,141.41,146.95,21
136,141.30,146.84,21
136,141.20,146.73,21
135,141.07,146.61,21
136,140.97,146.51,21
137,140.89,146.41,21
136,140.80,146.31,21
137,140.72,146.21,21
136,140.63,146.11,21
136,140.53,146.01,21
135,140.42,145.90,21
137,140.35,145.81,21
136,140.27,145.71,21
136,140.18,145.62,21
137,140.12,145.53,21
139,140.10,145.46,21
134,139.97,145.35,21
135,139.87,145.25,21
137,139.82,145.16,21
138,139.78,145.09,21
136,139.70,145.00,21
135,139.61,144.90,21
135,139.52,144.80,21
138,139.49,144.73,21
136,139.42,144.65,21
135,139.33,144.55,21
135,139.24,144.46,21
137,139.20,144.38,21
138,139.17,144.32,21
138,139.15,144.25,21
137,139.11,144.18,21
137,139.07,144.11,21
139,139.06,144.06,21
142,139.12,144.04,21
142,139.18,144.02,21
141,139.22,143.99,21
137,139.17,143.92,21
139,139.17,143.87,21
138,139.15,143.81,21
142,139.20,143.79,21
141,139.24,143.76,21
142,139.29,143.75,21
139,139.29,143.70,21
139,139.28,143.65,21
141,139.32,143.62,21
139,139.31,143.58,21
139,139.30,143.53,21
143,139.38,143.53,21
139,139.37,143.48,21
139,139.36,143.44,21
142,139.42,143.42,21
143,139.49,143.42,21
147,139.64,143.45,21
145,139.75,143.47,21
143,139.81,143.47,21
142,139.85,143.45,21
142,139.90,143.44,21
147,140.04,143.47,21
144,140.12,143.48,21
143,140.18,143.47,21
145,140.27,143.49,21
144,140.35,143.49,21
143,140.40,143.49,21
143,140.45,143.48,21
144,140.52,143.49,21
144,140.59,143.49,21
142,140.62,143.48,21
144,140.69,143.48,21
145,140.77,143.50,21
145,140.86,143.51,21
141,140.86,143.49,21
143,140.90,143.48,21
143,140.95,143.48,21
144,141.01,143.48,21
142,141.03,143.47,21
142,141.05,143.45,21
143,141.09,143.45,21
143,141.12,143.45,21
143,141.16,143.44,21
143,141.20,143.44,21
143,141.23,143.43,21
143,141.27,143.43,21
143,141.30,143.42,21
143,141.34,143.42,21
143,141.37,143.42,21
139,141.32,143.37,21
141,141.32,143.35,21
142,141.33,143.33,21
143,141.36,143.33,21
142,141.38,143.32,21
142,141.39,143.30,21
141,141.38,143.28,21
141,141.37,143.26,21
141,141.37,143.24,21
139,141.32,143.19,21
142,141.33,143.18,21
142,141.35,143.17,21
142,141.36,143.16,21
143,141.39,143.16,21
141,141.38,143.13,21
143,141.42,143.13,21
149,141.57,143.19,21
148,141.70,143.24,21
147,141.80,143.28,21
145,141.87,143.29,21
145,141.93,143.31,21
147,142.03,143.35,21
153,142.25,143.45,21
150,142.41,143.51,21
147,142.50,143.55,21
146,142.57,143.57,21
146,142.64,143.59,21
147,142.72,143.63,21
147,142.81,143.66,21
149,142.93,143.72,21
147,143.01,143.75,21
147,143.09,143.78,21
146,143.15,143.80,21
146,143.21,143.83,21
146,143.26,143.85,21
144,143.28,143.85,21
145,143.31,143.86,21
145,143.35,143.87,21
145,143.38,143.88,21
146,143.43,143.90,21
146,143.48,143.92,21
144,143.49,143.93,21
146,143.54,143.95,21
147,143.61,143.98,21
146,143.66,144.00,21
145,143.69,144.01,21
144,143.69,144.01,21
143,143.68,144.00,21
144,143.69,144.00,21
144,143.69,144.00,21
145,143.72,144.01,21
143,143.71,144.00,21
146,143.75,144.02,21
143,143.74,144.01,21
143,143.72,144.00,21
145,143.75,144.01,21
146,143.79,144.03,21
145,143.82,144.04,21
146,143.86,144.06,21
145,143.88,144.07,21
144,143.88,144.06,21
145,143.91,144.07,21
144,143.91,144.07,21
148,143.99,144.11,22
146,144.03,144.13,22
144,144.03,144.13,23
145,144.05,144.14,23
147,144.11,144.17,24
148,144.19,144.21,24
145,144.20,144.21,25
144,144.20,144.21,25
143,144.17,144.20,26
146,144.21,144.22,26
144,144.21,144.22,27
143,144.18,144.20,27
145,144.20,144.21,28
143,144.18,144.20,28
145,144.19,144.21,29
148,144.27,144.25,29
145,144.28,144.25,30
144,144.28,144.25,30
143,144.25,144.24,31
147,144.31,144.27,31
146,144.34,144.28,32
143,144.31,144.27,32
146,144.35,144.29,33
144,144.34,144.28,33
147,144.39,144.31,34
145,144.41,144.32,34
146,144.44,144.34,35
147,144.49,144.36,35
146,144.52,144.38,35
145,144.53,144.38,35
144,144.52,144.38,35
149,144.61,144.43,35
148,144.68,144.46,35
148,144.74,144.50,35
147,144.79,144.52,35
144,144.77,144.52,35
146,144.80,144.53,35
145,144.80,144.54,35
146,144.82,144.55,35
145,144.83,144.56,35
145,144.83,144.56,35
146,144.85,144.58,35
146,144.88,144.59,35
146,144.90,144.60,35
145,144.90,144.61,35
145,144.90,144.61,35
145,144.91,144.62,35
146,144.93,144.63,35
148,144.99,144.66,35
146,145.01,144.68,35
144,144.99,144.67,35
144,144.97,144.66,35
144,144.95,144.66,35
150,145.05,144.71,35
148,145.11,144.74,35
148,145.17,144.78,35
146,145.18,144.79,35
145,145.18,144.79,35
146,145.20,144.80,35
149,145.27,144.84,35
146,145.29,144.86,35
145,145.28,144.86,35
145,145.28,144.86,35
146,145.29,144.87,35
146,145.31,144.88,35
146,145.32,144.89,35
150,145.41,144.94,35
152,145.54,145.01,35
148,145.59,145.04,35
148,145.64,145.07,35
149,145.71,145.11,35
146,145.71,145.12,35
151,145.82,145.18,35
151,145.92,145.24,35
149,145.99,145.28,35
151,146.09,145.33,35
150,146.16,145.38,35
155,146.34,145.48,35
159,146.59,145.61,35
153,146.72,145.69,35
152,146.83,145.75,35
157,147.03,145.86,35
160,147.29,146.00,35
159,147.52,146.13,35
155,147.67,146.22,35
156,147.84,146.32,35
157,148.02,146.43,35
154,148.14,146.50,35
155,148.28,146.59,35
155,148.41,146.67,35
152,148.49,146.72,35
155,148.62,146.81,35
157,148.78,146.91,35
157,148.95,147.01,35
154,149.05,147.08,35
155,149.17,147.16,35
155,149.29,147.24,35
156,149.42,147.32,35
158,149.59,147.43,35
155,149.70,147.51,35
157,149.85,147.60,35
156,149.97,147.69,35
155,150.07,147.76,35
157,150.21,147.85,35
157,150.34,147.94,35
154,150.42,148.00,35
155,150.51,148.07,35
156,150.62,148.15,35
154,150.69,148.21,35
157,150.81,148.30,35
154,150.88,148.36,35
157,151.00,148.44,35
155,151.08,148.51,35
156,151.18,148.58,35
162,151.39,148.72,35
164,151.65,148.87,35
159,151.79,148.97,35
164,152.04,149.12,35
165,152.30,149.28,35
163,152.51,149.42,35
162,152.70,149.54,35
162,152.89,149.67,35
162,153.07,149.79,35
159,153.19,149.88,35
161,153.34,149.99,35
161,153.50,150.10,35
160,153.63,150.20,35
161,153.77,150.31,35
163,153.96,150.44,35
164,154.16,150.57,35
162,154.32,150.69,35
166,154.55,150.84,35
162,154.70,150.95,35
164,154.88,151.08,35
167,155.13,151.24,35
167,155.36,151.40,35
164,155.54,151.53,35
166,155.75,151.67,35
163,155.89,151.78,35
163,156.03,151.90,35
169,156.29,152.07,35
168,156.53,152.23,35
173,156.86,152.43,35
169,157.10,152.60,35
168,157.32,152.75,35
167,157.51,152.90,35
171,157.78,153.08,35
171,158.05,153.26,35
169,158.26,153.41,35
170,158.50,153.58,35
167,158.67,153.71,35
169,158.88,153.87,35
168,159.06,154.01,35
167,159.22,154.14,35
167,159.37,154.27,35
173,159.65,154.45,35
167,159.79,154.58,35
173,160.06,154.76,35
169,160.24,154.91,35
171,160.45,155.07,35
170,160.64,155.22,35
171,160.85,155.37,35
171,161.05,155.53,35
171,161.25,155.69,35
173,161.49,155.86,35
172,161.70,156.02,35
170,161.86,156.16,35
173,162.09,156.33,35
171,162.26,156.47,35
170,162.42,156.61,35
175,162.67,156.79,35
174,162.90,156.97,35
172,163.08,157.12,35
176,163.34,157.31,35
180,163.67,157.53,35
179,163.98,157.75,35
180,164.30,157.97,35
180,164.61,158.19,35
177,164.86,158.38,35
181,165.18,158.60,35
185,165.58,158.87,35
190,166.07,159.18,35
187,166.49,159.46,35
181,166.78,159.67,35
184,167.12,159.92,35
179,167.36,160.11,35
185,167.71,160.36,35
181,167.98,160.56,35
181,168.24,160.77,35
182,168.51,160.98,35
183,168.80,161.20,35
184,169.11,161.43,35
181,169.34,161.62,35
178,169.52,161.79,35
186,169.85,162.03,35
183,170.11,162.24,35
181,170.33,162.43,35
185,170.62,162.65,35
187,170.95,162.90,35
187,171.27,163.14,35
189,171.62,163.40,35
183,171.85,163.59,35
184,172.09,163.80,35
186,172.37,164.02,35
187,172.67,164.25,35
188,172.97,164.48,35
187,173.25,164.71,35
184,173.47,164.90,35
184,173.68,165.09,35
186,173.92,165.30,35
187,174.19,165.52,35
184,174.38,165.70,35
185,174.59,165.90,35
185,174.80,166.09,35
188,175.07,166.31,35
185,175.27,166.49,35
185,175.46,166.68,35
192,175.79,166.93,35
187,176.02,167.13,35
184,176.17,167.30,35
184,176.33,167.47,35
188,176.56,167.67,35
196,176.95,167.96,35
198,177.37,168.26,35
194,177.71,168.52,35
189,177.93,168.72,35
196,178.29,168.99,35
194,178.61,169.24,35
197,178.98,169.52,35
205,179.50,169.88,35
197,179.85,170.15,35
198,180.21,170.43,35
193,180.47,170.65,35
194,180.74,170.88,35
204,181.20,171.22,35
206,181.70,171.56,35
204,182.14,171.89,35
200,182.50,172.17,35
201,182.87,172.46,35
202,183.25,172.75,35
198,183.55,173.01,35
201,183.90,173.29,35
199,184.20,173.54,35
202,184.56,173.83,35
205,184.96,174.14,35
202,185.30,174.42,35
200,185.60,174.67,35
207,186.03,175.00,35
204,186.39,175.29,35
203,186.72,175.56,35
203,187.04,175.84,35
206,187.42,176.14,35
210,187.87,176.48,35
209,188.30,176.80,35
205,188.63,177.09,35
206,188.98,177.37,35
219,189.58,177.79,35
215,190.09,178.16,35
209,190.47,178.47,35
210,190.86,178.79,35
216,191.36,179.16,35
222,191.97,179.59,35
218,192.49,179.97,35
213,192.90,180.30,35
215,193.34,180.65,35
222,193.92,181.06,35
221,194.46,181.46,35
216,194.89,181.81,35
216,195.31,182.15,35
219,195.79,182.52,35
221,196.29,182.90,35
219,196.74,183.26,35
217,197.15,183.60,35
219,197.59,183.95,35
222,198.08,184.33,35
216,198.43,184.65,35
216,198.79,184.97,35
216,199.13,185.28,35
220,199.55,185.62,35
226,200.08,186.03,35
219,200.45,186.36,35
217,200.79,186.66,35
216,201.09,186.96,35
219,201.45,187.28,35
216,201.74,187.56,35
217,202.04,187.86,35
219,202.38,188.17,35
223,202.80,188.52,35
216,203.06,188.79,35
217,203.34,189.07,35
223,203.73,189.41,35
223,204.12,189.75,35
220,204.43,190.05,35
217,204.69,190.32,35
219,204.97,190.61,35
221,205.29,190.91,35
218,205.55,191.18,35
217,205.78,191.44,35
217,206.00,191.70,35
216,206.20,191.94,35
217,206.42,192.19,35
218,206.65,192.45,35
220,206.92,192.72,35
217,207.12,192.97,35
215,207.27,193.19,35
216,207.45,193.42,35
215,207.60,193.63,35
217,207.79,193.87,35
218,207.99,194.11,35
220,208.23,194.37,35
218,208.43,194.60,35
219,208.64,194.85,35
219,208.85,195.09,35
217,209.01,195.31,35
215,209.13,195.50,35
215,209.25,195.70,35
214,209.34,195.88,35
214,209.44,196.06,35
215,209.55,196.25,35
215,209.66,196.44,35
214,209.74,196.61,35
212,209.79,196.77,35
213,209.85,196.93,35
213,209.91,197.09,35
212,209.96,197.24,35
212,210.00,197.39,35
212,210.04,197.53,35
211,210.06,197.67,35
211,210.08,197.80,35
210,210.07,197.92,35
210,210.07,198.05,35
210,210.07,198.16,35
208,210.03,198.26,35
209,210.01,198.37,35
208,209.97,198.47,35
208,209.93,198.56,35
207,209.87,198.65,35
209,209.85,198.75,35
208,209.82,198.84,35
206,209.74,198.91,35
207,209.69,199.00,35
209,209.67,199.10,35
209,209.66,199.19,35
208,209.63,199.28,35
203,209.49,199.32,35
206,209.42,199.39,35
208,209.39,199.47,35
207,209.35,199.55,35
207,209.30,199.62,35
206,209.23,199.69,35
207,209.19,199.76,35
207,209.15,199.83,35
207,209.10,199.90,35
204,209.00,199.94,35
203,208.88,199.97,35
205,208.80,200.03,35
206,208.75,200.08,35
206,208.69,200.14,35
204,208.60,200.18,35
204,208.51,200.22,35
205,208.44,200.27,35
206,208.39,200.33,35
204,208.30,200.36,35
204,208.21,200.40,35
205,208.15,200.44,35
207,208.13,200.51,35
205,208.06,200.56,35
203,207.96,200.58,35
206,207.92,200.63,35
209,207.94,200.72,35
207,207.93,200.78,35
204,207.85,200.81,35
205,207.79,200.85,35
205,207.73,200.90,35
204,207.66,200.93,35
203,207.57,200.95,35
203,207.48,200.97,35
203,207.39,200.99,35
202,207.28,201.00,35
201,207.15,201.00,35
203,207.07,201.02,35
203,206.99,201.04,35
203,206.91,201.06,35
201,206.79,201.06,35
201,206.67,201.06,35
202,206.58,201.07,35
202,206.49,201.08,35
202,206.40,201.09,35
200,206.27,201.07,35
201,206.17,201.07,35
199,206.02,201.05,35
200,205.90,201.04,35
198,205.74,201.01,35
198,205.59,200.98,35
198,205.44,200.95,35
199,205.31,200.93,35
198,205.16,200.90,35
198,205.02,200.87,35
198,204.88,200.85,35
200,204.78,200.84,35
201,204.71,200.84,35
198,204.57,200.81,35
197,204.42,200.77,35
199,204.31,200.75,35
200,204.23,200.75,35
200,204.14,200.74,35
199,204.04,200.72,35
196,203.88,200.67,35
197,203.74,200.64,35
198,203.63,200.61,35
198,203.51,200.59,35
197,203.38,200.55,35
196,203.23,200.50,35
196,203.09,200.46,35
193,202.89,200.38,35
196,202.75,200.34,35
194,202.58,200.28,35
196,202.44,200.23,35
197,202.34,200.20,35
196,202.21,200.16,35
193,202.02,200.09,35
194,201.86,200.03,35
195,201.73,199.98,35
194,201.57,199.92,35
192,201.38,199.84,35
196,201.27,199.80,35
195,201.15,199.75,35
193,200.98,199.68,35
191,200.78,199.60,35
190,200.57,199.50,35
191,200.38,199.42,35
191,200.19,199.33,35
191,200.01,199.25,35
191,199.83,199.17,35
192,199.67,199.09,35
192,199.52,199.02,35
190,199.33,198.93,35
189,199.12,198.83,35
190,198.94,198.75,35
189,198.74,198.65,36
189,198.54,198.55,36
188,198.33,198.45,37
188,198.13,198.34,37
190,197.96,198.26,37
188,197.76,198.16,37
186,197.53,198.03,37
186,197.30,197.91,37
187,197.09,197.81,37
185,196.85,197.68,37
184,196.59,197.54,37
186,196.38,197.42,37
185,196.15,197.30,37
184,195.91,197.17,37
185,195.69,197.05,37
186,195.50,196.94,37
186,195.31,196.83,37
184,195.08,196.70,37
185,194.88,196.58,37
188,194.74,196.50,37
185,194.55,196.38,37
183,194.32,196.25,37
182,194.07,196.10,37
184,193.87,195.98,37
184,193.67,195.86,37
183,193.46,195.73,37
182,193.23,195.60,37
182,193.01,195.46,37
183,192.81,195.34,37
181,192.57,195.19,37
180,192.32,195.04,37
181,192.09,194.90,37
182,191.89,194.77,37
180,191.65,194.62,37
180,191.42,194.48,37
180,191.19,194.33,37
181,190.99,194.20,37
180,190.77,194.06,37
179,190.53,193.91,37
179,190.30,193.76,37
179,190.07,193.61,37
179,189.85,193.46,37
179,189.64,193.32,37
177,189.38,193.16,37
178,189.16,193.00,37
177,188.91,192.84,37
177,188.67,192.69,37
177,188.44,192.53,37
176,188.19,192.36,37
177,187.97,192.21,37
177,187.75,192.06,37
176,187.51,191.90,37
175,187.26,191.73,37
175,187.02,191.56,37
176,186.80,191.41,37
175,186.56,191.24,37
178,186.39,191.11,37
175,186.16,190.95,37
175,185.94,190.79,37
175,185.72,190.63,37
174,185.49,190.46,37
174,185.26,190.30,37
174,185.03,190.14,37
174,184.81,189.98,37
174,184.59,189.82,37
173,184.36,189.65,37
174,184.16,189.49,37
175,183.97,189.35,37
174,183.77,189.19,37
172,183.54,189.02,37
173,183.33,188.86,37
172,183.10,188.69,37
172,182.88,188.53,37
172,182.66,188.36,37
172,182.45,188.20,37
172,182.24,188.03,37
171,182.01,187.86,37
171,181.79,187.70,37
171,181.58,187.53,37
171,181.37,187.36,37
171,181.16,187.20,37
171,180.96,187.04,37
170,180.74,186.87,37
169,180.50,186.69,37
170,180.29,186.52,37
172,180.13,186.38,37
171,179.94,186.22,37
169,179.72,186.05,37
170,179.53,185.89,37
171,179.36,185.74,37
171,179.19,185.59,37
174,179.09,185.48,37
169,178.89,185.31,37
168,178.67,185.14,37
168,178.46,184.97,37
169,178.27,184.81,37
168,178.06,184.64,37
168,177.86,184.47,37
167,177.64,184.30,37
168,177.45,184.14,37
167,177.24,183.97,37
167,177.04,183.80,37
167,176.84,183.63,37
167,176.64,183.46,37
166,176.43,183.29,37
166,176.22,183.11,37
166,176.01,182.94,37
165,175.79,182.76,37
165,175.58,182.59,37
164,175.35,182.40,37
165,175.14,182.23,37
165,174.94,182.05,37
165,174.74,181.88,37
165,174.54,181.71,37
164,174.33,181.54,37
165,174.14,181.37,37
166,173.98,181.22,37
166,173.82,181.07,37
163,173.61,180.89,37
163,173.39,180.71,37
163,173.19,180.53,37
165,173.02,180.37,37
165,172.86,180.22,37
163,172.66,180.05,37
163,172.47,179.88,37
163,172.28,179.71,37
163,172.10,179.54,37
162,171.89,179.37,37
162,171.70,179.19,37
163,171.52,179.03,37
163,171.35,178.87,37
161,171.14,178.69,37
161,170.94,178.51,37
161,170.74,178.34,37
161,170.55,178.17,37
161,170.36,177.99,37
159,170.13,177.80,37
160,169.93,177.63,37
161,169.75,177.46,37
161,169.57,177.30,37
159,169.36,177.11,37
159,169.16,176.93,37
161,168.99,176.77,37
159,168.79,176.59,37
159,168.60,176.42,37
160,168.42,176.25,37
161,168.28,176.10,37
161,168.13,175.95,37
162,168.01,175.81,37
160,167.85,175.65,37
159,167.67,175.49,37
159,167.50,175.32,37
161,167.37,175.18,37
162,167.26,175.05,37
161,167.14,174.91,37
158,166.95,174.74,37
158,166.77,174.57,37
159,166.62,174.41,37
159,166.47,174.26,37
158,166.30,174.10,37
157,166.11,173.93,37
155,165.89,173.74,37
158,165.73,173.58,37
158,165.58,173.42,37
156,165.38,173.25,37
157,165.22,173.09,37
157,165.05,172.93,37
155,164.85,172.75,37
156,164.67,172.58,37
156,164.50,172.41,37
156,164.33,172.25,37
156,164.16,172.09,37
154,163.96,171.91,37
155,163.78,171.74,37
157,163.65,171.59,37
157,163.51,171.44,37
155,163.34,171.28,37
155,163.18,171.12,37
156,163.03,170.97,37
156,162.89,170.82,37
156,162.75,170.67,37
155,162.60,170.51,37
155,162.45,170.36,37
154,162.28,170.19,37
155,162.13,170.04,37
156,162.01,169.90,37
156,161.89,169.76,37
154,161.73,169.60,37
153,161.56,169.44,37
153,161.39,169.27,37
156,161.28,169.14,37
154,161.13,168.99,37
153,160.97,168.83,37
153,160.81,168.67,37
152,160.63,168.50,37
153,160.48,168.35,37
150,160.27,168.17,37
152,160.11,168.00,37
152,159.94,167.84,37
153,159.81,167.70,37
153,159.67,167.55,37
153,159.54,167.40,37
154,159.43,167.27,37
151,159.26,167.11,37
151,159.09,166.95,37
150,158.91,166.78,37
151,158.75,166.62,37
151,158.60,166.46,37
149,158.40,166.29,37
151,158.26,166.13,37
152,158.13,165.99,37
150,157.97,165.83,37
149,157.79,165.66,37
149,157.61,165.50,37
149,157.44,165.33,37
149,157.27,165.17,37
148,157.09,165.00,37
148,156.91,164.83,37
149,156.75,164.67,37
150,156.61,164.52,37
148,156.44,164.36,37
149,156.29,164.20,37
147,156.11,164.03,37
148,155.94,163.87,37
147,155.76,163.70,37
148,155.61,163.55,37
148,155.46,163.39,37
149,155.33,163.25,37
148,155.18,163.09,37
147,155.02,162.93,37
147,154.86,162.77,37
148,154.72,162.63,37
149,154.61,162.49,37
151,154.53,162.38,37
149,154.42,162.24,37
147,154.27,162.09,37
147,154.13,161.94,37
147,153.99,161.79,37
146,153.83,161.63,37
146,153.67,161.47,37
146,153.52,161.32,37
146,153.37,161.17,37
148,153.26,161.04,37
145,153.09,160.87,37
145,152.93,160.72,37
147,152.81,160.58,37
147,152.70,160.44,37
146,152.56,160.30,37
145,152.41,160.15,37
148,152.32,160.02,37
148,152.24,159.90,37
147,152.13,159.77,37
146,152.01,159.64,37
147,151.91,159.51,37
146,151.79,159.38,37
146,151.68,159.24,37
145,151.54,159.10,37
145,151.41,158.96,37
144,151.26,158.81,37
144,151.12,158.66,37
144,150.98,158.51,37
144,150.84,158.37,37
143,150.68,158.22,37
144,150.55,158.07,37
144,150.41,157.93,37
144,150.29,157.79,37
142,150.12,157.64,37
142,149.96,157.48,37
143,149.82,157.33,37
143,149.68,157.19,37
143,149.55,157.05,37
143,149.42,156.91,37
141,149.25,156.75,37
143,149.12,156.61,37
143,149.00,156.48,37
142,148.86,156.33,37
142,148.73,156.19,37
143,148.61,156.06,37
141,148.46,155.91,37
141,148.31,155.76,37
141,148.16,155.61,37
142,148.04,155.47,37
141,147.90,155.33,37
140,147.74,155.17,37
139,147.57,155.01,37
139,147.39,154.85,37
141,147.27,154.71,37
141,147.14,154.58,37
140,147.00,154.43,37
140,146.86,154.29,37
141,146.74,154.15,37
140,146.61,154.01,37
140,146.47,153.87,37
139,146.33,153.72,37
141,146.22,153.60,37
141,146.11,153.47,37
143,146.05,153.37,37
142,145.97,153.25,37
139,145.83,153.11,37
141,145.74,152.99,37
140,145.62,152.86,37
140,145.51,152.73,37
140,145.40,152.60,37
139,145.27,152.47,37
139,145.14,152.33,37
140,145.04,152.21,37
139,144.92,152.08,37
138,144.78,151.94,37
138,144.65,151.80,37
138,144.51,151.66,37
138,144.38,151.52,37
138,144.26,151.39,37
142,144.21,151.29,37
138,144.09,151.16,37
136,143.92,151.01,37
137,143.79,150.87,37
137,143.65,150.73,37
137,143.52,150.59,37
137,143.39,150.46,37
137,143.26,150.32,37
137,143.13,150.19,37
136,142.99,150.05,37
135,142.83,149.90,37
135,142.68,149.75,37
135,142.52,149.60,37
135,142.37,149.45,37
136,142.24,149.32,37
136,142.12,149.19,37
136,142.00,149.05,37
136,141.88,148.92,37
138,141.80,148.81,37
136,141.68,148.69,37
136,141.57,148.56,37
136,141.46,148.43,37
137,141.37,148.32,37
137,141.28,148.21,37
136,141.18,148.08,37
135,141.05,147.95,37
135,140.93,147.82,37
136,140.83,147.71,37
136,140.74,147.59,37
136,140.64,147.47,37
135,140.53,147.35,37
135,140.42,147.22,37
137,140.35,147.12,37
135,140.24,147.00,37
134,140.12,146.87,37
134,140.00,146.74,37
133,139.86,146.60,37
133,139.72,146.47,37
134,139.60,146.34,37
135,139.51,146.23,37
135,139.42,146.12,37
136,139.35,146.02,37
135,139.27,145.91,37
135,139.18,145.80,37
136,139.12,145.70,37
135,139.03,145.59,37
132,138.89,145.46,37
133,138.78,145.33,37
136,138.72,145.24,37
135,138.65,145.14,37
136,138.59,145.05,37
135,138.52,144.94,37
134,138.43,144.84,37
133,138.32,144.72,37
134,138.24,144.61,37
135,138.17,144.51,37
135,138.11,144.42,37
132,137.99,144.29,37
133,137.89,144.18,37
133,137.79,144.07,37
133,137.69,143.96,37
133,137.60,143.85,37
134,137.53,143.75,37
132,137.42,143.63,37
133,137.33,143.53,37
132,137.22,143.41,37
133,137.14,143.31,37
131,137.01,143.18,37
132,136.91,143.07,37
132,136.82,142.96,37
129,136.66,142.82,37
132,136.57,142.71,37
132,136.47,142.61,37
130,136.35,142.48,37
130,136.22,142.36,37
130,136.09,142.23,37
129,135.95,142.10,37
130,135.83,141.98,37
130,135.72,141.86,37
131,135.62,141.75,37
129,135.49,141.62,37
129,135.36,141.50,37
130,135.25,141.38,37
134,135.23,141.31,37
131,135.14,141.21,37
132,135.08,141.11,37
130,134.98,141.00,37
131,134.90,140.90,37
131,134.82,140.80,37
132,134.76,140.72,37
133,134.73,140.64,37
131,134.65,140.54,37
130,134.56,140.44,37
129,134.45,140.32,37
132,134.40,140.24,37
129,134.29,140.13,37
129,134.19,140.01,37
129,134.08,139.90,37
130,134.00,139.81,37
130,133.92,139.71,37
130,133.84,139.61,37
131,133.79,139.52,37
131,133.73,139.44,37
130,133.66,139.34,37
131,133.60,139.26,37
129,133.51,139.16,37
132,133.48,139.09,37
131,133.43,139.01,37
131,133.38,138.93,37
132,133.36,138.86,37
130,133.29,138.77,37
132,133.26,138.70,37
135,133.30,138.66,37
136,133.35,138.64,37
133,133.34,138.58,37
131,133.30,138.51,37
131,133.25,138.43,37
134,133.27,138.39,37
137,133.34,138.37,37
136,133.39,138.35,37
136,133.45,138.32,37
131,133.40,138.25,37
133,133.39,138.20,37
133,133.38,138.15,37
134,133.39,138.11,37
133,133.39,138.05,37
132,133.36,137.99,37
134,133.37,137.95,37
134,133.38,137.91,37
134,133.40,137.88,37
131,133.35,137.81,37
130,133.28,137.73,37
132,133.26,137.67,37
132,133.23,137.61,37
131,133.19,137.55,37
132,133.16,137.49,37
132,133.14,137.44,37
131,133.10,137.37,37
131,133.05,137.31,37
131,133.01,137.25,37
131,132.97,137.18,37
130,132.91,137.11,37
130,132.86,137.04,37
133,132.86,137.00,37
134,132.88,136.97,37
133,132.88,136.93,37
131,132.85,136.87,37
132,132.83,136.82,37
131,132.79,136.76,37
130,132.74,136.70,37
135,132.78,136.68,37
138,132.89,136.69,37
135,132.93,136.68,37
134,132.95,136.65,37
131,132.91,136.59,37
134,132.93,136.57,37
136,132.99,136.56,37
138,133.09,136.58,37
137,133.17,136.58,37
137,133.25,136.58,37
134,133.26,136.56,37
134,133.28,136.53,37
134,133.29,136.51,37
136,133.35,136.50,37
137,133.42,136.51,37
138,133.51,136.52,37
137,133.58,136.53,37
137,133.65,136.53,37
136,133.70,136.53,37
135,133.72,136.51,37
135,133.75,136.50,37
135,133.77,136.48,37
135,133.80,136.47,37
134,133.80,136.44,37
134,133.81,136.42,37
135,133.83,136.40,37
136,133.87,136.40,37
133,133.86,136.37,37
133,133.84,136.33,37
133,133.82,136.30,37
133,133.81,136.27,37
133,133.79,136.23,37
133,133.77,136.20,37
134,133.78,136.18,37
135,133.80,136.17,37
134,133.81,136.14,37
136,133.85,136.14,37
137,133.91,136.15,37
136,133.96,136.15,37
138,134.04,136.17,37
135,134.06,136.16,37
135,134.07,136.15,37
138,134.15,136.16,37
136,134.19,136.16,37
134,134.19,136.14,37
135,134.20,136.13,37
135,134.22,136.12,37
134,134.21,136.10,37
133,134.19,136.07,37
134,134.19,136.05,37
134,134.18,136.03,37
133,134.16,135.99,37
132,134.12,135.95,37
134,134.11,135.94,37
134,134.11,135.92,37
132,134.07,135.88,37
132,134.03,135.84,37
132,133.99,135.80,37
133,133.97,135.77,37
133,133.95,135.74,37
132,133.91,135.71,37
134,133.91,135.69,37
135,133.93,135.68,37
135,133.95,135.68,37
135,133.97,135.67,37
136,134.01,135.67,37
132,133.97,135.64,37
131,133.92,135.59,37
135,133.94,135.58,37
137,134.00,135.60,37
135,134.02,135.59,37
135,134.04,135.59,37
131,133.98,135.54,37
134,133.98,135.52,37
135,134.00,135.52,37
135,134.02,135.51,37
133,134.00,135.49,37
136,134.04,135.49,37
136,134.08,135.50,37
137,134.14,135.51,37
133,134.11,135.49,37
134,134.11,135.47,37
134,134.11,135.46,37
133,134.09,135.43,37
132,134.04,135.40,37
134,134.04,135.39,37
133,134.02,135.36,37
133,134.00,135.34,37
132,133.96,135.31,37
132,133.92,135.27,37
134,133.92,135.26,37
133,133.91,135.24,37
132,133.87,135.20,37
134,133.87,135.19,37
135,133.89,135.19,37
133,133.88,135.17,37
132,133.84,135.14,37
133,133.82,135.12,37
135,133.84,135.11,37
137,133.91,135.13,37
135,133.93,135.13,37
134,133.93,135.12,37
133,133.91,135.10,37
136,133.95,135.11,37
138,134.03,135.14,37
134,134.03,135.13,37
139,134.13,135.16,37
139,134.23,135.20,37
139,134.33,135.24,37
138,134.40,135.27,37
137,134.45,135.29,37
134,134.44,135.27,37
136,134.47,135.28,37
137,134.52,135.30,37
138,134.59,135.32,37
137,134.64,135.34,37
135,134.65,135.34,37
136,134.68,135.34,37
135,134.68,135.34,37
136,134.71,135.35,37
134,134.69,135.33,37
135,134.70,135.33,37
135,134.71,135.33,37
134,134.69,135.31,37
135,134.70,135.31,37
134,134.68,135.30,37
133,134.65,135.28,37
134,134.64,135.26,37
134,134.63,135.25,37
134,134.61,135.24,37
132,134.56,135.21,37
135,134.57,135.20,37
133,134.54,135.18,37
135,134.55,135.18,37
133,134.52,135.16,37
136,134.55,135.17,37
135,134.56,135.16,37
134,134.54,135.15,37
133,134.51,135.13,37
134,134.50,135.12,37
133,134.47,135.10,37
132,134.42,135.07,37
136,134.45,135.08,37
133,134.43,135.06,37
137,134.48,135.08,37
136,134.51,135.08,37
135,134.52,135.08,37
137,134.57,135.10,37
140,134.68,135.15,37
137,134.72,135.17,37
137,134.77,135.19,37
140,134.87,135.24,37
139,134.96,135.27,37
139,135.04,135.31,37
136,135.06,135.32,37
141,135.17,135.38,37
139,135.25,135.41,37
143,135.41,135.49,38
143,135.56,135.56,38
139,135.63,135.60,39
142,135.75,135.66,39
143,135.90,135.73,39
143,136.04,135.81,39
144,136.20,135.89,39
142,136.32,135.95,39
142,136.43,136.01,39
143,136.56,136.08,39
143,136.69,136.15,39
143,136.82,136.22,39
141,136.90,136.27,39
140,136.96,136.30,39
140,137.02,136.34,39
142,137.12,136.40,39
140,137.18,136.43,39
140,137.24,136.47,39
141,137.31,136.51,39
140,137.37,136.55,39
140,137.42,136.58,39
140,137.47,136.62,39
143,137.58,136.68,39
141,137.65,136.72,39
141,137.72,136.77,39
141,137.78,136.81,39
143,137.89,136.87,39
141,137.95,136.91,39
142,138.03,136.96,39
140,138.07,136.99,39
144,138.19,137.06,39
141,138.24,137.10,39
140,138.28,137.13,39
140,138.31,137.16,39
139,138.33,137.18,39
139,138.34,137.20,39
140,138.37,137.23,39
143,138.47,137.28,39
140,138.50,137.31,39
141,138.55,137.35,39
141,138.60,137.38,39
143,138.68,137.44,39
144,138.79,137.51,39
141,138.83,137.54,39
144,138.94,137.61,39
143,139.02,137.66,39
145,139.14,137.73,39
146,139.28,137.82,39
142,139.33,137.86,39
143,139.40,137.91,39
143,139.48,137.96,39
146,139.61,138.04,39
144,139.69,138.10,39
146,139.82,138.18,39
144,139.90,138.24,39
143,139.97,138.28,39
145,140.07,138.35,39
145,140.16,138.42,39
147,140.30,138.50,39
143,140.36,138.55,39
145,140.45,138.61,39
144,140.52,138.67,39
146,140.63,138.74,39
149,140.80,138.84,39
147,140.92,138.92,39
151,141.12,139.05,39
155,141.40,139.20,39
155,141.67,139.36,39
150,141.84,139.47,39
147,141.94,139.54,39
148,142.06,139.63,39
150,142.22,139.73,39
153,142.44,139.87,39
155,142.69,140.02,39
150,142.83,140.12,39
152,143.02,140.24,39
152,143.20,140.35,39
150,143.33,140.45,39
152,143.51,140.57,39
156,143.76,140.72,39
157,144.02,140.88,39
152,144.18,140.99,39
153,144.36,141.11,39
158,144.63,141.28,39
158,144.90,141.45,39
157,145.14,141.61,39
154,145.32,141.73,39
156,145.53,141.87,39
155,145.72,142.00,39
154,145.89,142.12,39
154,146.05,142.24,39
155,146.23,142.37,39
154,146.38,142.49,39
153,146.51,142.59,39
155,146.68,142.71,39
152,146.79,142.81,39
154,146.94,142.92,39
155,147.10,143.04,39
153,147.21,143.14,39
154,147.35,143.25,39
160,147.60,143.42,39
153,147.71,143.51,39
154,147.84,143.62,39
154,147.96,143.72,39
156,148.12,143.84,39
156,148.28,143.97,39
154,148.39,144.07,39
158,148.59,144.20,39
155,148.71,144.31,39
155,148.84,144.42,39
158,149.02,144.56,39
158,149.20,144.69,39
156,149.34,144.80,39
160,149.55,144.95,39
158,149.72,145.09,39
155,149.83,145.18,39
159,150.01,145.32,39
157,150.15,145.44,39
158,150.31,145.57,39
156,150.42,145.67,39
158,150.57,145.79,39
164,150.84,145.97,39
160,151.02,146.12,39
160,151.20,146.25,39
160,151.38,146.39,39
159,151.53,146.52,39
159,151.68,146.64,39
164,151.93,146.82,39
166,152.21,147.01,39
163,152.42,147.17,39
159,152.56,147.29,39
165,152.80,147.46,39
163,153.01,147.62,39
165,153.25,147.79,39
162,153.42,147.93,39
165,153.66,148.11,39
172,154.02,148.34,39
167,154.28,148.53,39
163,154.46,148.68,39
167,154.71,148.86,39
179,155.19,149.16,39
171,155.51,149.38,39
171,155.82,149.59,39
175,156.20,149.85,39
170,156.48,150.05,39
170,156.75,150.25,39
168,156.97,150.43,39
169,157.21,150.61,39
167,157.41,150.78,39
167,157.60,150.94,39
168,157.81,151.11,39
177,158.19,151.37,39
180,158.63,151.65,39
174,158.94,151.88,39
171,159.18,152.07,39
179,159.57,152.34,39
186,160.10,152.68,39
179,160.48,152.94,39
174,160.75,153.15,39
177,161.08,153.39,39
180,161.45,153.65,39
180,161.83,153.92,39
181,162.21,154.19,39
179,162.55,154.44,39
180,162.89,154.69,39
179,163.22,154.93,39
178,163.51,155.17,39
180,163.84,155.41,39
189,164.35,155.75,39
185,164.76,156.04,39
179,165.04,156.27,39
189,165.52,156.60,39
193,166.07,156.96,39
195,166.65,157.34,39
191,167.14,157.68,39
198,167.75,158.08,39
192,168.24,158.42,39
189,168.65,158.73,39
199,169.26,159.13,39
201,169.90,159.55,39
197,170.44,159.92,39
193,170.89,160.25,39
198,171.43,160.63,39
204,172.08,161.07,39
204,172.72,161.50,39
196,173.19,161.84,39
194,173.60,162.16,39
194,174.01,162.48,39
196,174.45,162.82,39
194,174.84,163.13,39
201,175.37,163.51,39
207,176.00,163.94,39
202,176.52,164.32,39
203,177.05,164.71,39
195,177.41,165.01,39
196,177.78,165.32,39
195,178.12,165.62,39
198,178.52,165.94,39
200,178.95,166.28,39
204,179.45,166.66,39
200,179.86,166.99,39
202,180.30,167.34,39
208,180.86,167.75,39
209,181.42,168.16,39
201,181.81,168.49,39
215,182.48,168.96,39
220,183.23,169.47,39
210,183.76,169.87,39
207,184.23,170.24,39
206,184.66,170.60,39
206,185.09,170.95,39
216,185.71,171.40,39
217,186.33,171.86,39
213,186.87,172.27,39
209,187.31,172.64,39
211,187.78,173.02,39
212,188.27,173.41,39
211,188.72,173.79,39
215,189.25,174.20,39
209,189.64,174.55,39
214,190.13,174.94,39
218,190.69,175.37,39
218,191.23,175.80,39
212,191.65,176.16,39
218,192.18,176.58,39
220,192.73,177.01,39
219,193.26,177.43,39
218,193.75,177.84,39
217,194.22,178.23,39
221,194.75,178.66,39
216,195.18,179.03,39
220,195.67,179.44,39
224,196.24,179.89,39
218,196.68,180.27,39
223,197.20,180.70,39
224,197.74,181.13,39
221,198.20,181.53,39
229,198.82,182.00,39
230,199.44,182.48,39
224,199.93,182.90,39
224,200.42,183.31,39
231,201.03,183.79,39
225,201.51,184.20,39
234,202.16,184.70,39
233,202.77,185.18,39
230,203.32,185.63,39
230,203.85,186.07,39
227,204.32,186.48,39
227,204.77,186.89,39
232,205.31,187.34,39
229,205.79,187.75,39
228,206.23,188.16,39
228,206.67,188.55,39
227,207.07,188.94,39
225,207.43,189.30,39
226,207.80,189.67,39
226,208.17,190.03,39
228,208.56,190.41,39
232,209.03,190.83,39
235,209.55,191.27,39
227,209.90,191.62,39
235,210.40,192.06,39
232,210.83,192.46,39
235,211.32,192.88,39
230,211.69,193.25,39
228,212.02,193.60,39
228,212.34,193.95,39
229,212.67,194.30,39
229,213.00,194.64,39
231,213.36,195.01,39
227,213.63,195.33,39
228,213.92,195.65,39
228,214.20,195.98,39
229,214.50,196.31,39
228,214.77,196.62,39
227,215.01,196.93,39
226,215.23,197.22,39
227,215.47,197.52,39
226,215.68,197.80,39
227,215.90,198.09,39
226,216.10,198.37,39
225,216.28,198.64,39
224,216.44,198.89,39
225,216.61,199.15,39
226,216.80,199.42,39
227,217.00,199.70,39
230,217.26,200.00,39
224,217.39,200.24,39
226,217.57,200.50,39
223,217.68,200.72,39
223,217.78,200.95,39
223,217.89,201.17,39
223,217.99,201.38,39
223,218.09,201.60,39
222,218.17,201.81,39
223,218.26,202.02,39
221,218.32,202.21,39
221,218.37,202.39,39
220,218.40,202.57,39
222,218.48,202.77,39
220,218.51,202.94,39
220,218.54,203.11,39
219,218.55,203.27,39
218,218.54,203.41,39
218,218.52,203.56,39
219,218.53,203.71,39
218,218.52,203.86,39
219,218.53,204.01,39
218,218.52,204.15,39
219,218.53,204.30,39
217,218.50,204.42,39
217,218.47,204.55,39
218,218.46,204.68,39
218,218.45,204.82,39
216,218.40,204.93,39
217,218.38,205.05,39
218,218.37,205.18,39
218,218.36,205.31,39
215,218.29,205.40,39
214,218.21,205.49,39
214,218.12,205.58,39
217,218.10,205.69,39
213,218.00,205.76,39
214,217.92,205.85,39
214,217.84,205.93,39
215,217.78,206.02,39
212,217.67,206.08,39
212,217.55,206.14,39
211,217.42,206.19,39
213,217.34,206.25,39
213,217.25,206.32,39
212,217.14,206.38,39
211,217.02,206.42,39
211,216.90,206.47,39
210,216.76,206.51,39
209,216.61,206.53,39
209,216.45,206.55,39
208,216.29,206.57,39
209,216.14,206.59,39
207,215.96,206.60,39
207,215.78,206.60,39
207,215.60,206.61,39
207,215.43,206.61,39
206,215.24,206.60,39
207,215.08,206.61,39
206,214.90,206.60,39
205,214.70,206.59,39
205,214.50,206.57,39
205,214.31,206.55,39
205,214.13,206.54,39
203,213.90,206.50,39
204,213.71,206.48,39
204,213.51,206.45,39
204,213.32,206.43,39
202,213.10,206.38,39
202,212.87,206.34,39
202,212.66,206.30,39
203,212.46,206.26,39
203,212.27,206.23,39
201,212.05,206.18,39
202,211.85,206.14,39
201,211.63,206.09,39
201,211.42,206.04,39
200,211.19,205.97,39
200,210.97,205.92,39
200,210.75,205.86,39
198,210.49,205.78,39
199,210.26,205.71,39
199,210.04,205.64,39
199,209.82,205.58,39
200,209.62,205.52,39
200,209.43,205.47,39
