Teste de posicionamento 1.1(EMG ao centro do bíceps (Verde A, Vermelho B) + Ref no pulso) - 19/10/2024 - teste7 - 5 contrações
long frequencia = 1000;                 //frequência de aquisição do sinal, neste caso, 1000 sinais por segundo
float fator1 = 0.02, fator2 = 0.01;
float incerteza = 0.13;
float pico_basal = 130; // Mínimo para ser considerado um pico de contração
int filtro_horizontal=200000; //intervalo de 200ms valores não pode ter mais de 1 contração

Biceps_D,mediaMovel_1,mediaMovel_2,Contracao
127,2.54,1.27,0
128,5.05,2.54,0
129,7.53,3.80,0
130,9.98,5.06,0
128,12.34,6.29,0
128,14.65,7.51,0
128,16.92,8.72,0
128,19.14,9.91,0
128,21.32,11.09,0
128,23.45,12.26,0
127,25.52,13.41,0
129,27.59,14.56,0
128,29.60,15.70,0
128,31.57,16.82,0
129,33.52,17.94,0
128,35.41,19.04,0
128,37.26,20.13,0
127,39.05,21.20,0
127,40.81,22.26,0
128,42.56,23.32,0
128,44.26,24.36,0
128,45.94,25.40,0
128,47.58,26.42,0
128,49.19,27.44,0
127,50.74,28.44,0
127,52.27,29.42,0
127,53.76,30.40,0
127,55.23,31.36,0
128,56.68,32.33,0
129,58.13,33.30,0
127,59.51,34.23,0
127,60.86,35.16,0
126,62.16,36.07,0
127,63.46,36.98,0
125,64.69,37.86,0
127,65.93,38.75,0
127,67.16,39.63,0
127,68.35,40.51,0
130,69.59,41.40,0
127,70.73,42.26,0
125,71.82,43.08,0
125,72.88,43.90,0
126,73.95,44.72,0
124,74.95,45.52,0
126,75.97,46.32,0
126,76.97,47.12,0
127,77.97,47.92,0
127,78.95,48.71,0
125,79.87,49.47,0
125,80.77,50.23,0
125,81.66,50.97,0
127,82.56,51.73,0
127,83.45,52.49,0
128,84.34,53.24,0
125,85.16,53.96,0
125,85.95,54.67,0
125,86.74,55.37,0
125,87.50,56.07,0
125,88.25,56.76,0
127,89.03,57.46,0
125,89.74,58.14,0
125,90.45,58.81,0
125,91.14,59.47,0
125,91.82,60.12,0
126,92.50,60.78,0
125,93.15,61.42,0
125,93.79,62.06,0
125,94.41,62.69,0
125,95.02,63.31,0
125,95.62,63.93,0
125,96.21,64.54,0
125,96.79,65.14,0
125,97.35,65.74,0
125,97.90,66.34,0
124,98.43,66.91,0
123,98.92,67.47,0
127,99.48,68.07,0
124,99.97,68.63,0
123,100.43,69.17,0
124,100.90,69.72,0
124,101.36,70.26,0
123,101.80,70.79,0
124,102.24,71.32,0
122,102.64,71.83,0
124,103.06,72.35,0
122,103.44,72.85,0
123,103.83,73.35,0
124,104.24,73.86,0
124,104.63,74.36,0
124,105.02,74.85,0
124,105.40,75.34,0
124,105.77,75.83,0
123,106.12,76.30,0
124,106.47,76.78,0
123,106.80,77.24,0
123,107.13,77.70,0
123,107.45,78.15,0
122,107.74,78.59,0
123,108.04,79.04,0
123,108.34,79.47,0
123,108.63,79.91,0
122,108.90,80.33,0
123,109.18,80.76,0
122,109.44,81.17,0
124,109.73,81.60,0
122,109.98,82.00,0
123,110.24,82.41,0
123,110.49,82.82,0
123,110.74,83.22,0
122,110.97,83.61,0
124,111.23,84.01,0
122,111.44,84.39,0
122,111.65,84.77,0
122,111.86,85.14,0
124,112.10,85.53,0
122,112.30,85.89,0
123,112.52,86.26,0
122,112.71,86.62,0
124,112.93,87.00,0
122,113.11,87.35,0
122,113.29,87.69,0
123,113.48,88.05,0
121,113.64,88.37,0
122,113.80,88.71,0
123,113.99,89.05,0
122,114.15,89.38,0
122,114.30,89.71,0
123,114.48,90.04,0
122,114.63,90.36,0
122,114.78,90.68,0
124,114.96,91.01,0
122,115.10,91.32,0
123,115.26,91.64,0
124,115.43,91.96,0
122,115.57,92.26,0
124,115.73,92.58,0
123,115.88,92.88,0
122,116.00,93.18,0
122,116.12,93.46,0
122,116.24,93.75,0
123,116.37,94.04,0
122,116.49,94.32,0
122,116.60,94.60,0
122,116.71,94.87,0
122,116.81,95.14,0
122,116.91,95.41,0
122,117.02,95.68,0
121,117.10,95.93,0
121,117.17,96.18,0
122,117.27,96.44,0
122,117.37,96.70,0
122,117.46,96.95,0
122,117.55,97.20,0
121,117.62,97.44,0
121,117.69,97.67,0
121,117.75,97.91,0
122,117.84,98.15,0
120,117.88,98.37,0
121,117.94,98.59,0
120,117.98,98.81,0
121,118.04,99.03,0
122,118.12,99.26,0
123,118.22,99.49,0
120,118.26,99.70,0
121,118.31,99.91,0
122,118.38,100.13,0
121,118.44,100.34,0
122,118.51,100.56,0
120,118.54,100.75,0
121,118.59,100.96,0
121,118.64,101.16,0
121,118.68,101.35,0
119,118.69,101.53,0
120,118.72,101.72,0
121,118.76,101.91,0
120,118.79,102.09,0
121,118.83,102.28,0
122,118.89,102.48,0
120,118.92,102.65,0
120,118.94,102.82,0
120,118.96,103.00,0
120,118.98,103.17,0
120,119.00,103.33,0
120,119.02,103.50,0
120,119.04,103.67,0
120,119.06,103.83,0
120,119.08,103.99,0
119,119.08,104.14,0
121,119.11,104.31,0
120,119.13,104.47,0
120,119.15,104.62,0
120,119.17,104.78,0
119,119.16,104.92,0
120,119.18,105.07,0
120,119.20,105.22,0
119,119.19,105.36,0
119,119.19,105.49,0
120,119.20,105.64,0
120,119.22,105.78,0
121,119.26,105.93,0
120,119.27,106.07,0
120,119.29,106.21,0
119,119.28,106.34,0
121,119.31,106.49,0
119,119.31,106.61,0
121,119.34,106.76,0
119,119.34,106.88,0
119,119.33,107.00,0
120,119.34,107.13,0
120,119.36,107.26,0
119,119.35,107.38,0
119,119.34,107.49,0
119,119.33,107.61,0
119,119.33,107.72,0
120,119.34,107.84,0
119,119.33,107.96,0
119,119.33,108.07,0
119,119.32,108.18,0
120,119.33,108.29,0
119,119.33,108.40,0
120,119.34,108.52,0
119,119.33,108.62,0
119,119.33,108.73,0
119,119.32,108.83,0
119,119.31,108.93,0
119,119.31,109.03,0
119,119.30,109.13,0
117,119.26,109.21,0
119,119.25,109.31,0
117,119.21,109.38,0
119,119.20,109.48,0
119,119.20,109.58,0
119,119.19,109.67,0
118,119.17,109.75,0
118,119.15,109.84,0
119,119.14,109.93,0
118,119.12,110.01,0
119,119.12,110.10,0
117,119.08,110.17,0
117,119.03,110.24,0
118,119.01,110.31,0
118,118.99,110.39,0
117,118.95,110.46,0
119,118.95,110.54,0
117,118.92,110.61,0
117,118.88,110.67,0
118,118.86,110.74,0
117,118.82,110.81,0
118,118.81,110.88,0
117,118.77,110.94,0
117,118.73,111.00,0
117,118.70,111.06,0
117,118.67,111.12,0
117,118.63,111.18,0
117,118.60,111.24,0
117,118.57,111.29,0
117,118.54,111.35,0
117,118.51,111.41,0
118,118.50,111.47,0
117,118.47,111.53,0
116,118.42,111.57,0
117,118.39,111.63,0
117,118.36,111.68,0
117,118.33,111.73,0
116,118.29,111.78,0
116,118.24,111.82,0
116,118.20,111.86,0
117,118.17,111.91,0
115,118.11,111.94,0
117,118.09,111.99,0
115,118.02,112.02,0
115,117.96,112.05,0
115,117.90,112.08,0
115,117.85,112.11,0
115,117.79,112.14,0
117,117.77,112.19,0
116,117.74,112.23,0
116,117.70,112.27,0
116,117.67,112.30,0
115,117.62,112.33,0
116,117.58,112.37,0
115,117.53,112.39,0
116,117.50,112.43,0
115,117.45,112.45,0
116,117.42,112.49,0
115,117.37,112.52,0
116,117.35,112.55,0
116,117.32,112.58,0
115,117.27,112.61,0
116,117.25,112.64,0
117,117.24,112.69,0
116,117.22,112.72,0
116,117.19,112.75,0
116,117.17,112.78,0
115,117.13,112.81,0
115,117.08,112.83,0
117,117.08,112.87,0
116,117.06,112.90,0
115,117.02,112.92,0
116,117.00,112.95,0
115,116.96,112.97,0
117,116.96,113.01,0
115,116.92,113.03,0
113,116.84,113.03,0
115,116.81,113.05,0
115,116.77,113.07,0
115,116.73,113.09,0
116,116.72,113.12,0
115,116.68,113.14,0
115,116.65,113.16,0
115,116.62,113.18,0
115,116.59,113.20,0
115,116.55,113.21,0
114,116.50,113.22,0
115,116.47,113.24,0
115,116.44,113.26,0
115,116.41,113.27,0
115,116.39,113.29,0
116,116.38,113.32,0
115,116.35,113.34,0
115,116.32,113.35,0
114,116.28,113.36,0
115,116.25,113.37,0
115,116.23,113.39,0
115,116.20,113.41,0
113,116.14,113.40,0
113,116.08,113.40,0
115,116.05,113.42,0
114,116.01,113.42,0
115,115.99,113.44,0
114,115.95,113.44,0
113,115.89,113.44,0
114,115.86,113.44,0
113,115.80,113.44,0
114,115.76,113.44,0
114,115.73,113.45,0
114,115.69,113.46,0
114,115.66,113.46,0
114,115.63,113.47,0
115,115.61,113.48,0
114,115.58,113.49,0
114,115.55,113.49,0
113,115.50,113.49,0
114,115.47,113.49,0
114,115.44,113.50,0
114,115.41,113.50,0
113,115.36,113.50,0
113,115.32,113.49,0
113,115.27,113.49,0
113,115.22,113.48,0
113,115.18,113.48,0
114,115.16,113.48,0
114,115.13,113.49,0
114,115.11,113.49,0
115,115.11,113.51,0
113,115.07,113.50,0
115,115.06,113.52,0
113,115.02,113.51,0
115,115.02,113.53,0
113,114.98,113.52,0
118,115.04,113.57,0
114,115.02,113.57,0
114,115.00,113.58,0
113,114.96,113.57,0
114,114.94,113.57,0
114,114.92,113.58,0
115,114.92,113.59,0
115,114.93,113.61,0
115,114.93,113.62,0
115,114.93,113.63,0
114,114.91,113.64,0
116,114.93,113.66,0
113,114.89,113.66,0
115,114.90,113.67,0
114,114.88,113.67,0
114,114.86,113.68,0
112,114.80,113.66,0
114,114.79,113.66,0
113,114.75,113.66,0
113,114.72,113.65,0
113,114.68,113.64,0
113,114.65,113.64,0
114,114.64,113.64,0
113,114.60,113.63,0
113,114.57,113.63,0
113,114.54,113.62,0
114,114.53,113.62,0
113,114.50,113.62,0
115,114.51,113.63,0
113,114.48,113.63,0
113,114.45,113.62,0
113,114.42,113.61,0
114,114.41,113.62,0
113,114.38,113.61,0
113,114.35,113.60,0
113,114.33,113.60,0
113,114.30,113.59,0
113,114.28,113.59,0
113,114.25,113.58,0
114,114.24,113.59,0
113,114.22,113.58,0
113,114.20,113.57,0
113,114.17,113.57,0
115,114.19,113.58,0
113,114.16,113.58,0
113,114.14,113.57,0
113,114.12,113.56,0
113,114.10,113.56,0
113,114.07,113.55,0
114,114.07,113.56,0
113,114.05,113.55,0
113,114.03,113.55,0
113,114.01,113.54,0
113,113.99,113.54,0
111,113.93,113.51,0
111,113.87,113.49,0
111,113.81,113.46,0
112,113.78,113.45,0
113,113.76,113.44,0
112,113.73,113.43,0
112,113.69,113.41,0
113,113.68,113.41,0
113,113.66,113.40,0
113,113.65,113.40,0
112,113.62,113.39,0
112,113.59,113.37,0
113,113.57,113.37,0
113,113.56,113.37,0
113,113.55,113.36,0
115,113.58,113.38,0
113,113.57,113.37,0
114,113.58,113.38,0
113,113.57,113.38,0
114,113.57,113.38,0
113,113.56,113.38,0
115,113.59,113.40,0
113,113.58,113.39,0
115,113.61,113.41,0
114,113.62,113.41,0
113,113.60,113.41,0
113,113.59,113.41,0
115,113.62,113.42,0
113,113.61,113.42,0
114,113.62,113.42,0
113,113.60,113.42,0
113,113.59,113.41,0
115,113.62,113.43,0
114,113.63,113.44,0
114,113.63,113.44,0
115,113.66,113.46,0
115,113.69,113.47,0
114,113.69,113.48,0
114,113.70,113.48,0
113,113.69,113.48,0
115,113.71,113.49,0
113,113.70,113.49,0
116,113.74,113.51,0
115,113.77,113.53,0
115,113.79,113.54,0
115,113.82,113.56,0
114,113.82,113.56,0
113,113.81,113.56,0
114,113.81,113.56,0
115,113.83,113.58,0
115,113.86,113.59,0
115,113.88,113.60,0
115,113.90,113.62,0
116,113.94,113.64,0
116,113.99,113.67,0
117,114.05,113.70,0
115,114.06,113.71,0
118,114.14,113.75,0
117,114.20,113.79,0
118,114.28,113.83,0
117,114.33,113.86,0
117,114.38,113.89,0
117,114.44,113.92,0
117,114.49,113.95,0
117,114.54,113.98,0
117,114.59,114.01,0
117,114.64,114.04,0
117,114.68,114.07,0
117,114.73,114.10,0
117,114.77,114.13,0
117,114.82,114.16,0
117,114.86,114.19,0
119,114.95,114.24,0
119,115.03,114.29,0
119,115.11,114.33,0
119,115.18,114.38,0
119,115.26,114.43,0
117,115.30,114.45,0
118,115.35,114.49,0
119,115.42,114.53,0
118,115.47,114.57,0
119,115.54,114.61,0
118,115.59,114.64,0
119,115.66,114.69,0
119,115.73,114.73,0
117,115.75,114.75,0
119,115.82,114.80,0
121,115.92,114.86,0
121,116.02,114.92,0
120,116.10,114.97,0
122,116.22,115.04,0
122,116.34,115.11,0
123,116.47,115.19,0
125,116.64,115.29,0
124,116.79,115.37,0
127,116.99,115.49,0
125,117.15,115.59,0
125,117.31,115.68,0
126,117.48,115.78,0
125,117.63,115.88,0
125,117.78,115.97,0
125,117.93,116.06,0
125,118.07,116.15,0
124,118.19,116.22,0
126,118.34,116.32,0
125,118.47,116.41,0
125,118.61,116.50,0
123,118.69,116.56,0
125,118.82,116.64,0
124,118.92,116.72,0
124,119.02,116.79,0
124,119.12,116.86,0
123,119.20,116.92,0
125,119.32,117.01,0
125,119.43,117.09,0
125,119.54,117.16,0
125,119.65,117.24,0
126,119.78,117.33,0
125,119.88,117.41,0
125,119.99,117.48,0
125,120.09,117.56,0
124,120.16,117.62,0
125,120.26,117.70,0
125,120.36,117.77,0
125,120.45,117.84,0
126,120.56,117.92,0
127,120.69,118.01,0
127,120.81,118.10,0
127,120.94,118.19,0
128,121.08,118.29,0
128,121.22,118.39,0
127,121.33,118.47,0
127,121.45,118.56,0
127,121.56,118.64,0
127,121.67,118.73,0
127,121.77,118.81,0
129,121.92,118.91,0
129,122.06,119.01,0
129,122.20,119.11,0
129,122.33,119.21,0
130,122.49,119.32,0
129,122.62,119.42,0
129,122.75,119.51,0
129,122.87,119.61,0
129,122.99,119.70,0
130,123.13,119.80,0
130,123.27,119.91,0
130,123.41,120.01,0
130,123.54,120.11,0
129,123.65,120.20,0
127,123.71,120.26,0
131,123.86,120.37,0
131,124.00,120.48,0
131,124.14,120.58,0
131,124.28,120.69,0
132,124.43,120.80,0
131,124.57,120.90,0
131,124.69,121.00,0
131,124.82,121.10,0
131,124.94,121.20,0
129,125.02,121.28,0
131,125.14,121.38,0
132,125.28,121.48,0
131,125.40,121.58,0
132,125.53,121.68,0
131,125.64,121.78,0
133,125.78,121.89,0
133,125.93,122.00,0
133,126.07,122.11,0
133,126.21,122.22,0
133,126.34,122.33,0
131,126.44,122.41,0
134,126.59,122.53,0
133,126.72,122.63,0
133,126.84,122.74,0
133,126.97,122.84,0
133,127.09,122.94,0
134,127.22,123.05,0
134,127.36,123.16,0
134,127.49,123.27,0
134,127.62,123.38,0
133,127.73,123.47,0
133,127.84,123.57,0
133,127.94,123.66,0
133,128.04,123.76,0
134,128.16,123.86,0
134,128.28,123.96,0
134,128.39,124.06,0
133,128.48,124.15,0
135,128.61,124.26,0
137,128.78,124.39,0
137,128.95,124.51,0
137,129.11,124.64,0
138,129.28,124.77,0
138,129.46,124.90,0
139,129.65,125.04,0
140,129.86,125.19,0
139,130.04,125.33,0
140,130.24,125.48,0
139,130.41,125.61,0
141,130.63,125.77,0
141,130.83,125.92,0
143,131.08,126.09,0
142,131.30,126.25,0
143,131.53,126.42,0
139,131.68,126.54,0
143,131.91,126.71,0
143,132.13,126.87,0
144,132.36,127.04,0
143,132.58,127.20,0
145,132.83,127.38,0
144,133.05,127.55,0
144,133.27,127.71,0
145,133.50,127.88,0
145,133.73,128.05,0
145,133.96,128.22,0
145,134.18,128.39,0
145,134.40,128.56,0
146,134.63,128.73,0
146,134.85,128.90,0
147,135.10,129.09,0
148,135.36,129.27,0
148,135.61,129.46,0
148,135.86,129.65,0
148,136.10,129.83,0
148,136.34,130.01,0
148,136.57,130.19,0
148,136.80,130.37,0
149,137.04,130.56,0
150,137.30,130.75,0
152,137.60,130.96,0
153,137.90,131.18,0
153,138.21,131.40,0
153,138.50,131.62,0
152,138.77,131.82,0
153,139.06,132.03,0
153,139.34,132.24,0
153,139.61,132.45,0
156,139.94,132.69,0
155,140.24,132.91,0
156,140.55,133.14,0
156,140.86,133.37,0
156,141.16,133.60,0
157,141.48,133.83,0
163,141.91,134.12,0
159,142.25,134.37,0
159,142.59,134.62,0
159,142.92,134.86,0
159,143.24,135.10,0
161,143.59,135.36,0
161,143.94,135.62,0
161,144.28,135.87,0
161,144.62,136.12,0
161,144.95,136.37,0
160,145.25,136.61,0
161,145.56,136.85,0
161,145.87,137.09,0
163,146.21,137.35,0
164,146.57,137.62,0
165,146.94,137.89,0
164,147.28,138.15,0
167,147.67,138.44,0
168,148.08,138.74,0
167,148.46,139.02,0
167,148.83,139.30,0
168,149.21,139.59,0
167,149.57,139.86,0
168,149.94,140.14,0
169,150.32,140.43,0
168,150.67,140.71,0
171,151.08,141.01,0
171,151.48,141.31,0
171,151.87,141.61,0
173,152.29,141.92,0
173,152.70,142.23,0
174,153.13,142.55,0
175,153.57,142.87,0
177,154.04,143.21,0
177,154.49,143.55,0
177,154.95,143.89,0
177,155.39,144.22,0
180,155.88,144.58,0
179,156.34,144.92,0
181,156.83,145.28,0
183,157.36,145.66,0
184,157.89,146.04,0
182,158.37,146.40,0
185,158.90,146.79,0
187,159.47,147.19,0
189,160.06,147.61,0
189,160.64,148.02,0
190,161.22,148.44,0
189,161.78,148.85,0
190,162.34,149.26,0
191,162.92,149.68,0
191,163.48,150.09,0
192,164.05,150.51,0
195,164.67,150.95,0
196,165.29,151.40,0
197,165.93,151.86,0
197,166.55,152.31,0
199,167.20,152.78,0
203,167.92,153.28,0
204,168.64,153.79,0
205,169.36,154.30,0
204,170.06,154.80,0
205,170.76,155.30,0
206,171.46,155.80,0
209,172.21,156.34,0
211,172.99,156.88,0
213,173.79,157.44,0
213,174.57,158.00,0
214,175.36,158.56,0
217,176.19,159.14,0
218,177.03,159.73,0
217,177.83,160.31,0
217,178.61,160.87,0
219,179.42,161.45,0
217,180.17,162.01,0
219,180.95,162.58,0
219,181.71,163.14,0
218,182.43,163.69,0
219,183.17,164.25,0
220,183.90,164.80,0
219,184.60,165.34,0
219,185.29,165.88,0
220,185.99,166.42,0
224,186.75,167.00,0
224,187.49,167.57,0
225,188.24,168.14,0
225,188.98,168.71,0
226,189.72,169.28,0
229,190.50,169.88,0
226,191.21,170.44,0
227,191.93,171.01,0
227,192.63,171.57,0
227,193.32,172.12,0
227,193.99,172.67,0
228,194.67,173.22,0
227,195.32,173.76,0
228,195.97,174.30,0
227,196.59,174.83,0
227,197.20,175.35,0
227,197.80,175.87,0
229,198.42,176.40,0
232,199.09,176.96,0
234,199.79,177.53,0
235,200.49,178.10,0
235,201.18,178.67,0
239,201.94,179.27,0
240,202.70,179.88,0
244,203.53,180.52,0
244,204.34,181.16,0
244,205.13,181.79,0
246,205.95,182.43,0
250,206.83,183.10,0
251,207.71,183.78,0
250,208.56,184.45,0
253,209.45,185.13,0
255,210.36,185.83,0
258,211.31,186.55,0
260,212.29,187.29,0
261,213.26,188.02,0
260,214.19,188.74,0
263,215.17,189.49,0
264,216.15,190.23,0
267,217.16,191.00,0
266,218.14,191.75,0
265,219.08,192.48,0
266,220.02,193.22,0
266,220.94,193.94,0
267,221.86,194.67,0
269,222.80,195.42,0
268,223.70,196.14,0
270,224.63,196.88,0
269,225.52,197.60,0
269,226.39,198.32,0
270,227.26,199.03,0
272,228.15,199.76,0
273,229.05,200.50,0
273,229.93,201.22,0
273,230.79,201.94,0
274,231.66,202.66,0
276,232.54,203.39,0
275,233.39,204.11,0
277,234.26,204.84,0
277,235.12,205.56,0
280,236.02,206.30,0
280,236.90,207.04,0
282,237.80,207.79,0
284,238.72,208.55,0
283,239.61,209.30,0
287,240.56,210.07,0
288,241.50,210.85,0
285,242.37,211.59,0
287,243.27,212.35,0
287,244.14,213.10,0
287,245.00,213.83,0
289,245.88,214.59,0
289,246.74,215.33,0
290,247.61,216.08,0
291,248.47,216.83,0
291,249.32,217.57,0
291,250.16,218.30,0
290,250.96,219.02,0
291,251.76,219.74,0
291,252.54,220.45,0
294,253.37,221.19,0
295,254.20,221.92,0
296,255.04,222.67,0
296,255.86,223.40,0
297,256.68,224.14,0
299,257.53,224.88,0
300,258.38,225.63,0
299,259.19,226.37,0
301,260.03,227.11,0
300,260.82,227.84,0
300,261.61,228.57,0
299,262.36,229.27,0
300,263.11,229.98,0
299,263.83,230.67,0
303,264.61,231.39,0
301,265.34,232.09,0
305,266.13,232.82,0
307,266.95,233.56,0
308,267.77,234.30,0
309,268.59,235.05,0
311,269.44,235.81,0
311,270.27,236.56,0
312,271.11,237.31,0
315,271.99,238.09,0
317,272.89,238.88,0
319,273.81,239.68,0
319,274.71,240.48,0
319,275.60,241.26,0
319,276.47,242.04,0
323,277.40,242.85,0
324,278.33,243.66,0
323,279.22,244.45,0
326,280.16,245.27,0
327,281.09,246.09,0
330,282.07,246.92,0
329,283.01,247.75,0
329,283.93,248.56,0
330,284.85,249.37,0
331,285.78,250.19,0
332,286.70,251.01,0
333,287.63,251.83,0
332,288.51,252.63,0
332,289.38,253.42,0
331,290.22,254.20,0
332,291.05,254.98,0
331,291.85,255.74,0
333,292.67,256.51,0
333,293.48,257.27,0
334,294.29,258.04,0
335,295.10,258.81,0
336,295.92,259.58,0
338,296.76,260.37,0
338,297.59,261.14,0
339,298.42,261.92,0
341,299.27,262.71,0
342,300.12,263.51,0
342,300.96,264.29,0
342,301.78,265.07,0
342,302.59,265.84,0
342,303.37,266.60,0
341,304.13,267.34,0
342,304.88,268.09,0
340,305.59,268.81,0
340,306.27,269.52,0
340,306.95,270.22,0
339,307.59,270.91,0
339,308.22,271.59,0
338,308.81,272.26,0
337,309.38,272.90,0
337,309.93,273.55,0
337,310.47,274.18,0
336,310.98,274.80,0
337,311.50,275.42,0
336,311.99,276.03,0
336,312.47,276.63,0
335,312.92,277.21,0
335,313.36,277.79,0
334,313.78,278.35,0
333,314.16,278.90,0
333,314.54,279.44,0
332,314.89,279.96,0
333,315.25,280.49,0
332,315.59,281.01,0
333,315.93,281.53,0
331,316.23,282.02,0
331,316.53,282.51,0
331,316.82,283.00,0
330,317.08,283.47,0
329,317.32,283.92,0
330,317.58,284.38,0
330,317.82,284.84,0
331,318.09,285.30,0
330,318.33,285.75,0
331,318.58,286.20,0
330,318.81,286.64,0
332,319.07,287.09,0
331,319.31,287.53,0
332,319.56,287.98,0
332,319.81,288.42,0
332,320.06,288.85,0
331,320.27,289.27,0
331,320.49,289.69,0
331,320.70,290.10,0
330,320.89,290.50,0
330,321.07,290.90,0
329,321.23,291.28,0
329,321.38,291.66,0
328,321.51,292.02,0
328,321.64,292.38,0
327,321.75,292.73,0
325,321.82,293.05,0
325,321.88,293.37,0
325,321.94,293.68,0
325,322.00,294.00,0
325,322.06,294.31,0
325,322.12,294.61,0
323,322.14,294.90,0
323,322.16,295.18,0
322,322.15,295.45,0
322,322.15,295.71,0
322,322.15,295.98,0
321,322.12,296.23,0
321,322.10,296.47,0
321,322.08,296.72,0
322,322.08,296.97,0
321,322.06,297.21,0
319,322.00,297.43,0
320,321.96,297.66,0
319,321.90,297.87,0
318,321.82,298.07,0
317,321.72,298.26,0
318,321.65,298.46,0
316,321.54,298.63,0
317,321.44,298.82,0
316,321.34,298.99,0
319,321.29,299.19,0
316,321.18,299.36,0
315,321.06,299.51,0
315,320.94,299.67,0
315,320.82,299.82,0
314,320.68,299.96,0
313,320.53,300.09,0
313,320.38,300.22,0
313,320.23,300.35,0
313,320.09,300.48,0
312,319.93,300.59,0
311,319.75,300.70,0
311,319.57,300.80,0
311,319.40,300.90,0
311,319.23,301.00,0
310,319.05,301.09,0
309,318.85,301.17,0
309,318.65,301.25,0
310,318.48,301.34,0
309,318.29,301.41,0
309,318.10,301.49,0
308,317.90,301.55,0
309,317.72,301.63,0
307,317.51,301.68,0
308,317.32,301.75,0
306,317.09,301.79,0
305,316.85,301.82,0
305,316.61,301.85,0
305,316.38,301.88,0
304,316.13,301.91,0
304,315.89,301.93,0
304,315.65,301.95,0
303,315.40,301.96,0
303,315.15,301.97,0
303,314.91,301.98,0
303,314.67,301.99,0
301,314.40,301.98,0
301,314.13,301.97,0
300,313.85,301.95,0
300,313.57,301.93,0
299,313.28,301.90,0
299,312.99,301.87,0
299,312.71,301.84,0
299,312.44,301.81,0
298,312.15,301.78,0
299,311.89,301.75,0
297,311.59,301.70,0
296,311.28,301.64,0
296,310.97,301.59,0
296,310.67,301.53,0
296,310.38,301.48,0
295,310.07,301.41,0
295,309.77,301.35,0
294,309.45,301.27,0
293,309.12,301.19,0
293,308.80,301.11,0
294,308.51,301.04,0
292,308.18,300.95,0
292,307.85,300.86,0
292,307.54,300.77,0
292,307.22,300.68,0
291,306.90,300.59,0
290,306.56,300.48,0
290,306.23,300.37,0
289,305.89,300.26,0
289,305.55,300.15,0
289,305.22,300.04,0
289,304.89,299.93,0
288,304.56,299.81,0
287,304.20,299.68,0
287,303.86,299.55,0
287,303.52,299.43,0
287,303.19,299.30,0
288,302.89,299.19,0
285,302.53,299.05,0
286,302.20,298.92,0
286,301.88,298.79,0
286,301.56,298.66,0
285,301.23,298.52,0
284,300.88,298.38,0
284,300.55,298.23,0
283,300.19,298.08,0
283,299.85,297.93,0
282,299.49,297.77,0
282,299.14,297.61,0
281,298.78,297.45,0
281,298.43,297.28,0
281,298.08,297.12,0
281,297.74,296.96,0
280,297.38,296.79,0
280,297.03,296.62,0
280,296.69,296.46,0
279,296.34,296.28,1
278,295.97,296.10,1
278,295.61,295.92,1
277,295.24,295.73,1
278,294.90,295.55,1
277,294.54,295.37,1
277,294.19,295.18,1
277,293.84,295.00,1
277,293.51,294.82,1
274,293.12,294.61,1
275,292.75,294.42,1
276,292.42,294.23,1
275,292.07,294.04,1
276,291.75,293.86,1
275,291.41,293.67,1
274,291.07,293.47,1
274,290.72,293.28,1
275,290.41,293.10,1
273,290.06,292.89,1
273,289.72,292.70,1
273,289.39,292.50,1
273,289.06,292.30,1
273,288.74,292.11,1
272,288.40,291.91,1
271,288.05,291.70,1
270,287.69,291.48,1
271,287.36,291.28,1
270,287.01,291.07,1
271,286.69,290.87,1
269,286.34,290.65,1
269,285.99,290.43,1
269,285.65,290.22,1
269,285.32,290.00,1
267,284.95,289.77,1
269,284.63,289.57,1
267,284.28,289.34,1
267,283.93,289.12,1
266,283.58,288.89,1
266,283.22,288.66,1
265,282.86,288.42,1
266,282.52,288.20,1
265,282.17,287.96,1
264,281.81,287.72,1
265,281.47,287.50,1
263,281.10,287.25,1
264,280.76,287.02,1
262,280.39,286.77,1
262,280.02,286.52,1
261,279.64,286.27,1
263,279.31,286.03,1
261,278.94,285.78,1
261,278.58,285.54,1
261,278.23,285.29,1
260,277.86,285.04,1
261,277.53,284.80,1
260,277.18,284.55,1
259,276.81,284.29,1
263,276.54,284.08,1
259,276.19,283.83,1
258,275.82,283.57,1
259,275.49,283.33,1
257,275.12,283.06,1
257,274.75,282.80,1
257,274.40,282.54,1
256,274.03,282.28,1
256,273.67,282.02,1
257,273.34,281.77,1
255,272.97,281.50,1
255,272.61,281.23,1
255,272.26,280.97,1
255,271.91,280.71,1
254,271.56,280.44,1
254,271.20,280.18,1
252,270.82,279.90,1
253,270.46,279.63,1
253,270.11,279.36,1
253,269.77,279.10,1
253,269.44,278.84,1
253,269.11,278.58,1
253,268.79,278.32,1
252,268.45,278.06,1
253,268.14,277.81,1
252,267.82,277.55,1
254,267.54,277.32,1
252,267.23,277.06,1
252,266.93,276.81,1
252,266.63,276.56,1
252,266.34,276.32,1
252,266.05,276.08,1
251,265.75,275.82,1
251,265.45,275.58,1
250,265.14,275.32,1
251,264.86,275.08,1
250,264.56,274.83,1
250,264.27,274.58,1
249,263.97,274.32,1
249,263.67,274.07,1
248,263.35,273.81,1
248,263.05,273.55,1
248,262.75,273.30,1
249,262.47,273.05,1
249,262.20,272.81,1
248,261.92,272.56,1
248,261.64,272.32,1
247,261.35,272.06,1
247,261.06,271.81,1
247,260.78,271.57,1
248,260.52,271.33,1
248,260.27,271.10,1
247,260.01,270.86,1
247,259.75,270.62,1
245,259.45,270.36,1
243,259.12,270.09,1
245,258.84,269.84,1
245,258.56,269.59,1
245,258.29,269.34,1
244,258.01,269.09,1
244,257.73,268.84,1
244,257.45,268.59,1
244,257.18,268.34,1
244,256.92,268.10,1
244,256.66,267.86,1
245,256.43,267.63,1
244,256.18,267.39,1
245,255.96,267.17,1
245,255.74,266.95,1
245,255.52,266.73,1
244,255.29,266.50,1
246,255.11,266.30,1
245,254.90,266.08,1
246,254.73,265.88,1
245,254.53,265.67,1
245,254.34,265.47,1
244,254.13,265.25,1
244,253.93,265.04,1
244,253.73,264.83,1
243,253.52,264.61,1
242,253.29,264.39,1
242,253.06,264.16,1
241,252.82,263.93,1
241,252.58,263.70,1
241,252.35,263.47,1
241,252.13,263.25,1
241,251.90,263.03,1
241,251.68,262.81,1
241,251.47,262.59,1
240,251.24,262.36,1
241,251.04,262.15,1
240,250.82,261.93,1
239,250.58,261.70,1
239,250.35,261.47,1
239,250.12,261.25,1
239,249.90,261.02,1
239,249.68,260.80,1
239,249.47,260.59,1
239,249.26,260.37,1
239,249.05,260.16,1
238,248.83,259.94,1
238,248.61,259.72,1
238,248.40,259.50,1
238,248.19,259.28,1
237,247.97,259.06,1
237,247.75,258.84,1
237,247.54,258.62,1
237,247.33,258.41,1
237,247.12,258.19,1
237,246.92,257.98,1
235,246.68,257.75,1
237,246.48,257.54,1
236,246.28,257.33,1
236,246.07,257.11,1
236,245.87,256.90,1
236,245.67,256.69,1
236,245.48,256.49,1
235,245.27,256.27,1
235,245.06,256.06,1
235,244.86,255.85,1
235,244.66,255.64,1
234,244.45,255.42,1
235,244.26,255.22,1
233,244.04,255.00,1
234,243.84,254.79,1
233,243.62,254.57,1
233,243.41,254.35,1
233,243.20,254.14,1
232,242.97,253.92,1
232,242.76,253.70,1
232,242.54,253.48,1
231,242.31,253.26,1
232,242.10,253.04,1
231,241.88,252.82,1
231,241.66,252.61,1
231,241.45,252.39,1
230,241.22,252.17,1
231,241.02,251.95,1
230,240.80,251.74,1
231,240.60,251.53,1
229,240.37,251.30,1
229,240.14,251.08,1
229,239.92,250.86,1
230,239.72,250.65,1
230,239.53,250.44,1
229,239.32,250.23,1
229,239.11,250.02,1
229,238.91,249.81,1
231,238.75,249.62,1
232,238.61,249.44,1
230,238.44,249.25,1
230,238.27,249.06,1
229,238.09,248.85,1
229,237.91,248.66,1
230,237.75,248.47,1
228,237.55,248.27,1
228,237.36,248.06,1
228,237.17,247.86,1
227,236.97,247.65,1
228,236.79,247.46,1
228,236.62,247.26,1
228,236.44,247.07,1
227,236.25,246.87,1
225,236.03,246.65,1
225,235.81,246.43,1
225,235.59,246.22,1
226,235.40,246.02,1
225,235.19,245.81,1
225,234.99,245.60,1
225,234.79,245.39,1
225,234.59,245.19,1
225,234.40,244.99,1
224,234.19,244.78,1
224,233.99,244.57,1
224,233.79,244.36,1
224,233.59,244.16,1
223,233.38,243.95,1
223,233.17,243.74,1
223,232.97,243.53,1
222,232.75,243.32,1
223,232.56,243.11,1
223,232.37,242.91,1
223,232.18,242.71,1
223,231.99,242.52,1
222,231.79,242.31,1
221,231.58,242.10,1
221,231.37,241.89,1
221,231.16,241.68,1
221,230.96,241.47,1
221,230.76,241.27,1
221,230.56,241.06,1
221,230.37,240.86,1
222,230.20,240.67,1
221,230.02,240.48,1
221,229.84,240.28,1
221,229.66,240.09,1
220,229.47,239.89,1
220,229.28,239.69,1
219,229.07,239.48,1
219,228.87,239.28,1
219,228.68,239.08,1
220,228.50,238.88,1
219,228.31,238.69,1
220,228.15,238.50,1
215,227.88,238.26,1
218,227.68,238.06,1
217,227.47,237.85,1
219,227.30,237.66,1
217,227.10,237.46,1
218,226.91,237.26,1
217,226.72,237.06,1
217,226.52,236.86,1
217,226.33,236.66,1
217,226.14,236.46,1
217,225.96,236.27,1
216,225.76,236.07,1
217,225.59,235.87,1
216,225.40,235.68,1
216,225.21,235.48,1
215,225.00,235.27,1
216,224.82,235.08,1
215,224.63,234.88,1
215,224.43,234.68,1
214,224.23,234.48,1
214,224.02,234.27,1
214,223.82,234.07,1
214,223.62,233.87,1
214,223.43,233.67,1
213,223.22,233.46,1
214,223.04,233.27,1
213,222.84,233.06,1
213,222.64,232.86,1
213,222.45,232.67,1
213,222.26,232.47,1
212,222.05,232.26,1
213,221.87,232.07,1
213,221.70,231.88,1
213,221.52,231.69,1
212,221.33,231.50,1
212,221.14,231.30,1
211,220.94,231.10,1
213,220.78,230.92,1
212,220.61,230.73,1
215,220.50,230.57,1
211,220.31,230.37,1
211,220.12,230.18,1
212,219.96,230.00,1
211,219.78,229.81,1
211,219.60,229.62,1
211,219.43,229.43,1
211,219.26,229.25,1
211,219.10,229.07,1
211,218.93,228.89,1
211,218.78,228.71,1
211,218.62,228.53,1
212,218.49,228.37,1
212,218.36,228.20,1
211,218.21,228.03,1
211,218.07,227.86,1
209,217.89,227.67,1
210,217.73,227.49,1
210,217.57,227.32,1
209,217.40,227.14,1
209,217.23,226.95,1
209,217.07,226.78,1
209,216.91,226.60,1
209,216.75,226.42,1
209,216.59,226.25,1
209,216.44,226.07,1
209,216.29,225.90,1
208,216.13,225.72,1
207,215.95,225.54,1
207,215.77,225.35,1
207,215.59,225.17,1
207,215.42,224.99,1
207,215.25,224.81,1
207,215.09,224.63,1
207,214.92,224.45,1
207,214.77,224.28,1
207,214.61,224.11,1
205,214.42,223.91,1
205,214.23,223.73,1
205,214.05,223.54,1
205,213.86,223.35,1
205,213.69,223.17,1
205,213.51,222.99,1
205,213.34,222.81,1
205,213.18,222.63,1
205,213.01,222.45,1
204,212.83,222.27,1
205,212.68,222.10,1
204,212.50,221.92,1
204,212.33,221.74,1
204,212.17,221.56,1
203,211.98,221.37,1
203,211.80,221.19,1
203,211.63,221.01,1
203,211.45,220.83,1
202,211.26,220.64,1
201,211.06,220.44,1
201,210.86,220.25,1
203,210.70,220.08,1
201,210.51,219.89,1
201,210.32,219.70,1
200,210.11,219.50,1
201,209.93,219.31,1
200,209.73,219.12,1
200,209.54,218.93,1
200,209.34,218.74,1
200,209.16,218.55,1
201,208.99,218.38,1
199,208.79,218.18,1
201,208.64,218.01,1
200,208.47,217.83,1
200,208.30,217.65,1
201,208.15,217.49,1
201,208.01,217.32,1
200,207.85,217.15,1
200,207.69,216.98,1
201,207.56,216.82,1
201,207.43,216.66,1
199,207.26,216.48,1
201,207.13,216.33,1
199,206.97,216.15,1
199,206.81,215.98,1
199,206.65,215.81,1
199,206.50,215.65,1
199,206.35,215.48,1
198,206.18,215.30,1
199,206.04,215.14,1
198,205.88,214.97,1
197,205.70,214.79,1
198,205.55,214.62,1
197,205.38,214.45,1
197,205.21,214.27,1
197,205.05,214.10,1
197,204.88,213.93,1
197,204.73,213.76,1
197,204.57,213.59,1
197,204.42,213.42,1
196,204.25,213.25,1
196,204.09,213.08,1
196,203.93,212.91,1
195,203.75,212.73,1
195,203.57,212.55,1
195,203.40,212.38,1
195,203.23,212.20,1
195,203.07,212.03,1
195,202.91,211.86,1
194,202.73,211.68,1
193,202.53,211.49,1
193,202.34,211.31,1
194,202.18,211.14,1
193,201.99,210.95,1
195,201.85,210.80,1
193,201.68,210.62,1
193,201.50,210.44,1
193,201.33,210.27,1
194,201.19,210.10,1
194,201.04,209.94,1
194,200.90,209.78,1
193,200.74,209.62,1
192,200.57,209.44,1
193,200.42,209.27,1
193,200.27,209.11,1
193,200.12,208.95,1
193,199.98,208.79,1
193,199.84,208.63,1
192,199.68,208.47,1
193,199.55,208.31,1
191,199.38,208.14,1
192,199.23,207.98,1
191,199.07,207.81,1
191,198.91,207.64,1
189,198.71,207.45,1
192,198.57,207.30,1
191,198.42,207.14,1
191,198.27,206.97,1
190,198.11,206.81,1
190,197.95,206.64,1
191,197.81,206.48,1
191,197.67,206.33,1
191,197.54,206.17,1
189,197.37,206.00,1
190,197.22,205.84,1
190,197.08,205.68,1
191,196.95,205.54,1
189,196.79,205.37,1
189,196.64,205.21,1
189,196.49,205.04,1
189,196.34,204.88,1
190,196.21,204.74,1
193,196.15,204.62,1
189,196.00,204.46,1
189,195.86,204.31,1
189,195.73,204.15,1
188,195.57,203.99,1
187,195.40,203.82,1
188,195.25,203.66,1
188,195.11,203.51,1
187,194.94,203.34,1
188,194.81,203.19,1
187,194.65,203.03,1
189,194.54,202.89,1
188,194.41,202.74,1
188,194.28,202.59,1
189,194.17,202.46,1
189,194.07,202.32,1
188,193.95,202.18,1
188,193.83,202.04,1
188,193.71,201.90,1
187,193.58,201.75,1
189,193.49,201.62,1
189,193.40,201.49,1
188,193.29,201.36,1
188,193.18,201.22,1
188,193.08,201.09,1
187,192.96,200.95,1
189,192.88,200.83,1
188,192.78,200.70,1
188,192.68,200.58,1
187,192.57,200.44,1
188,192.48,200.32,1
187,192.37,200.18,1
188,192.28,200.06,1
188,192.20,199.94,1
188,192.11,199.82,1
188,192.03,199.70,1
187,191.93,199.58,1
187,191.83,199.45,1
187,191.74,199.33,1
188,191.66,199.21,1
187,191.57,199.09,1
188,191.50,198.98,1
187,191.41,198.86,1
187,191.32,198.74,1
187,191.23,198.62,1
187,191.15,198.51,1
188,191.08,198.40,1
188,191.02,198.30,1
188,190.96,198.20,1
189,190.92,198.10,1
189,190.88,198.01,1
189,190.85,197.92,1
189,190.81,197.83,1
189,190.77,197.74,1
191,190.78,197.68,1
191,190.78,197.61,1
190,190.77,197.53,1
190,190.75,197.46,1
192,190.78,197.40,1
192,190.80,197.35,1
192,190.82,197.30,1
192,190.85,197.24,1
193,190.89,197.20,1
193,190.93,197.16,1
194,190.99,197.13,1
193,191.03,197.09,1
193,191.07,197.05,1
193,191.11,197.00,1
193,191.15,196.96,1
193,191.19,196.93,1
193,191.22,196.89,1
193,191.26,196.85,1
191,191.25,196.79,1
194,191.31,196.76,1
193,191.34,196.72,1
195,191.42,196.71,1
193,191.45,196.67,1
193,191.48,196.63,1
194,191.53,196.61,1
194,191.58,196.58,1
193,191.61,196.54,1
193,191.63,196.51,1
193,191.66,196.47,1
195,191.73,196.46,1
195,191.79,196.44,1
195,191.86,196.43,1
196,191.94,196.43,1
195,192.00,196.41,1
195,192.06,196.40,1
195,192.12,196.38,1
195,192.18,196.37,1
195,192.24,196.36,1
195,192.29,196.34,1
193,192.30,196.31,1
195,192.36,196.30,1
194,192.39,196.27,1
196,192.46,196.27,1
193,192.47,196.24,1
193,192.48,196.20,1
193,192.50,196.17,1
193,192.51,196.14,1
193,192.52,196.11,1
193,192.52,196.08,1
194,192.55,196.06,1
194,192.58,196.04,1
195,192.63,196.03,1
195,192.68,196.02,1
196,192.75,196.02,1
196,192.81,196.02,1
196,192.87,196.02,1
193,192.88,195.99,1
196,192.94,195.99,1
195,192.98,195.98,1
197,193.06,195.99,1
197,193.14,196.00,1
197,193.22,196.01,1
197,193.29,196.02,1
196,193.35,196.02,1
196,193.40,196.02,1
197,193.47,196.03,1
197,193.54,196.04,1
196,193.59,196.04,1
197,193.66,196.05,1
196,193.71,196.04,1
195,193.73,196.03,1
197,193.80,196.04,1
197,193.86,196.05,1
197,193.92,196.06,1
199,194.03,196.09,1
198,194.11,196.11,1
198,194.18,196.13,1
197,194.24,196.14,1
199,194.33,196.17,1
199,194.43,196.20,1
199,194.52,196.22,1
198,194.59,196.24,1
198,194.66,196.26,1
199,194.74,196.29,1
197,194.79,196.29,1
199,194.87,196.32,1
197,194.92,196.33,1
197,194.96,196.33,1
200,195.06,196.37,1
200,195.16,196.41,1
199,195.23,196.43,1
200,195.33,196.47,1
199,195.40,196.49,1
201,195.52,196.54,1
201,195.62,196.58,1
205,195.81,196.67,1
204,195.98,196.74,1
203,196.12,196.80,1
203,196.25,196.87,1
202,196.37,196.92,1
203,196.50,196.98,1
202,196.61,197.03,1
203,196.74,197.09,1
203,196.86,197.15,1
203,196.99,197.21,1
203,197.11,197.26,1
205,197.27,197.34,2
204,197.40,197.41,2
204,197.53,197.47,3
204,197.66,197.54,3
204,197.79,197.60,3
204,197.91,197.67,3
204,198.03,197.73,3
205,198.17,197.80,3
203,198.27,197.86,3
205,198.40,197.93,3
206,198.56,198.01,3
205,198.69,198.08,3
206,198.83,198.16,3
207,199.00,198.25,3
205,199.12,198.31,3
206,199.25,198.39,3
206,199.39,198.47,3
208,199.56,198.56,3
207,199.71,198.65,3
207,199.85,198.73,3
209,200.04,198.83,3
211,200.26,198.95,3
213,200.51,199.09,3
212,200.74,199.22,3
215,201.03,199.38,3
214,201.29,199.53,3
213,201.52,199.66,3
213,201.75,199.79,3
215,202.02,199.95,3
213,202.23,200.08,3
213,202.45,200.21,3
214,202.68,200.34,3
215,202.93,200.49,3
214,203.15,200.63,3
215,203.39,200.77,3
213,203.58,200.89,3
213,203.77,201.01,3
213,203.95,201.13,3
213,204.13,201.25,3
215,204.35,201.39,3
213,204.52,201.51,3
214,204.71,201.63,3
214,204.90,201.75,3
213,205.06,201.87,3
214,205.24,201.99,3
215,205.43,202.12,3
214,205.61,202.24,3
214,205.77,202.35,3
213,205.92,202.46,3
213,206.06,202.57,3
213,206.20,202.67,3
213,206.33,202.77,3
214,206.49,202.89,3
213,206.62,202.99,3
215,206.79,203.11,3
214,206.93,203.22,3
215,207.09,203.33,3
214,207.23,203.44,3
214,207.36,203.55,3
214,207.50,203.65,3
213,207.61,203.74,3
214,207.74,203.85,3
213,207.84,203.94,3
215,207.98,204.05,3
215,208.12,204.16,3
215,208.26,204.27,3
218,208.46,204.40,3
216,208.61,204.52,3
217,208.78,204.65,3
217,208.94,204.77,3
218,209.12,204.90,3
218,209.30,205.03,3
218,209.47,205.16,3
219,209.66,205.30,3
217,209.81,205.42,3
219,209.99,205.55,3
217,210.13,205.67,3
218,210.29,205.79,3
218,210.45,205.91,3
218,210.60,206.03,3
219,210.76,206.16,3
219,210.93,206.29,3
219,211.09,206.42,3
223,211.33,206.58,3
219,211.48,206.71,3
221,211.67,206.85,3
222,211.88,207.00,3
222,212.08,207.15,3
221,212.26,207.29,3
221,212.43,207.43,3
221,212.61,207.56,3
222,212.79,207.71,3
223,213.00,207.86,3
222,213.18,208.00,3
223,213.37,208.15,3
223,213.57,208.30,3
222,213.74,208.44,3
221,213.88,208.56,3
224,214.08,208.72,3
223,214.26,208.86,3
227,214.52,209.04,3
229,214.81,209.24,3
230,215.11,209.45,3
232,215.45,209.68,3
233,215.80,209.91,3
232,216.12,210.13,3
233,216.46,210.36,3
236,216.85,210.61,3
235,217.21,210.86,3
236,217.59,211.11,3
237,217.98,211.37,3
239,218.40,211.65,3
240,218.83,211.93,3
242,219.29,212.23,3
241,219.73,212.52,3
243,220.19,212.82,3
245,220.69,213.14,3
246,221.20,213.47,3
247,221.71,213.81,3
247,222.22,214.14,3
249,222.75,214.49,3
248,223.26,214.82,3
250,223.79,215.18,3
251,224.34,215.53,3
252,224.89,215.90,3
252,225.43,216.26,3
252,225.96,216.62,3
252,226.48,216.97,3
254,227.04,217.34,3
254,227.57,217.71,3
256,228.14,218.09,3
254,228.66,218.45,3
256,229.21,218.82,3
257,229.76,219.21,3
257,230.31,219.58,3
259,230.88,219.98,3
260,231.46,220.38,3
261,232.05,220.79,3
267,232.75,221.25,3
261,233.32,221.64,3
262,233.89,222.05,3
261,234.43,222.44,3
263,235.01,222.84,3
263,235.57,223.25,3
263,236.11,223.64,3
265,236.69,224.06,3
265,237.26,224.47,3
266,237.83,224.88,3
264,238.36,225.27,3
265,238.89,225.67,3
268,239.47,226.09,3
269,240.06,226.52,3
269,240.64,226.95,3
269,241.21,227.37,3
270,241.78,227.79,3
272,242.39,228.24,3
273,243.00,228.68,3
275,243.64,229.15,3
276,244.29,229.61,3
275,244.90,230.07,3
276,245.52,230.53,3
277,246.15,230.99,3
279,246.81,231.47,3
277,247.41,231.93,3
279,248.05,232.40,3
280,248.68,232.87,3
280,249.31,233.35,3
283,249.98,233.84,3
284,250.67,234.34,3
282,251.29,234.82,3
283,251.93,235.30,3
283,252.55,235.78,3
283,253.16,236.25,3
285,253.79,236.74,3
284,254.40,237.21,3
286,255.03,237.70,3
287,255.67,238.19,3
289,256.34,238.70,3
291,257.03,239.22,3
294,257.77,239.77,3
293,258.47,240.30,3
295,259.20,240.85,3
295,259.92,241.39,3
297,260.66,241.95,3
298,261.41,242.51,3
298,262.14,243.06,3
300,262.90,243.63,3
302,263.68,244.22,3
304,264.49,244.81,3
305,265.30,245.42,3
306,266.11,246.02,3
307,266.93,246.63,3
306,267.71,247.23,3
306,268.47,247.81,3
309,269.29,248.43,3
308,270.06,249.02,3
309,270.84,249.62,3
310,271.62,250.22,3
311,272.41,250.83,3
313,273.22,251.45,3
312,274.00,252.06,3
313,274.78,252.67,3
314,275.56,253.28,3
313,276.31,253.88,3
315,277.08,254.49,3
318,277.90,255.13,3
320,278.74,255.77,3
320,279.57,256.42,3
319,280.36,257.04,3
321,281.17,257.68,3
321,281.97,258.32,3
322,282.77,258.95,3
323,283.57,259.59,3
323,284.36,260.23,3
324,285.15,260.86,3
324,285.93,261.50,3
323,286.67,262.11,3
326,287.46,262.75,3
327,288.25,263.39,3
326,289.00,264.02,3
326,289.74,264.64,3
328,290.51,265.27,3
328,291.26,265.90,3
329,292.01,266.53,3
332,292.81,267.18,3
333,293.62,267.84,3
333,294.41,268.49,3
333,295.18,269.14,3
337,296.01,269.82,3
337,296.83,270.49,3
337,297.64,271.16,3
339,298.46,271.83,3
340,299.29,272.52,3
340,300.11,273.19,3
340,300.91,273.86,3
339,301.67,274.51,3
339,302.42,275.15,3
339,303.15,275.79,3
339,303.86,276.43,3
339,304.57,277.05,3
337,305.22,277.65,3
340,305.91,278.27,3
341,306.61,278.90,3
342,307.32,279.53,3
342,308.01,280.16,3
343,308.71,280.79,3
341,309.36,281.39,3
342,310.01,281.99,3
341,310.63,282.58,3
343,311.28,283.19,3
343,311.91,283.79,3
343,312.54,284.38,3
342,313.12,284.95,3
342,313.70,285.52,3
343,314.29,286.10,3
342,314.84,286.66,3
342,315.39,287.21,3
344,315.96,287.78,3
345,316.54,288.35,3
344,317.09,288.91,3
347,317.69,289.49,3
346,318.25,290.05,3
347,318.83,290.62,3
346,319.37,291.18,3
347,319.92,291.74,3
346,320.45,292.28,3
347,320.98,292.83,3
347,321.50,293.37,3
346,321.99,293.89,3
347,322.49,294.42,3
347,322.98,294.95,3
347,323.46,295.47,3
346,323.91,295.98,3
345,324.33,296.47,3
345,324.74,296.95,3
345,325.15,297.43,3
343,325.51,297.89,3
344,325.88,298.35,3
341,326.18,298.78,3
342,326.49,299.21,3
341,326.78,299.63,3
342,327.09,300.05,3
340,327.35,300.45,3
340,327.60,300.84,3
339,327.83,301.23,3
338,328.03,301.59,3
338,328.23,301.96,3
339,328.45,302.33,3
336,328.60,302.67,3
336,328.75,303.00,3
336,328.89,303.33,3
335,329.01,303.65,3
335,329.13,303.96,3
335,329.25,304.27,3
335,329.37,304.58,3
334,329.46,304.87,3
335,329.57,305.17,3
334,329.66,305.46,3
335,329.76,305.76,3
333,329.83,306.03,3
333,329.89,306.30,3
333,329.95,306.57,3
333,330.02,306.83,3
332,330.06,307.08,3
331,330.07,307.32,3
331,330.09,307.56,3
331,330.11,307.79,3
331,330.13,308.02,3
330,330.13,308.24,3
331,330.14,308.47,3
329,330.12,308.68,3
329,330.10,308.88,3
328,330.06,309.07,3
329,330.04,309.27,3
328,329.99,309.46,3
329,329.97,309.65,3
327,329.92,309.83,3
326,329.84,309.99,3
327,329.78,310.16,3
326,329.70,310.32,3
325,329.61,310.46,3
325,329.52,310.61,3
325,329.43,310.75,3
324,329.32,310.89,3
324,329.21,311.02,3
323,329.09,311.14,3
324,328.99,311.26,3
323,328.87,311.38,3
323,328.75,311.50,3
322,328.61,311.60,3
323,328.50,311.72,3
321,328.35,311.81,3
321,328.21,311.90,3
321,328.06,311.99,3
320,327.90,312.07,3
320,327.74,312.15,3
319,327.57,312.22,3
319,327.40,312.29,3
318,327.21,312.35,3
317,327.00,312.39,3
317,326.80,312.44,3
317,326.61,312.48,3
316,326.40,312.52,3
315,326.17,312.54,3
314,325.92,312.56,3
316,325.73,312.59,3
314,325.49,312.61,3
314,325.26,312.62,3
313,325.02,312.62,3
313,324.78,312.63,3
313,324.54,312.63,3
312,324.29,312.63,3
311,324.02,312.61,3
311,323.76,312.59,3
310,323.49,312.57,3
310,323.22,312.54,3
309,322.93,312.51,3
309,322.66,312.47,3
309,322.38,312.44,3
308,322.09,312.39,3
309,321.83,312.36,3
307,321.54,312.30,3
308,321.27,312.26,3
307,320.98,312.21,3
306,320.68,312.15,3
306,320.39,312.09,3
305,320.08,312.01,3
305,319.78,311.94,3
305,319.48,311.88,3
304,319.17,311.80,3
304,318.87,311.72,3
303,318.55,311.63,3
303,318.24,311.54,3
303,317.94,311.46,3
302,317.62,311.36,3
302,317.30,311.27,3
301,316.98,311.17,3
302,316.68,311.08,3
301,316.37,310.98,3
300,316.04,310.87,3
300,315.72,310.76,3
299,315.38,310.64,3
299,315.06,310.52,3
300,314.75,310.42,3
298,314.42,310.29,3
297,314.07,310.16,3
297,313.73,310.03,3
296,313.37,309.89,3
296,313.03,309.75,3
295,312.67,309.60,3
295,312.31,309.46,3
294,311.95,309.30,3
295,311.61,309.16,3
294,311.26,309.01,3
294,310.91,308.86,3
293,310.55,308.70,3
293,310.20,308.54,3
291,309.82,308.37,3
293,309.48,308.21,3
293,309.15,308.06,3
292,308.81,307.90,3
291,308.45,307.73,3
290,308.08,307.55,3
290,307.72,307.38,3
289,307.35,307.19,3
289,306.98,307.01,4
289,306.62,306.83,4
288,306.25,306.64,4
288,305.88,306.46,4
288,305.53,306.27,4
287,305.16,306.08,4
287,304.79,305.89,4
286,304.42,305.69,4
285,304.03,305.48,4
285,303.65,305.28,4
285,303.27,305.08,4
284,302.89,304.87,4
284,302.51,304.66,4
283,302.12,304.44,4
283,301.74,304.23,4
283,301.36,304.01,4
283,301.00,303.80,4
283,300.64,303.60,4
281,300.24,303.37,4
281,299.86,303.15,4
281,299.48,302.92,4
281,299.11,302.71,4
281,298.75,302.49,4
281,298.40,302.27,4
280,298.03,302.05,4
279,297.65,301.82,4
280,297.29,301.60,4
281,296.97,301.40,4
279,296.61,301.17,4
280,296.28,300.96,4
279,295.93,300.74,4
282,295.65,300.55,4
278,295.30,300.33,4
278,294.95,300.10,4
278,294.61,299.88,4
277,294.26,299.65,4
277,293.92,299.43,4
277,293.58,299.20,4
277,293.25,298.98,4
277,292.92,298.76,4
276,292.58,298.53,4
276,292.25,298.31,4
277,291.95,298.10,4
275,291.61,297.86,4
275,291.28,297.64,4
275,290.95,297.41,4
274,290.61,297.18,4
273,290.26,296.93,4
273,289.91,296.69,4
274,289.60,296.47,4
272,289.24,296.22,4
272,288.90,295.98,4
272,288.56,295.74,4
273,288.25,295.51,4
271,287.90,295.27,4
271,287.57,295.03,4
271,287.24,294.79,4
270,286.89,294.54,4
271,286.57,294.30,4
271,286.26,294.07,4
269,285.92,293.82,4
268,285.56,293.56,4
268,285.21,293.30,4
267,284.84,293.04,4
267,284.49,292.78,4
267,284.14,292.52,4
267,283.79,292.27,4
266,283.44,292.01,4
265,283.07,291.74,4
265,282.71,291.47,4
265,282.35,291.20,4
264,281.99,290.93,4
264,281.63,290.66,4
264,281.27,290.40,4
263,280.91,290.12,4
264,280.57,289.86,4
263,280.22,289.59,4
262,279.85,289.32,4
262,279.50,289.04,4
262,279.15,288.77,4
261,278.78,288.49,4
261,278.43,288.22,4
261,278.08,287.95,4
261,277.74,287.68,4
260,277.38,287.40,4
261,277.06,287.14,4
259,276.70,286.86,4
260,276.36,286.59,4
259,276.01,286.31,4
258,275.65,286.03,4
258,275.30,285.75,4
260,274.99,285.49,4
258,274.65,285.22,4
258,274.32,284.94,4
257,273.98,284.66,4
257,273.64,284.39,4
257,273.30,284.11,4
256,272.96,283.83,4
255,272.60,283.54,4
256,272.27,283.27,4
256,271.94,283.00,4
255,271.60,282.72,4
256,271.29,282.45,4
255,270.96,282.17,4
255,270.64,281.90,4
253,270.29,281.61,4
254,269.97,281.34,4
253,269.63,281.05,4
254,269.31,280.78,4
253,268.99,280.51,4
253,268.67,280.23,4
252,268.33,279.95,4
251,267.99,279.66,4
253,267.69,279.39,4
252,267.37,279.12,4
251,267.05,278.84,4
252,266.75,278.57,4
252,266.45,278.30,4
251,266.14,278.03,4
252,265.86,277.77,4
251,265.56,277.50,4
251,265.27,277.24,4
251,264.99,276.97,4
252,264.73,276.72,4
251,264.45,276.47,4
252,264.20,276.22,4
251,263.94,275.97,4
251,263.68,275.72,4
251,263.43,275.47,4
250,263.16,275.22,4
250,262.89,274.97,4
249,262.62,274.71,4
249,262.34,274.45,4
248,262.06,274.19,4
249,261.80,273.93,4
248,261.52,273.67,4
247,261.23,273.41,4
247,260.95,273.14,4
247,260.67,272.88,4
246,260.37,272.61,4
247,260.11,272.36,4
245,259.80,272.08,4
245,259.51,271.81,4
245,259.22,271.54,4
244,258.91,271.27,4
245,258.63,271.01,4
243,258.32,270.73,4
244,258.04,270.46,4
244,257.75,270.19,4
244,257.48,269.93,4
243,257.19,269.66,4
244,256.93,269.41,4
243,256.65,269.14,4
244,256.39,268.89,4
242,256.11,268.62,4
242,255.82,268.36,4
242,255.55,268.09,4
243,255.30,267.84,4
241,255.01,267.57,4
241,254.73,267.31,4
241,254.46,267.04,4
241,254.19,266.78,4
240,253.90,266.52,4
240,253.63,266.25,4
240,253.35,265.99,4
240,253.09,265.73,4
239,252.80,265.46,4
239,252.53,265.20,4
239,252.26,264.93,4
239,251.99,264.68,4
239,251.73,264.42,4
237,251.44,264.14,4
237,251.15,263.87,4
237,250.87,263.60,4
238,250.61,263.35,4
237,250.34,263.08,4
237,250.07,262.82,4
238,249.83,262.58,4
237,249.57,262.32,4
237,249.32,262.07,4
238,249.09,261.83,4
237,248.85,261.58,4
237,248.62,261.33,4
237,248.38,261.09,4
237,248.16,260.85,4
236,247.91,260.60,4
236,247.67,260.35,4
236,247.44,260.11,4
235,247.19,259.86,4
236,246.97,259.62,4
235,246.73,259.37,4
235,246.49,259.13,4
235,246.26,258.89,4
235,246.04,258.65,4
235,245.82,258.41,4
234,245.58,258.17,4
232,245.31,257.91,4
234,245.08,257.67,4
235,244.88,257.44,4
233,244.64,257.20,4
233,244.41,256.96,4
234,244.20,256.73,4
233,243.98,256.49,4
231,243.72,256.23,4
233,243.51,256.00,4
232,243.28,255.76,4
233,243.07,255.53,4
232,242.85,255.30,4
231,242.61,255.06,4
232,242.40,254.83,4
231,242.17,254.59,4
231,241.95,254.35,4
231,241.73,254.12,4
231,241.51,253.89,4
231,241.30,253.66,4
231,241.10,253.43,4
231,240.90,253.21,4
230,240.68,252.97,4
230,240.46,252.74,4
230,240.26,252.52,4
231,240.07,252.30,4
232,239.91,252.10,4
231,239.73,251.89,4
230,239.54,251.67,4
231,239.37,251.46,4
231,239.20,251.26,4
231,239.03,251.06,4
231,238.87,250.85,4
230,238.70,250.65,4
231,238.54,250.45,4
231,238.39,250.26,4
230,238.22,250.05,4
230,238.06,249.85,4
229,237.88,249.64,4
229,237.70,249.44,4
227,237.49,249.21,4
230,237.34,249.02,4
228,237.15,248.81,4
229,236.99,248.61,4
229,236.83,248.42,4
229,236.67,248.22,4
229,236.52,248.03,4
228,236.35,247.83,4
229,236.20,247.64,4
228,236.04,247.44,4
229,235.90,247.26,4
228,235.74,247.07,4
228,235.58,246.88,4
227,235.41,246.68,4
228,235.26,246.49,4
228,235.12,246.31,4
229,234.99,246.13,4
227,234.84,245.94,4
228,234.70,245.76,4
227,234.54,245.58,4
227,234.39,245.39,4
227,234.25,245.21,4
227,234.10,245.02,4
226,233.94,244.83,4
226,233.78,244.65,4
226,233.62,244.46,4
225,233.45,244.26,4
225,233.28,244.07,4
225,233.12,243.88,4
225,232.95,243.69,4
225,232.80,243.50,4
225,232.64,243.32,4
225,232.49,243.14,4
225,232.34,242.96,4
224,232.17,242.77,4
225,232.03,242.59,4
223,231.85,242.39,4
224,231.69,242.21,4
224,231.54,242.03,4
225,231.41,241.86,4
223,231.24,241.67,4
223,231.07,241.48,4
222,230.89,241.29,4
222,230.71,241.09,4
223,230.56,240.91,4
222,230.39,240.72,4
221,230.20,240.53,4
222,230.04,240.34,4
222,229.88,240.16,4
221,229.70,239.97,4
222,229.54,239.79,4
221,229.37,239.60,4
221,229.21,239.41,4
221,229.04,239.23,4
220,228.86,239.04,4
219,228.66,238.84,4
221,228.51,238.66,4
220,228.34,238.47,4
219,228.15,238.28,4
219,227.97,238.08,4
219,227.79,237.89,4
219,227.61,237.70,4
219,227.44,237.52,4
218,227.25,237.32,4
218,227.07,237.13,4
219,226.91,236.95,4
217,226.71,236.75,4
219,226.55,236.57,4
217,226.36,236.37,4
217,226.18,236.18,4
217,225.99,235.99,4
218,225.83,235.81,4
216,225.64,235.61,4
216,225.44,235.41,4
217,225.27,235.23,4
215,225.07,235.03,4
215,224.87,234.83,4
215,224.67,234.63,4
215,224.48,234.43,4
214,224.27,234.23,4
214,224.06,234.03,4
213,223.84,233.82,4
214,223.64,233.62,4
213,223.43,233.41,4
213,223.22,233.21,4
211,222.98,232.99,4
211,222.74,232.77,4
211,222.50,232.55,4
213,222.31,232.35,4
211,222.09,232.14,4
210,221.85,231.92,4
211,221.63,231.71,4
210,221.40,231.49,4
211,221.19,231.29,4
210,220.96,231.07,4
209,220.73,230.85,4
209,220.49,230.63,4
210,220.28,230.43,4
209,220.06,230.21,4
209,219.83,230.00,4
208,219.60,229.78,4
208,219.37,229.56,4
208,219.14,229.35,4
207,218.90,229.12,4
207,218.66,228.90,4
207,218.42,228.68,4
207,218.20,228.47,4
207,217.97,228.25,4
205,217.71,228.02,4
206,217.48,227.80,4
206,217.25,227.58,4
206,217.02,227.37,4
205,216.78,227.14,4
205,216.55,226.92,4
205,216.32,226.70,4
205,216.09,226.49,4
205,215.87,226.27,4
204,215.63,226.05,4
204,215.40,225.83,4
203,215.15,225.60,4
204,214.93,225.38,4
204,214.71,225.17,4
205,214.52,224.97,4
204,214.30,224.76,4
204,214.10,224.55,4
205,213.92,224.35,4
203,213.70,224.14,4
204,213.50,223.94,4
203,213.29,223.73,4
203,213.09,223.52,4
203,212.89,223.32,4
203,212.69,223.11,4
202,212.48,222.90,4
202,212.27,222.69,4
201,212.04,222.48,4
202,211.84,222.27,4
202,211.64,222.07,4
202,211.45,221.87,4
201,211.24,221.66,4
201,211.04,221.45,4
201,210.84,221.25,4
201,210.64,221.05,4
201,210.45,220.85,4
201,210.26,220.65,4
200,210.05,220.44,4
200,209.85,220.24,4
200,209.65,220.03,4
200,209.46,219.83,4
199,209.25,219.63,4
197,209.01,219.40,4
199,208.81,219.20,4
198,208.59,218.98,4
200,208.42,218.79,4
199,208.23,218.60,4
199,208.05,218.40,4
197,207.82,218.19,4
198,207.63,217.98,4
198,207.44,217.78,4
198,207.25,217.59,4
198,207.06,217.39,4
197,206.86,217.19,4
197,206.66,216.98,4
197,206.47,216.79,4
197,206.28,216.59,4
197,206.10,216.39,4
197,205.91,216.20,4
197,205.74,216.01,4
197,205.56,215.82,4
197,205.39,215.63,4
198,205.24,215.45,4
195,205.04,215.25,4
196,204.86,215.05,4
196,204.68,214.86,4
196,204.51,214.67,4
196,204.34,214.49,4
195,204.15,214.29,4
195,203.97,214.10,4
195,203.79,213.91,4
195,203.61,213.72,4
195,203.44,213.53,4
193,203.23,213.33,4
195,203.06,213.14,4
193,202.86,212.94,4
194,202.69,212.75,4
195,202.53,212.58,4
193,202.34,212.38,4
193,202.16,212.19,4
193,201.97,211.99,4
197,201.87,211.84,4
193,201.70,211.66,4
193,201.52,211.47,4
193,201.35,211.28,4
192,201.16,211.09,4
192,200.98,210.90,4
192,200.80,210.71,4
192,200.62,210.52,4
192,200.45,210.34,4
191,200.26,210.15,4
192,200.10,209.96,4
191,199.92,209.78,4
192,199.76,209.60,4
192,199.60,209.42,4
191,199.43,209.24,4
191,199.26,209.05,4
189,199.06,208.85,4
191,198.90,208.68,4
191,198.74,208.50,4
191,198.58,208.32,4
190,198.41,208.14,4
191,198.26,207.97,4
191,198.12,207.80,4
190,197.96,207.62,4
189,197.78,207.44,4
190,197.62,207.26,4
189,197.45,207.08,4
190,197.30,206.91,4
190,197.15,206.74,4
189,196.99,206.56,4
191,196.87,206.41,4
189,196.71,206.23,4
189,196.56,206.06,4
189,196.41,205.89,4
189,196.26,205.72,4
189,196.11,205.55,4
189,195.97,205.39,4
189,195.83,205.22,4
188,195.68,205.05,4
188,195.52,204.88,4
188,195.37,204.71,4
187,195.20,204.53,4
187,195.04,204.36,4
187,194.88,204.19,4
187,194.72,204.01,4
188,194.59,203.85,4
189,194.48,203.71,4
187,194.33,203.54,4
185,194.14,203.35,4
186,193.98,203.18,4
187,193.84,203.02,4
186,193.68,202.85,4
185,193.51,202.67,4
185,193.34,202.49,4
185,193.17,202.32,4
184,192.99,202.13,4
185,192.83,201.96,4
184,192.65,201.78,4
183,192.46,201.60,4
184,192.29,201.42,4
183,192.10,201.24,4
183,191.92,201.05,4
183,191.74,200.87,4
184,191.59,200.70,4
183,191.42,200.53,4
184,191.27,200.36,4
183,191.10,200.19,4
184,190.96,200.03,4
184,190.82,199.87,4
183,190.66,199.70,4
183,190.51,199.53,4
184,190.38,199.37,4
183,190.23,199.21,4
184,190.11,199.06,4
183,189.97,198.90,4
183,189.83,198.74,4
183,189.69,198.58,4
184,189.58,198.44,4
183,189.45,198.28,4
183,189.32,198.13,4
182,189.17,197.97,4
182,189.03,197.81,4
181,188.87,197.64,4
182,188.73,197.48,4
181,188.57,197.32,4
181,188.42,197.16,4
181,188.27,196.99,4
181,188.13,196.83,4
181,187.99,196.68,4
181,187.85,196.52,4
181,187.71,196.36,4
181,187.58,196.21,4
181,187.44,196.06,4
181,187.31,195.91,4
181,187.19,195.76,4
181,187.06,195.61,4
181,186.94,195.46,4
181,186.82,195.32,4
181,186.71,195.18,4
182,186.61,195.04,4
180,186.48,194.89,4
180,186.35,194.75,4
180,186.23,194.60,4
181,186.12,194.46,4
179,185.98,194.31,4
181,185.88,194.17,4
181,185.78,194.04,4
181,185.69,193.91,4
180,185.57,193.77,4
182,185.50,193.66,4
179,185.37,193.51,4
182,185.30,193.39,4
181,185.22,193.27,4
181,185.13,193.15,4
181,185.05,193.03,4
183,185.01,192.93,4
183,184.97,192.83,4
183,184.93,192.73,4
182,184.87,192.62,4
183,184.83,192.52,4
183,184.80,192.43,4
183,184.76,192.33,4
183,184.73,192.24,4
183,184.69,192.15,4
183,184.66,192.06,4
183,184.62,191.97,4
184,184.61,191.89,4
183,184.58,191.80,4
183,184.55,191.71,4
183,184.52,191.62,4
183,184.49,191.54,4
183,184.46,191.45,4
183,184.43,191.37,4
182,184.38,191.27,4
182,184.33,191.18,4
182,184.28,191.09,4
182,184.24,191.00,4
182,184.19,190.91,4
182,184.15,190.82,4
182,184.11,190.73,4
182,184.07,190.64,4
183,184.04,190.57,4
181,183.98,190.47,4
183,183.96,190.40,4
181,183.90,190.30,4
181,183.85,190.21,4
181,183.79,190.12,4
181,183.73,190.03,4
181,183.68,189.94,4
185,183.71,189.89,4
180,183.63,189.79,4
180,183.56,189.69,4
180,183.49,189.59,4
181,183.44,189.51,4
182,183.41,189.43,4
181,183.36,189.35,4
181,183.31,189.26,4
181,183.27,189.18,4
183,183.26,189.12,4
181,183.22,189.04,4
181,183.17,188.96,4
181,183.13,188.88,4
181,183.09,188.80,4
181,183.04,188.72,4
182,183.02,188.65,4
180,182.96,188.57,4
181,182.92,188.49,4
181,182.89,188.42,4
181,182.85,188.34,4
181,182.81,188.27,4
181,182.77,188.20,4
180,182.72,188.12,4
180,182.66,188.03,4
181,182.63,187.96,4
179,182.56,187.87,4
181,182.53,187.81,4
180,182.48,187.73,4
180,182.43,187.65,4
180,182.38,187.57,4
180,182.33,187.50,4
180,182.28,187.42,4
180,182.24,187.35,4
179,182.17,187.27,4
179,182.11,187.18,4
180,182.07,187.11,4
179,182.01,187.03,4
179,181.95,186.95,4
181,181.93,186.89,4
179,181.87,186.81,4
179,181.81,186.73,4
181,181.80,186.68,4
179,181.74,186.60,4
180,181.71,186.53,4
181,181.69,186.48,4
180,181.66,186.41,4
181,181.64,186.36,4
182,181.65,186.32,4
181,181.64,186.26,4
181,181.63,186.21,4
180,181.59,186.15,4
180,181.56,186.09,4
181,181.55,186.03,4
181,181.54,185.98,4
181,181.53,185.93,4
180,181.50,185.88,4
181,181.49,185.83,4
179,181.44,185.76,4
180,181.41,185.70,4
179,181.36,185.63,4
180,181.33,185.58,4
179,181.29,185.51,4
179,181.24,185.45,4
179,181.20,185.38,4
180,181.17,185.33,4
179,181.13,185.26,4
180,181.11,185.21,4
181,181.10,185.17,4
181,181.10,185.13,4
181,181.10,185.09,4
182,181.12,185.06,4
182,181.14,185.03,4
181,181.13,184.99,4
181,181.13,184.95,4
181,181.13,184.91,4
182,181.15,184.88,4
181,181.14,184.84,4
181,181.14,184.80,4
182,181.16,184.77,4
183,181.19,184.75,4
183,181.23,184.74,4
183,181.27,184.72,4
183,181.30,184.70,4
183,181.33,184.69,4
185,181.41,184.69,4
185,181.48,184.69,4
184,181.53,184.68,4
184,181.58,184.68,4
184,181.63,184.67,4
183,181.65,184.65,4
184,181.70,184.65,4
183,181.73,184.63,4
183,181.75,184.61,4
184,181.80,184.61,4
185,181.86,184.61,4
187,181.96,184.64,4
189,182.11,184.68,4
188,182.22,184.71,4
189,182.36,184.76,4
191,182.53,184.82,4
191,182.70,184.88,4
192,182.89,184.95,4
192,183.07,185.02,4
192,183.25,185.09,4
191,183.40,185.15,4
192,183.58,185.22,4
191,183.72,185.28,4
193,183.91,185.35,4
191,184.05,185.41,4
191,184.19,185.47,4
192,184.35,185.53,4
191,184.48,185.59,4
191,184.61,185.64,4
191,184.74,185.69,4
191,184.86,185.75,4
192,185.01,185.81,4
192,185.15,185.87,4
192,185.28,185.93,4
191,185.40,185.98,4
191,185.51,186.03,4
193,185.66,186.10,4
191,185.77,186.15,4
192,185.89,186.21,4
191,185.99,186.26,4
191,186.09,186.31,4
192,186.21,186.36,4
193,186.35,186.43,5
192,186.46,186.49,5
194,186.61,186.56,6
192,186.72,186.62,6
193,186.84,186.68,6
193,186.97,186.74,6
194,187.11,186.81,6
194,187.25,186.89,6
194,187.38,186.96,6
193,187.49,187.02,6
194,187.62,187.09,6
193,187.73,187.15,6
193,187.84,187.21,6
196,188.00,187.29,6
197,188.18,187.39,6
198,188.38,187.50,6
198,188.57,187.60,6
200,188.80,187.73,6
201,189.04,187.86,6
205,189.36,188.03,6
204,189.65,188.19,6
205,189.96,188.36,6
205,190.26,188.52,6
210,190.66,188.74,6
207,190.98,188.92,6
206,191.28,189.09,6
205,191.56,189.25,6
205,191.83,189.41,6
207,192.13,189.58,6
206,192.41,189.75,6
206,192.68,189.91,6
205,192.93,190.06,6
205,193.17,190.21,6
205,193.40,190.36,6
207,193.68,190.53,6
206,193.92,190.68,6
207,194.18,190.84,6
209,194.48,191.03,6
207,194.73,191.19,6
205,194.94,191.32,6
207,195.18,191.48,6
207,195.41,191.64,6
209,195.69,191.81,6
209,195.95,191.98,6
209,196.21,192.15,6
209,196.47,192.32,6
211,196.76,192.51,6
210,197.02,192.68,6
210,197.28,192.85,6
211,197.56,193.04,6
211,197.83,193.22,6
211,198.09,193.39,6
213,198.39,193.59,6
213,198.68,193.78,6
213,198.97,193.98,6
214,199.27,194.18,6
215,199.58,194.38,6
215,199.89,194.59,6
216,200.21,194.80,6
216,200.53,195.02,6
216,200.84,195.23,6
218,201.18,195.45,6
218,201.52,195.68,6
217,201.83,195.89,6
218,202.15,196.11,6
219,202.49,196.34,6
219,202.82,196.57,6
219,203.14,196.79,6
220,203.48,197.03,6
221,203.83,197.27,6
221,204.17,197.50,6
221,204.51,197.74,6
224,204.90,198.00,6
226,205.32,198.28,6
227,205.75,198.57,6
229,206.22,198.87,6
229,206.67,199.17,6
228,207.10,199.46,6
228,207.52,199.75,6
230,207.97,200.05,6
232,208.45,200.37,6
234,208.96,200.71,6
235,209.48,201.05,6
237,210.03,201.41,6
237,210.57,201.76,6
238,211.12,202.13,6
241,211.72,202.51,6
242,212.32,202.91,6
243,212.94,203.31,6
243,213.54,203.71,6
244,214.15,204.11,6
246,214.78,204.53,6
249,215.47,204.97,6
248,216.12,205.40,6
249,216.78,205.84,6
249,217.42,206.27,6
249,218.05,206.70,6
250,218.69,207.13,6
250,219.32,207.56,6
249,219.91,207.98,6
251,220.53,208.41,6
251,221.14,208.83,6
251,221.74,209.25,6
252,222.34,209.68,6
251,222.92,210.09,6
253,223.52,210.52,6
255,224.15,210.97,6
253,224.73,211.39,6
256,225.35,211.83,6
257,225.98,212.29,6
257,226.61,212.73,6
257,227.21,213.18,6
259,227.85,213.63,6
261,228.51,214.11,6
262,229.18,214.59,6
262,229.84,215.06,6
262,230.48,215.53,6
263,231.13,216.00,6
264,231.79,216.48,6
266,232.47,216.98,6
269,233.20,217.50,6
268,233.90,218.00,6
270,234.62,218.52,6
272,235.37,219.06,6
273,236.12,219.60,6
273,236.86,220.13,6
275,237.62,220.68,6
275,238.37,221.22,6
275,239.10,221.76,6
275,239.82,222.29,6
276,240.54,222.83,6
275,241.23,223.35,6
278,241.97,223.90,6
279,242.71,224.45,6
280,243.45,225.01,6
281,244.21,225.57,6
283,244.98,226.14,6
286,245.80,226.74,6
287,246.63,227.34,6
287,247.43,227.94,6
287,248.22,228.53,6
289,249.04,229.13,6
288,249.82,229.72,6
289,250.60,230.32,6
290,251.39,230.91,6
291,252.18,231.51,6
289,252.92,232.09,6
289,253.64,232.66,6
289,254.35,233.22,6
291,255.08,233.80,6
291,255.80,234.37,6
292,256.52,234.95,6
293,257.25,235.53,6
293,257.97,236.10,6
294,258.69,236.68,6
295,259.42,237.26,6
295,260.13,237.84,6
295,260.82,238.41,6
297,261.55,239.00,6
297,262.26,239.58,6
296,262.93,240.14,6
297,263.61,240.71,6
298,264.30,241.28,6
297,264.95,241.84,6
299,265.64,242.41,6
299,266.30,242.98,6
298,266.94,243.53,6
297,267.54,244.06,6
297,268.13,244.59,6
300,268.76,245.15,6
302,269.43,245.72,6
303,270.10,246.29,6
309,270.88,246.92,6
307,271.60,247.52,6
307,272.31,248.11,6
308,273.02,248.71,6
307,273.70,249.29,6
306,274.35,249.86,6
307,275.00,250.43,6
307,275.64,251.00,6
309,276.31,251.58,6
312,277.02,252.18,6
311,277.70,252.77,6
310,278.35,253.34,6
310,278.98,253.91,6
312,279.64,254.49,6
310,280.25,255.05,6
313,280.90,255.62,6
314,281.57,256.21,6
315,282.23,256.80,6
318,282.95,257.41,6
320,283.69,258.03,6
321,284.44,258.66,6
322,285.19,259.30,6
322,285.92,259.92,6
324,286.69,260.57,6
322,287.39,261.18,6
324,288.12,261.81,6
327,288.90,262.46,6
329,289.70,263.12,6
328,290.47,263.77,6
331,291.28,264.45,6
333,292.11,265.13,6
335,292.97,265.83,6
335,293.81,266.52,6
337,294.68,267.23,6
339,295.56,267.94,6
341,296.47,268.67,6
342,297.38,269.41,6
343,298.30,270.14,6
344,299.21,270.88,6
344,300.11,271.61,6
345,301.00,272.35,6
349,301.96,273.11,6
349,302.90,273.87,6
352,303.89,274.65,6
353,304.87,275.44,6
354,305.85,276.22,6
355,306.83,277.01,6
357,307.84,277.81,6
358,308.84,278.61,6
357,309.80,279.40,6
358,310.77,280.18,6
357,311.69,280.95,6
358,312.62,281.72,6
358,313.53,282.48,6
359,314.44,283.25,6
358,315.31,284.00,6
359,316.18,284.75,6
357,317.00,285.47,6
359,317.84,286.20,6
359,318.66,286.93,6
359,319.47,287.65,6
359,320.26,288.37,6
360,321.05,289.08,6
360,321.83,289.79,6
359,322.57,290.48,6
359,323.30,291.17,6
359,324.02,291.85,6
359,324.72,292.52,6
359,325.40,293.18,6
360,326.09,293.85,6
360,326.77,294.51,6
360,327.44,295.17,6
360,328.09,295.82,6
360,328.73,296.46,6
359,329.33,297.08,6
358,329.91,297.69,6
358,330.47,298.30,6
358,331.02,298.89,6
356,331.52,299.46,6
357,332.03,300.04,6
357,332.53,300.61,6
356,333.00,301.16,6
356,333.46,301.71,6
355,333.89,302.24,6
355,334.31,302.77,6
355,334.72,303.29,6
355,335.13,303.81,6
354,335.51,304.31,6
356,335.92,304.83,6
355,336.30,305.33,6
355,336.67,305.83,6
356,337.06,306.33,6
355,337.42,306.82,6
356,337.79,307.31,6
356,338.15,307.80,6
356,338.51,308.28,6
355,338.84,308.75,6
355,339.16,309.21,6
355,339.48,309.67,6
354,339.77,310.11,6
353,340.03,310.54,6
353,340.29,310.96,6
352,340.53,311.37,6
353,340.78,311.79,6
352,341.00,312.19,6
353,341.24,312.60,6
351,341.44,312.98,6
351,341.63,313.36,6
351,341.82,313.74,6
351,342.00,314.11,6
349,342.14,314.46,6
350,342.30,314.82,6
348,342.41,315.15,6
348,342.52,315.48,6
348,342.63,315.80,6
347,342.72,316.11,6
348,342.83,316.43,6
346,342.89,316.73,6
345,342.93,317.01,6
345,342.97,317.29,6
345,343.01,317.57,6
345,343.05,317.84,6
345,343.09,318.11,6
344,343.11,318.37,6
343,343.11,318.62,6
343,343.11,318.86,6
343,343.10,319.10,6
342,343.08,319.33,6
342,343.06,319.56,6
341,343.02,319.77,6
340,342.96,319.98,6
341,342.92,320.19,6
340,342.86,320.39,6
339,342.78,320.57,6
338,342.69,320.75,6
338,342.59,320.92,6
338,342.50,321.09,6
339,342.43,321.27,6
339,342.36,321.45,6
337,342.26,321.60,6
337,342.15,321.76,6
337,342.05,321.91,6
335,341.91,322.04,6
335,341.77,322.17,6
335,341.63,322.30,6
334,341.48,322.41,6
333,341.31,322.52,6
334,341.17,322.63,6
334,341.02,322.75,6
333,340.86,322.85,6
332,340.68,322.94,6
332,340.51,323.03,6
332,340.34,323.12,6
331,340.15,323.20,6
332,339.99,323.29,6
330,339.79,323.36,6
329,339.57,323.41,6
329,339.36,323.47,6
330,339.18,323.53,6
328,338.95,323.58,6
327,338.71,323.61,6
327,338.48,323.65,6
327,338.25,323.68,6
327,338.02,323.71,6
327,337.80,323.75,6
326,337.57,323.77,6
326,337.34,323.79,6
325,337.09,323.80,6
325,336.85,323.82,6
325,336.61,323.83,6
325,336.38,323.84,6
325,336.15,323.85,6
325,335.93,323.86,6
325,335.71,323.87,6
323,335.46,323.86,6
325,335.25,323.88,6
323,335.00,323.87,6
323,334.76,323.86,6
323,334.53,323.85,6
321,334.26,323.82,6
321,333.99,323.79,6
321,333.73,323.77,6
320,333.46,323.73,6
319,333.17,323.68,6
320,332.90,323.64,6
319,332.63,323.60,6
319,332.35,323.55,6
318,332.07,323.50,6
321,331.84,323.47,6
317,331.55,323.41,6
318,331.28,323.35,6
316,330.97,323.28,6
317,330.69,323.22,6
316,330.40,323.14,6
315,330.09,323.06,6
315,329.79,322.98,6
314,329.47,322.89,6
314,329.16,322.80,6
313,328.84,322.70,6
313,328.52,322.61,6
313,328.21,322.51,6
313,327.91,322.42,6
312,327.59,322.31,6
312,327.28,322.21,6
311,326.95,322.10,6
311,326.63,321.99,6
310,326.30,321.87,6
309,325.96,321.74,6
309,325.62,321.61,6
309,325.28,321.48,6
309,324.96,321.36,6
309,324.64,321.24,6
308,324.31,321.10,6
308,323.98,320.97,6
308,323.66,320.84,6
306,323.31,320.69,6
307,322.98,320.56,6
306,322.64,320.41,6
307,322.33,320.28,6
306,322.00,320.13,6
307,321.70,320.00,6
306,321.39,319.86,6
307,321.10,319.73,6
305,320.78,319.59,6
306,320.48,319.45,6
305,320.17,319.31,6
304,319.85,319.15,6
304,319.53,319.00,6
303,319.20,318.84,6
302,318.86,318.67,6
302,318.52,318.51,7
301,318.17,318.33,7
301,317.83,318.16,7
301,317.49,317.99,7
300,317.14,317.81,7
301,316.82,317.64,7
301,316.50,317.47,7
300,316.17,317.30,7
299,315.83,317.12,7
301,315.53,316.95,7
300,315.22,316.78,7
300,314.92,316.62,7
299,314.60,316.44,7
299,314.29,316.27,7
299,313.98,316.09,7
299,313.68,315.92,7
297,313.35,315.73,7
297,313.02,315.55,7
297,312.70,315.36,7
296,312.37,315.17,7
296,312.04,314.98,7
295,311.70,314.78,7
295,311.36,314.58,7
294,311.02,314.37,7
294,310.68,314.17,7
293,310.32,313.96,7
295,310.02,313.77,7
293,309.68,313.56,7
293,309.34,313.35,7
291,308.98,313.13,7
293,308.66,312.93,7
291,308.30,312.71,7
292,307.98,312.50,7
290,307.62,312.28,7
291,307.29,312.06,7
291,306.96,311.85,7
290,306.62,311.64,7
290,306.29,311.42,7
289,305.94,311.20,7
289,305.60,310.97,7
288,305.25,310.74,7
289,304.93,310.53,7
287,304.57,310.29,7
288,304.24,310.07,7
287,303.89,309.84,7
288,303.57,309.62,7
287,303.24,309.39,7
288,302.94,309.18,7
287,302.62,308.96,7
287,302.31,308.74,7
286,301.98,308.51,7
286,301.66,308.28,7
285,301.33,308.05,7
286,301.02,307.83,7
285,300.70,307.60,7
284,300.37,307.37,7
284,300.04,307.13,7
284,299.72,306.90,7
285,299.42,306.68,7
283,299.10,306.45,7
283,298.77,306.21,7
283,298.46,305.98,7
283,298.15,305.75,7
281,297.81,305.50,7
282,297.49,305.27,7
280,297.14,305.01,7
280,296.80,304.76,7
280,296.46,304.52,7
279,296.11,304.26,7
280,295.79,304.02,7
278,295.43,303.76,7
278,295.09,303.50,7
278,294.74,303.25,7
279,294.43,303.00,7
277,294.08,302.74,7
277,293.74,302.49,7
276,293.38,302.22,7
276,293.04,301.96,7
276,292.70,301.70,7
276,292.36,301.44,7
274,291.99,301.17,7
275,291.65,300.91,7
274,291.30,300.64,7
273,290.94,300.36,7
273,290.58,300.09,7
273,290.23,299.82,7
273,289.88,299.55,7
272,289.52,299.27,7
272,289.17,299.00,7
272,288.83,298.73,7
273,288.51,298.47,7
271,288.16,298.20,7
271,287.82,297.93,7
271,287.48,297.66,7
271,287.15,297.39,7
269,286.79,297.11,7
269,286.43,296.83,7
269,286.09,296.55,7
269,285.74,296.27,7
269,285.41,296.00,7
268,285.06,295.72,7
269,284.74,295.45,7
268,284.40,295.18,7
268,284.08,294.91,7
267,283.74,294.63,7
267,283.40,294.35,7
267,283.07,294.08,7
267,282.75,293.81,7
266,282.42,293.53,7
266,282.09,293.25,7
265,281.75,292.97,7
266,281.43,292.70,7
264,281.08,292.41,7
264,280.74,292.13,7
264,280.41,291.85,7
263,280.06,291.56,7
263,279.72,291.27,7
263,279.38,290.99,7
262,279.03,290.70,7
262,278.69,290.41,7
261,278.34,290.12,7
261,277.99,289.83,7
261,277.65,289.54,7
259,277.28,289.24,7
261,276.95,288.95,7
260,276.62,288.66,7
260,276.28,288.38,7
260,275.96,288.09,7
259,275.62,287.80,7
259,275.29,287.51,7
258,274.94,287.22,7
257,274.58,286.92,7
257,274.23,286.62,7
258,273.91,286.33,7
256,273.55,286.03,7
256,273.20,285.73,7
255,272.83,285.42,7
255,272.48,285.12,7
255,272.13,284.82,7
257,271.82,284.54,7
255,271.49,284.24,7
255,271.16,283.95,7
255,270.83,283.66,7
256,270.54,283.38,7
256,270.25,283.11,7
254,269.92,282.82,7
254,269.60,282.53,7
254,269.29,282.24,7
253,268.97,281.95,7
253,268.65,281.66,7
253,268.33,281.38,7
252,268.01,281.08,7
252,267.69,280.79,7
251,267.35,280.49,7
252,267.05,280.21,7
251,266.73,279.92,7
252,266.43,279.64,7
251,266.12,279.35,7
251,265.82,279.07,7
250,265.50,278.78,7
249,265.17,278.48,7
249,264.85,278.18,7
253,264.61,277.93,7
249,264.30,277.64,7
248,263.97,277.35,7
248,263.65,277.05,7
248,263.34,276.76,7
247,263.01,276.47,7
247,262.69,276.17,7
247,262.38,275.88,7
246,262.05,275.58,7
247,261.75,275.29,7
245,261.42,274.99,7
246,261.11,274.70,7
245,260.79,274.40,7
246,260.49,274.12,7
245,260.18,273.83,7
247,259.92,273.56,7
243,259.58,273.26,7
245,259.29,272.97,7
245,259.00,272.69,7
245,258.72,272.42,7
246,258.47,272.15,7
245,258.20,271.88,7
245,257.93,271.61,7
245,257.68,271.35,7
245,257.42,271.08,7
243,257.13,270.80,7
243,256.85,270.52,7
242,256.55,270.24,7
242,256.26,269.96,7
242,255.98,269.68,7
243,255.72,269.41,7
242,255.44,269.14,7
242,255.17,268.86,7
241,254.89,268.59,7
241,254.61,268.31,7
241,254.34,268.04,7
242,254.09,267.78,7
241,253.83,267.51,7
240,253.56,267.23,7
240,253.28,266.96,7
240,253.02,266.69,7
241,252.78,266.43,7
239,252.50,266.16,7
239,252.23,265.89,7
239,251.97,265.62,7
239,251.71,265.35,7
238,251.43,265.08,7
239,251.19,264.82,7
237,250.90,264.54,7
237,250.62,264.27,7
237,250.35,263.99,7
237,250.08,263.72,7
236,249.80,263.45,7
236,249.53,263.17,7
235,249.24,262.89,7
235,248.95,262.61,7
236,248.69,262.34,7
235,248.42,262.07,7
237,248.19,261.82,7
236,247.95,261.56,7
236,247.71,261.31,7
235,247.45,261.04,7
236,247.22,260.79,7
236,247.00,260.54,7
237,246.80,260.31,7
236,246.58,260.07,7
236,246.37,259.83,7
236,246.17,259.59,7
237,245.98,259.36,7
236,245.78,259.13,7
235,245.57,258.89,7
235,245.36,258.65,7
234,245.13,258.40,7
233,244.89,258.15,7
234,244.67,257.91,7
234,244.45,257.67,7
233,244.23,257.42,7
233,244.00,257.18,7
233,243.78,256.93,7
233,243.57,256.69,7
232,243.33,256.45,7
233,243.13,256.21,7
232,242.90,255.97,7
231,242.67,255.72,7
232,242.45,255.48,7
231,242.22,255.24,7
231,242.00,255.00,7
231,241.78,254.76,7
231,241.56,254.52,7
231,241.35,254.28,7
231,241.15,254.05,7
231,240.94,253.82,7
231,240.74,253.59,7
230,240.53,253.36,7
229,240.30,253.11,7
229,240.07,252.87,7
231,239.89,252.65,7
229,239.67,252.42,7
229,239.46,252.18,7
229,239.25,251.95,7
229,239.05,251.72,7
228,238.82,251.48,7
227,238.59,251.24,7
227,238.36,251.00,7
227,238.13,250.76,7
228,237.93,250.53,7
227,237.71,250.29,7
227,237.49,250.06,7
228,237.30,249.84,7
227,237.10,249.61,7
227,236.90,249.39,7
228,236.72,249.17,7
226,236.50,248.94,7
227,236.31,248.72,7
225,236.09,248.48,7
227,235.91,248.27,7
228,235.75,248.07,7
227,235.57,247.86,7
226,235.38,247.64,7
226,235.19,247.42,7
227,235.03,247.22,7
227,234.87,247.01,7
227,234.71,246.81,7
226,234.54,246.61,7
226,234.37,246.40,7
225,234.18,246.19,7
225,234.00,245.97,7
225,233.82,245.76,7
225,233.64,245.56,7
223,233.43,245.33,7
224,233.24,245.12,7
224,233.05,244.91,7
224,232.87,244.70,7
224,232.70,244.49,7
224,232.52,244.29,7
223,232.33,244.07,7
223,232.14,243.86,7
223,231.96,243.65,7
223,231.78,243.45,7
223,231.61,243.24,7
222,231.41,243.03,7
221,231.21,242.81,7
221,231.00,242.59,7
221,230.80,242.38,7
221,230.61,242.16,7
221,230.41,241.95,7
220,230.21,241.73,7
220,230.00,241.51,7
220,229.80,241.30,7
223,229.67,241.12,7
219,229.45,240.89,7
219,229.24,240.68,7
219,229.04,240.46,7
219,228.84,240.24,7
219,228.64,240.03,7
219,228.45,239.82,7
219,228.26,239.61,7
219,228.07,239.41,7
219,227.89,239.20,7
218,227.69,238.99,7
220,227.54,238.80,7
219,227.37,238.60,7
219,227.20,238.41,7
219,227.04,238.21,7
219,226.88,238.02,7
216,226.66,237.80,7
219,226.51,237.61,7
218,226.34,237.42,7
217,226.15,237.21,7
217,225.97,237.01,7
217,225.79,236.81,7
218,225.63,236.62,7
218,225.48,236.44,7
217,225.31,236.24,7
217,225.14,236.05,7
217,224.98,235.86,7
216,224.80,235.66,7
216,224.62,235.46,7
215,224.43,235.26,7
216,224.26,235.07,7
216,224.10,234.88,7
217,223.96,234.70,7
215,223.78,234.50,7
215,223.60,234.30,7
215,223.43,234.11,7
215,223.26,233.92,7
213,223.06,233.71,7
214,222.87,233.51,7
214,222.70,233.32,7
213,222.50,233.12,7
213,222.31,232.91,7
212,222.11,232.71,7
213,221.92,232.51,7
213,221.75,232.31,7
213,221.57,232.12,7
212,221.38,231.92,7
212,221.19,231.72,7
211,220.99,231.51,7
211,220.79,231.31,7
211,220.59,231.10,7
212,220.42,230.91,7
211,220.23,230.71,7
211,220.05,230.52,7
212,219.89,230.33,7
211,219.71,230.14,7
211,219.54,229.95,7
210,219.34,229.75,7
211,219.18,229.56,7
211,219.01,229.37,7
211,218.85,229.19,7
211,218.70,229.01,7
211,218.54,228.83,7
211,218.39,228.65,7
211,218.24,228.47,7
209,218.06,228.28,7
210,217.90,228.10,7
209,217.72,227.91,7
209,217.55,227.72,7
209,217.37,227.53,7
209,217.21,227.34,7
207,217.00,227.14,7
208,216.82,226.95,7
208,216.65,226.76,7
208,216.47,226.57,7
207,216.28,226.38,7
207,216.10,226.18,7
207,215.92,225.99,7
206,215.72,225.79,7
207,215.54,225.60,7
206,215.35,225.41,7
207,215.19,225.22,7
206,215.00,225.03,7
207,214.84,224.85,7
205,214.65,224.65,7
205,214.45,224.46,7
206,214.28,224.27,7
206,214.12,224.09,7
205,213.94,223.90,7
205,213.76,223.71,7
205,213.58,223.52,7
203,213.37,223.32,7
205,213.20,223.13,7
204,213.02,222.94,7
204,212.84,222.75,7
204,212.66,222.56,7
204,212.49,222.38,7
203,212.30,222.19,7
204,212.13,222.00,7
203,211.95,221.81,7
203,211.77,221.63,7
204,211.62,221.45,7
203,211.44,221.26,7
202,211.25,221.07,7
202,211.07,220.88,7
202,210.89,220.69,7
202,210.71,220.51,7
203,210.56,220.33,7
201,210.36,220.14,7
203,210.22,219.97,7
201,210.03,219.78,7
201,209.85,219.59,7
201,209.68,219.40,7
203,209.54,219.24,7
201,209.37,219.06,7
203,209.24,218.90,7
202,209.10,218.73,7
202,208.96,218.56,7
203,208.84,218.40,7
202,208.70,218.24,7
202,208.57,218.08,7
202,208.44,217.92,7
201,208.29,217.75,7
201,208.14,217.58,7
202,208.02,217.42,7
201,207.88,217.26,7
201,207.74,217.10,7
201,207.61,216.94,7
201,207.47,216.78,7
201,207.34,216.62,7
201,207.22,216.46,7
200,207.07,216.30,7
200,206.93,216.14,7
200,206.79,215.97,7
200,206.66,215.81,7
200,206.52,215.66,7
199,206.37,215.49,7
199,206.23,215.32,7
199,206.08,215.16,7
199,205.94,215.00,7
198,205.78,214.83,7
199,205.65,214.67,7
198,205.49,214.50,7
198,205.34,214.34,7
198,205.20,214.18,7
199,205.07,214.02,7
197,204.91,213.85,7
197,204.75,213.69,7
197,204.60,213.52,7
199,204.49,213.37,7
197,204.34,213.21,7
198,204.21,213.06,7
197,204.06,212.90,7
197,203.92,212.74,7
197,203.78,212.58,7
197,203.65,212.43,7
197,203.52,212.27,7
197,203.39,212.12,7
196,203.24,211.96,7
196,203.09,211.80,7
196,202.95,211.64,7
195,202.79,211.47,7
197,202.68,211.33,7
195,202.52,211.17,7
195,202.37,211.00,7
193,202.19,210.82,7
195,202.04,210.67,7
195,201.90,210.51,7
194,201.74,210.34,7
194,201.59,210.18,7
194,201.44,210.02,7
195,201.31,209.87,7
194,201.16,209.71,7
194,201.02,209.55,7
193,200.86,209.39,7
193,200.70,209.22,7
193,200.55,209.06,7
193,200.40,208.90,7
192,200.23,208.73,7
192,200.06,208.56,7
192,199.90,208.40,7
191,199.72,208.22,7
192,199.57,208.06,7
192,199.42,207.90,7
191,199.25,207.73,7
191,199.08,207.56,7
191,198.92,207.40,7
190,198.74,207.23,7
189,198.55,207.04,7
191,198.40,206.88,7
191,198.25,206.72,7
191,198.11,206.57,7
190,197.94,206.40,7
189,197.76,206.23,7
190,197.61,206.06,7
189,197.44,205.89,7
189,197.27,205.73,7
189,197.10,205.56,7
188,196.92,205.38,7
188,196.74,205.21,7
189,196.59,205.05,7
188,196.42,204.88,7
188,196.25,204.71,7
189,196.10,204.55,7
188,195.94,204.38,7
189,195.80,204.23,7
187,195.63,204.06,7
187,195.45,203.89,7
187,195.28,203.72,7
189,195.16,203.57,7
187,195.00,203.41,7
187,194.84,203.24,7
188,194.70,203.09,7
188,194.56,202.94,7
188,194.43,202.79,7
189,194.32,202.65,7
188,194.20,202.50,7
187,194.05,202.35,7
187,193.91,202.20,7
186,193.76,202.03,7
187,193.62,201.88,7
186,193.47,201.73,7
187,193.34,201.58,7
186,193.19,201.42,7
185,193.03,201.26,7
185,192.87,201.10,7
186,192.73,200.94,7
185,192.58,200.78,7
185,192.42,200.63,7
185,192.28,200.47,7
185,192.13,200.32,7
185,191.99,200.16,7
185,191.85,200.01,7
183,191.67,199.84,7
183,191.50,199.67,7
183,191.33,199.51,7
183,191.16,199.34,7
183,191.00,199.18,7
182,190.82,199.01,7
182,190.64,198.84,7
182,190.47,198.67,7
182,190.30,198.50,7
181,190.11,198.33,7
185,190.01,198.19,7
181,189.83,198.02,7
181,189.65,197.85,7
182,189.50,197.69,7
181,189.33,197.53,7
181,189.16,197.36,7
181,189.00,197.20,7
180,188.82,197.02,7
180,188.64,196.85,7
180,188.47,196.69,7
179,188.28,196.51,7
180,188.12,196.34,7
180,187.95,196.18,7
180,187.80,196.02,7
179,187.62,195.85,7
180,187.47,195.69,7
179,187.30,195.52,7
178,187.11,195.35,7
180,186.97,195.19,7
179,186.81,195.03,7
179,186.65,194.87,7
179,186.50,194.71,7
179,186.35,194.56,7
179,186.20,194.40,7
179,186.06,194.25,7
179,185.92,194.09,7
181,185.82,193.96,7
179,185.68,193.81,7
180,185.57,193.68,7
179,185.44,193.53,7
179,185.31,193.38,7
179,185.18,193.24,7
180,185.08,193.11,7
178,184.94,192.96,7
179,184.82,192.82,7
177,184.66,192.66,7
178,184.53,192.51,7
178,184.40,192.37,7
179,184.29,192.23,7
178,184.17,192.09,7
177,184.02,191.94,7
177,183.88,191.79,7
177,183.74,191.64,7
178,183.63,191.51,7
177,183.50,191.36,7
177,183.37,191.22,7
176,183.22,191.07,7
177,183.10,190.92,7
176,182.95,190.78,7
177,182.83,190.64,7
177,182.72,190.50,7
177,182.60,190.37,7
177,182.49,190.23,7
177,182.38,190.10,7
177,182.27,189.97,7
182,182.27,189.89,7
178,182.18,189.77,7
179,182.12,189.66,7
179,182.06,189.56,7
179,182.00,189.45,7
178,181.92,189.34,7
177,181.82,189.21,7
177,181.72,189.09,7
177,181.63,188.97,7
177,181.53,188.85,7
177,181.44,188.73,7
177,181.35,188.61,7
177,181.27,188.50,7
178,181.20,188.39,7
177,181.12,188.28,7
178,181.06,188.18,7
176,180.95,188.05,7
178,180.90,187.95,7
177,180.82,187.84,7
178,180.76,187.75,7
178,180.71,187.65,7
178,180.65,187.55,7
178,180.60,187.46,7
178,180.55,187.36,7
177,180.48,187.26,7
178,180.43,187.17,7
179,180.40,187.08,7
177,180.33,186.98,7
178,180.28,186.89,7
177,180.22,186.79,7
177,180.15,186.70,7
177,180.09,186.60,7
178,180.05,186.51,7
177,179.99,186.42,7
177,179.93,186.32,7
177,179.87,186.23,7
176,179.79,186.13,7
177,179.74,186.04,7
177,179.68,185.95,7
176,179.61,185.85,7
176,179.54,185.75,7
177,179.48,185.66,7
177,179.44,185.58,7
177,179.39,185.49,7
177,179.34,185.40,7
177,179.29,185.32,7
177,179.25,185.24,7
179,179.24,185.17,7
177,179.20,185.09,7
177,179.15,185.01,7
177,179.11,184.93,7
177,179.07,184.85,7
178,179.05,184.78,7
178,179.02,184.72,7
177,178.98,184.64,7
177,178.94,184.56,7
177,178.91,184.49,7
177,178.87,184.41,7
177,178.83,184.34,7
177,178.79,184.26,7
177,178.76,184.19,7
176,178.70,184.11,7
176,178.65,184.03,7
176,178.60,183.95,7
177,178.56,183.88,7
177,178.53,183.81,7
177,178.50,183.74,7
177,178.47,183.68,7
177,178.44,183.61,7
177,178.41,183.54,7
176,178.37,183.47,7
176,178.32,183.39,7
176,178.27,183.32,7
177,178.25,183.26,7
176,178.20,183.18,7
177,178.18,183.12,7
176,178.13,183.05,7
175,178.07,182.97,7
175,178.01,182.89,7
176,177.97,182.82,7
175,177.91,182.74,7
175,177.85,182.66,7
175,177.79,182.59,7
175,177.74,182.51,7
175,177.68,182.44,7
175,177.63,182.36,7
175,177.58,182.29,7
175,177.53,182.22,7
175,177.48,182.14,7
174,177.41,182.06,7
173,177.32,181.97,7
175,177.27,181.90,7
177,177.27,181.85,7
176,177.24,181.79,7
175,177.20,181.73,7
176,177.17,181.67,7
178,177.19,181.63,7
176,177.16,181.58,7
176,177.14,181.52,7
177,177.14,181.48,7
177,177.14,181.43,7
176,177.11,181.38,7
176,177.09,181.32,7
176,177.07,181.27,7
176,177.05,181.22,7
177,177.05,181.17,7
176,177.03,181.12,7
175,176.99,181.06,7
176,176.97,181.01,7
175,176.93,180.95,7
175,176.89,180.89,7
177,176.89,180.85,7
175,176.85,180.79,7
175,176.82,180.74,7
175,176.78,180.68,7
175,176.74,180.62,7
175,176.71,180.57,7
175,176.67,180.51,7
175,176.64,180.46,7
175,176.61,180.40,7
175,176.58,180.35,7
175,176.54,180.29,7
175,176.51,180.24,7
175,176.48,180.19,7
175,176.45,180.14,7
175,176.42,180.08,7
175,176.40,180.03,7
175,176.37,179.98,7
176,176.36,179.94,7
175,176.33,179.89,7
175,176.31,179.85,7
175,176.28,179.80,7
175,176.26,179.75,7
175,176.23,179.70,7
175,176.21,179.65,7
175,176.18,179.61,7
176,176.18,179.57,7
175,176.15,179.53,7
175,176.13,179.48,7
175,176.11,179.44,7
175,176.09,179.39,7
176,176.08,179.36,7
175,176.06,179.31,7
177,176.08,179.29,7
175,176.06,179.25,7
174,176.02,179.20,7
176,176.02,179.16,7
175,176.00,179.12,7
175,175.98,179.08,7
178,176.02,179.07,7
175,176.00,179.03,7
175,175.98,178.99,7
175,175.96,178.95,7
176,175.96,178.92,7
175,175.94,178.88,7
175,175.92,178.84,7
175,175.90,178.80,7
176,175.91,178.77,7
175,175.89,178.74,7
175,175.87,178.70,7
177,175.89,178.68,7
176,175.89,178.66,7
175,175.88,178.62,7
175,175.86,178.58,7
176,175.86,178.56,7
176,175.86,178.53,7
177,175.89,178.52,7
176,175.89,178.49,7
176,175.89,178.47,7
177,175.91,178.45,7
177,175.94,178.44,7
177,175.96,178.42,7
177,175.98,178.41,7
177,176.00,178.39,7
176,176.00,178.37,7
177,176.02,178.36,7
176,176.02,178.33,7
176,176.02,178.31,7
176,176.02,178.29,7
177,176.04,178.27,7
177,176.06,178.26,7
178,176.09,178.26,7
177,176.11,178.25,7
177,176.13,178.23,7
177,176.15,178.22,7
177,176.17,178.21,7
177,176.18,178.20,7
177,176.20,178.19,7
177,176.21,178.17,7
176,176.21,178.15,7
176,176.21,178.13,7
176,176.20,178.11,7
177,176.22,178.10,7
176,176.21,178.08,7
177,176.23,178.07,7
177,176.24,178.06,7
177,176.26,178.04,7
177,176.27,178.03,7
177,176.29,178.02,7
177,176.30,178.01,7
178,176.34,178.01,7
177,176.35,178.00,7
179,176.40,178.01,7
180,176.48,178.03,7
180,176.55,178.05,7
180,176.61,178.07,7
182,176.72,178.11,7
185,176.89,178.18,7
183,177.01,178.23,7
183,177.13,178.28,7
183,177.25,178.32,7
183,177.36,178.37,7
181,177.44,178.40,7
183,177.55,178.44,7
182,177.64,178.48,7
183,177.74,178.52,7
185,177.89,178.59,7
184,178.01,178.64,7
185,178.15,178.71,7
182,178.23,178.74,7
184,178.34,178.79,7
183,178.44,178.83,7
184,178.55,178.89,7
184,178.66,178.94,7
185,178.78,179.00,7
184,178.89,179.05,7
185,179.01,179.11,8
185,179.13,179.17,8
185,179.25,179.22,9
185,179.36,179.28,9
188,179.53,179.37,9
186,179.66,179.44,9
186,179.79,179.50,9
185,179.89,179.56,9
186,180.02,179.62,9
187,180.16,179.69,9
186,180.27,179.76,9
185,180.37,179.81,9
186,180.48,179.87,9
187,180.61,179.94,9
186,180.72,180.00,9
187,180.84,180.07,9
187,180.97,180.14,9
187,181.09,180.21,9
185,181.17,180.26,9
187,181.28,180.33,9
186,181.38,180.38,9
187,181.49,180.45,9
186,181.58,180.50,9
186,181.67,180.56,9
187,181.78,180.62,9
187,181.88,180.69,9
188,182.00,180.76,9
188,182.12,180.83,9
187,182.22,180.90,9
187,182.32,180.96,9
189,182.45,181.04,9
189,182.58,181.12,9
191,182.75,181.22,9
192,182.93,181.32,9
191,183.09,181.42,9
193,183.29,181.54,9
196,183.55,181.68,9
196,183.80,181.82,9
197,184.06,181.98,9
197,184.32,182.13,9
197,184.57,182.27,9
199,184.86,182.44,9
199,185.14,182.61,9
200,185.44,182.78,9
201,185.75,182.96,9
201,186.06,183.14,9
201,186.36,183.32,9
201,186.65,183.50,9
201,186.94,183.67,9
201,187.22,183.85,9
203,187.53,184.04,9
205,187.88,184.25,9
206,188.24,184.47,9
206,188.60,184.68,9
208,188.99,184.91,9
210,189.41,185.17,9
213,189.88,185.44,9
211,190.30,185.70,9
212,190.74,185.96,9
211,191.14,186.21,9
212,191.56,186.47,9
214,192.01,186.75,9
215,192.47,187.03,9
214,192.90,187.30,9
215,193.34,187.57,9
215,193.77,187.85,9
216,194.22,188.13,9
217,194.67,188.42,9
217,195.12,188.71,9
216,195.54,188.98,9
216,195.95,189.25,9
216,196.35,189.52,9
219,196.80,189.81,9
217,197.20,190.08,9
218,197.62,190.36,9
218,198.03,190.64,9
219,198.45,190.92,9
221,198.90,191.22,9
221,199.34,191.52,9
221,199.77,191.82,9
221,200.20,192.11,9
221,200.61,192.40,9
223,201.06,192.70,9
225,201.54,193.03,9
223,201.97,193.32,9
225,202.43,193.64,9
223,202.84,193.94,9
224,203.27,194.24,9
224,203.68,194.53,9
225,204.11,194.84,9
227,204.56,195.16,9
227,205.01,195.48,9
228,205.47,195.80,9
228,205.92,196.13,9
231,206.42,196.47,9
231,206.92,196.82,9
233,207.44,197.18,9
232,207.93,197.53,9
233,208.43,197.88,9
232,208.90,198.23,9
234,209.40,198.58,9
235,209.92,198.95,9
238,210.48,199.34,9
237,211.01,199.71,9
237,211.53,200.09,9
237,212.04,200.46,9
239,212.58,200.84,9
239,213.11,201.22,9
241,213.66,201.62,9
241,214.21,202.01,9
243,214.79,202.42,9
243,215.35,202.83,9
243,215.90,203.23,9
244,216.46,203.64,9
245,217.04,204.05,9
245,217.59,204.46,9
246,218.16,204.88,9
248,218.76,205.31,9
250,219.38,205.76,9
250,220.00,206.20,9
249,220.58,206.63,9
249,221.15,207.05,9
249,221.70,207.47,9
250,222.27,207.90,9
249,222.80,208.31,9
250,223.35,208.72,9
249,223.86,209.13,9
251,224.40,209.54,9
253,224.97,209.98,9
252,225.52,210.40,9
254,226.09,210.84,9
256,226.68,211.29,9
256,227.27,211.73,9
258,227.88,212.20,9
261,228.55,212.69,9
259,229.16,213.15,9
262,229.81,213.64,9
264,230.50,214.14,9
266,231.21,214.66,9
269,231.96,215.20,9
269,232.70,215.74,9
268,233.41,216.26,9
269,234.12,216.79,9
272,234.88,217.34,9
273,235.64,217.90,9
275,236.43,218.47,9
276,237.22,219.05,9
278,238.04,219.63,9
277,238.81,220.21,9
279,239.62,220.80,9
281,240.45,221.40,9
283,241.30,222.01,9
285,242.17,222.64,9
286,243.05,223.28,9
287,243.93,223.92,9
289,244.83,224.57,9
290,245.73,225.22,9
292,246.66,225.89,9
293,247.58,226.56,9
293,248.49,227.22,9
296,249.44,227.91,9
297,250.39,228.60,9
296,251.31,229.28,9
297,252.22,229.95,9
295,253.07,230.60,9
297,253.95,231.27,9
301,254.89,231.97,9
297,255.74,232.62,9
297,256.56,233.26,9
297,257.37,233.90,9
298,258.18,234.54,9
301,259.04,235.20,9
302,259.90,235.87,9
302,260.74,236.53,9
304,261.61,237.21,9
306,262.49,237.89,9
306,263.36,238.58,9
305,264.20,239.24,9
305,265.01,239.90,9
305,265.81,240.55,9
304,266.58,241.18,9
305,267.34,241.82,9
303,268.06,242.43,9
305,268.80,243.06,9
305,269.52,243.68,9
305,270.23,244.29,9
305,270.93,244.90,9
308,271.67,245.53,9
308,272.39,246.15,9
307,273.09,246.76,9
310,273.82,247.39,9
312,274.59,248.04,9
313,275.36,248.69,9
312,276.09,249.32,9
311,276.79,249.94,9
311,277.47,250.55,9
311,278.14,251.16,9
312,278.82,251.76,9
313,279.50,252.38,9
314,280.19,252.99,9
314,280.87,253.60,9
313,281.51,254.20,9
314,282.16,254.79,9
317,282.86,255.42,9
316,283.52,256.02,9
316,284.17,256.62,9
317,284.83,257.23,9
317,285.47,257.82,9
317,286.10,258.42,9
319,286.76,259.02,9
319,287.40,259.62,9
319,288.04,260.21,9
323,288.74,260.84,9
324,289.44,261.47,9
322,290.09,262.08,9
324,290.77,262.70,9
326,291.47,263.33,9
328,292.20,263.98,9
329,292.94,264.63,9
329,293.66,265.27,9
329,294.37,265.91,9
329,295.06,266.54,9
329,295.74,267.17,9
328,296.39,267.77,9
329,297.04,268.39,9
328,297.66,268.98,9
329,298.28,269.58,9
328,298.88,270.17,9
328,299.46,270.74,9
328,300.03,271.32,9
329,300.61,271.89,9
328,301.16,272.46,9
328,301.70,273.01,9
328,302.22,273.56,9
327,302.72,274.09,9
328,303.22,274.63,9
329,303.74,275.18,9
326,304.18,275.69,9
326,304.62,276.19,9
327,305.07,276.70,9
327,305.51,277.20,9
328,305.96,277.71,9
329,306.42,278.22,9
328,306.85,278.72,9
328,307.27,279.21,9
329,307.71,279.71,9
331,308.17,280.22,9
332,308.65,280.74,9
331,309.10,281.24,9
330,309.51,281.73,9
330,309.92,282.21,9
332,310.37,282.71,9
331,310.78,283.19,9
331,311.18,283.67,9
331,311.58,284.15,9
330,311.95,284.60,9
330,312.31,285.06,9
329,312.64,285.50,9
329,312.97,285.93,9
329,313.29,286.36,9
328,313.58,286.78,9
327,313.85,287.18,9
328,314.14,287.59,9
327,314.39,287.98,9
327,314.64,288.37,9
327,314.89,288.76,9
325,315.09,289.12,9
325,315.29,289.48,9
326,315.51,289.85,9
324,315.68,290.19,9
324,315.84,290.53,9
324,316.01,290.86,9
323,316.15,291.18,9
324,316.30,291.51,9
323,316.44,291.83,9
322,316.55,292.13,9
321,316.64,292.42,9
322,316.74,292.71,9
321,316.83,292.99,9
321,316.91,293.27,9
321,316.99,293.55,9
320,317.05,293.82,9
321,317.13,294.09,9
320,317.19,294.35,9
319,317.23,294.59,9
319,317.26,294.84,9
319,317.30,295.08,9
319,317.33,295.32,9
318,317.34,295.55,9
318,317.36,295.77,9
317,317.35,295.98,9
318,317.36,296.20,9
317,317.36,296.41,9
316,317.33,296.61,9
316,317.30,296.80,9
316,317.28,296.99,9
315,317.23,297.17,9
315,317.19,297.35,9
314,317.12,297.52,9
314,317.06,297.68,9
315,317.02,297.86,9
313,316.94,298.01,9
313,316.86,298.16,9
312,316.76,298.30,9
312,316.67,298.43,9
312,316.57,298.57,9
311,316.46,298.69,9
310,316.33,298.81,9
309,316.19,298.91,9
309,316.04,299.01,9
309,315.90,299.11,9
308,315.74,299.20,9
307,315.57,299.27,9
307,315.40,299.35,9
307,315.23,299.43,9
310,315.13,299.53,9
306,314.94,299.60,9
307,314.78,299.67,9
305,314.59,299.73,9
305,314.40,299.78,9
306,314.23,299.84,9
305,314.04,299.89,9
305,313.86,299.94,9
305,313.69,299.99,9
304,313.49,300.03,9
303,313.28,300.06,9
303,313.08,300.09,9
302,312.86,300.11,9
303,312.66,300.14,9
301,312.43,300.15,9
301,312.20,300.16,9
299,311.93,300.15,9
302,311.73,300.17,9
300,311.50,300.16,9
300,311.27,300.16,9
299,311.02,300.15,9
298,310.76,300.13,9
298,310.51,300.11,9
298,310.26,300.09,9
297,309.99,300.06,9
297,309.73,300.03,9
297,309.48,300.00,9
295,309.19,299.95,9
295,308.91,299.90,9
295,308.63,299.85,9
295,308.35,299.80,9
294,308.07,299.74,9
293,307.77,299.67,9
293,307.47,299.61,9
293,307.18,299.54,9
292,306.88,299.46,9
292,306.58,299.39,9
291,306.27,299.31,9
291,305.96,299.22,9
289,305.62,299.12,9
290,305.31,299.03,9
290,305.01,298.94,9
290,304.70,298.85,9
289,304.39,298.75,9
288,304.06,298.64,9
289,303.76,298.55,9
289,303.47,298.45,9
288,303.16,298.35,9
287,302.83,298.23,9
288,302.54,298.13,9
287,302.23,298.02,9
287,301.92,297.91,9
287,301.62,297.80,9
285,301.29,297.67,9
285,300.97,297.55,9
285,300.65,297.42,9
284,300.31,297.29,9
284,299.99,297.15,9
284,299.67,297.02,9
283,299.33,296.88,9
283,299.01,296.74,9
283,298.69,296.61,9
283,298.37,296.47,9
281,298.03,296.32,9
282,297.71,296.17,9
281,297.37,296.02,9
282,297.06,295.88,9
280,296.72,295.72,9
280,296.39,295.56,9
280,296.06,295.41,9
279,295.72,295.24,9
280,295.40,295.09,9
279,295.08,294.93,9
278,294.74,294.76,10
277,294.38,294.58,10
276,294.01,294.40,10
276,293.65,294.21,10
276,293.30,294.03,10
276,292.95,293.85,10
275,292.59,293.66,10
275,292.24,293.48,10
275,291.90,293.29,10
274,291.54,293.10,10
274,291.19,292.91,10
273,290.83,292.71,10
272,290.45,292.50,10
273,290.10,292.31,10
273,289.76,292.11,10
272,289.40,291.91,10
271,289.03,291.70,10
271,288.67,291.50,10
271,288.32,291.29,10
270,287.95,291.08,10
270,287.60,290.87,10
269,287.22,290.65,10
269,286.86,290.43,10
269,286.50,290.22,10
268,286.13,290.00,10
268,285.77,289.78,10
268,285.41,289.56,10
267,285.05,289.33,10
266,284.66,289.10,10
266,284.29,288.87,10
267,283.95,288.65,10
266,283.59,288.42,10
265,283.21,288.19,10
265,282.85,287.96,10
265,282.49,287.73,10
264,282.12,287.49,10
264,281.76,287.26,10
263,281.39,287.01,10
264,281.04,286.78,10
262,280.66,286.54,10
262,280.28,286.29,10
262,279.92,286.05,10
261,279.54,285.80,10
261,279.17,285.55,10
260,278.79,285.29,10
260,278.41,285.04,10
260,278.04,284.79,10
259,277.66,284.53,10
259,277.29,284.28,10
258,276.90,284.01,10
259,276.54,283.76,10
258,276.17,283.51,10
257,275.79,283.24,10
258,275.43,282.99,10
257,275.07,282.73,10
257,274.70,282.47,10
256,274.33,282.21,10
256,273.96,281.94,10
256,273.60,281.68,10
255,273.23,281.42,10
255,272.87,281.15,10
255,272.51,280.89,10
254,272.14,280.62,10
254,271.78,280.36,10
253,271.40,280.08,10
253,271.03,279.81,10
253,270.67,279.54,10
253,270.32,279.28,10
252,269.95,279.01,10
252,269.59,278.74,10
252,269.24,278.47,10
251,268.88,278.19,10
251,268.52,277.92,10
251,268.17,277.65,10
251,267.83,277.39,10
250,267.47,277.11,10
250,267.12,276.84,10
250,266.78,276.57,10
249,266.42,276.30,10
249,266.07,276.02,10
248,265.71,275.74,10
248,265.36,275.47,10
248,265.01,275.19,10
248,264.67,274.92,10
248,264.34,274.65,10
247,263.99,274.37,10
247,263.65,274.10,10
246,263.30,273.82,10
246,262.95,273.54,10
245,262.59,273.26,10
243,262.20,272.95,10
244,261.84,272.66,10
244,261.48,272.38,10
245,261.15,272.10,10
244,260.81,271.82,10
244,260.47,271.54,10
244,260.14,271.27,10
243,259.80,270.99,10
242,259.44,270.70,10
243,259.11,270.42,10
243,258.79,270.15,10
242,258.46,269.86,10
242,258.13,269.59,10
241,257.78,269.30,10
242,257.47,269.03,10
241,257.14,268.75,10
241,256.82,268.47,10
240,256.48,268.18,10
239,256.13,267.89,10
239,255.79,267.60,10
239,255.45,267.32,10
239,255.12,267.03,10
239,254.80,266.75,10
238,254.46,266.47,10
238,254.14,266.18,10
238,253.81,265.90,10
237,253.48,265.61,10
237,253.15,265.32,10
237,252.82,265.04,10
237,252.51,264.76,10
239,252.24,264.50,10
237,251.93,264.23,10
237,251.63,263.96,10
237,251.34,263.69,10
237,251.05,263.42,10
237,250.77,263.16,10
237,250.50,262.89,10
236,250.21,262.62,10
238,249.96,262.38,10
235,249.66,262.10,10
235,249.37,261.83,10
235,249.08,261.57,10
236,248.82,261.31,10
234,248.53,261.04,10
234,248.24,260.77,10
235,247.97,260.51,10
237,247.75,260.27,10
232,247.44,259.99,10
233,247.15,259.72,10
233,246.86,259.45,10
233,246.59,259.19,10
232,246.30,258.92,10
232,246.01,258.65,10
232,245.73,258.38,10
234,245.49,258.14,10
231,245.20,257.87,10
231,244.92,257.60,10
232,244.66,257.34,10
231,244.39,257.08,10
230,244.10,256.81,10
231,243.84,256.55,10
229,243.54,256.27,10
231,243.29,256.02,10
227,242.97,255.73,10
229,242.69,255.46,10
227,242.37,255.18,10
228,242.09,254.91,10
228,241.80,254.64,10
227,241.51,254.36,10
227,241.22,254.09,10
228,240.95,253.83,10
227,240.67,253.56,10
227,240.40,253.29,10
227,240.13,253.03,10
227,239.87,252.77,10
227,239.61,252.51,10
226,239.34,252.25,10
226,239.07,251.99,10
226,238.81,251.73,10
226,238.56,251.47,10
225,238.28,251.20,10
228,238.08,250.97,10
224,237.80,250.70,10
224,237.52,250.43,10
224,237.25,250.17,10
224,236.99,249.91,10
223,236.71,249.64,10
222,236.41,249.36,10
222,236.12,249.09,10
222,235.84,248.82,10
223,235.58,248.56,10
222,235.31,248.29,10
221,235.03,248.02,10
221,234.75,247.75,10
220,234.45,247.47,10
220,234.16,247.20,10
219,233.86,246.92,10
219,233.56,246.64,10
220,233.29,246.37,10
220,233.02,246.11,10
219,232.74,245.84,10
219,232.47,245.57,10
218,232.18,245.29,10
218,231.90,245.02,10
218,231.62,244.75,10
218,231.35,244.48,10
218,231.08,244.22,10
218,230.82,243.96,10
217,230.54,243.69,10
218,230.29,243.43,10
217,230.02,243.16,10
217,229.76,242.90,10
216,229.49,242.63,10
216,229.22,242.37,10
216,228.95,242.10,10
215,228.68,241.83,10
215,228.40,241.56,10
216,228.15,241.31,10
216,227.91,241.06,10
215,227.65,240.80,10
215,227.40,240.54,10
214,227.13,240.27,10
214,226.87,240.01,10
214,226.61,239.75,10
214,226.36,239.49,10
218,226.19,239.28,10
214,225.95,239.02,10
213,225.69,238.76,10
213,225.44,238.51,10
214,225.21,238.26,10
213,224.96,238.01,10
213,224.72,237.76,10
212,224.47,237.50,10
213,224.24,237.26,10
213,224.01,237.01,10
212,223.77,236.76,10
212,223.54,236.52,10
211,223.29,236.26,10
212,223.06,236.02,10
212,222.84,235.78,10
211,222.60,235.53,10
212,222.39,235.29,10
211,222.16,235.05,10
210,221.92,234.80,10
209,221.66,234.54,10
209,221.41,234.29,10
209,221.16,234.03,10
208,220.90,233.77,10
210,220.68,233.54,10
208,220.43,233.28,10
208,220.18,233.03,10
207,219.91,232.77,10
207,219.66,232.51,10
207,219.40,232.26,10
207,219.16,232.00,10
207,218.91,231.75,10
208,218.69,231.52,10
207,218.46,231.27,10
207,218.23,231.03,10
207,218.01,230.79,10
207,217.79,230.55,10
207,217.57,230.31,10
207,217.36,230.08,10
207,217.15,229.85,10
208,216.97,229.63,10
207,216.77,229.41,10
206,216.55,229.17,10
205,216.32,228.93,10
206,216.12,228.70,10
205,215.89,228.46,10
205,215.68,228.23,10
206,215.48,228.01,10
205,215.27,227.78,10
205,215.07,227.55,10
204,214.85,227.31,10
204,214.63,227.08,10
203,214.40,226.84,10
203,214.17,226.60,10
205,213.99,226.38,10
204,213.79,226.16,10
204,213.59,225.94,10
203,213.38,225.71,10
204,213.19,225.49,10
203,212.99,225.27,10
202,212.77,225.04,10
202,212.55,224.80,10
199,212.28,224.55,10
204,212.12,224.34,10
202,211.91,224.12,10
203,211.73,223.91,10
201,211.52,223.68,10
201,211.31,223.45,10
201,211.10,223.23,10
201,210.90,223.00,10
201,210.70,222.78,10
201,210.51,222.57,10
201,210.32,222.35,10
200,210.11,222.13,10
199,209.89,221.90,10
199,209.67,221.67,10
199,209.46,221.44,10
200,209.27,221.23,10
201,209.10,221.02,10
198,208.88,220.79,10
198,208.66,220.57,10
199,208.47,220.35,10
199,208.28,220.14,10
198,208.08,219.91,10
199,207.89,219.71,10
200,207.74,219.51,10
199,207.56,219.30,10
197,207.35,219.08,10
198,207.16,218.87,10
199,207.00,218.67,10
198,206.82,218.46,10
197,206.62,218.25,10
197,206.43,218.04,10
199,206.28,217.85,10
198,206.12,217.65,10
197,205.94,217.44,10
195,205.72,217.22,10
196,205.52,217.01,10
197,205.35,216.81,10
196,205.16,216.60,10
196,204.98,216.39,10
197,204.82,216.20,10
196,204.65,216.00,10
194,204.43,215.78,10
195,204.24,215.57,10
195,204.06,215.36,10
194,203.86,215.15,10
194,203.66,214.94,10
193,203.45,214.72,10
196,203.30,214.53,10
195,203.13,214.34,10
193,202.93,214.12,10
193,202.73,213.91,10
194,202.56,213.71,10
194,202.39,213.51,10
193,202.20,213.31,10
193,202.01,213.11,10
196,201.89,212.93,10
193,201.72,212.74,10
192,201.52,212.53,10
192,201.33,212.32,10
193,201.16,212.13,10
193,201.00,211.94,10
192,200.82,211.74,10
192,200.64,211.54,10
195,200.53,211.38,10
193,200.38,211.19,10
190,200.17,210.98,10
191,199.99,210.78,10
191,199.81,210.58,10
191,199.63,210.39,10
190,199.44,210.18,10
191,199.27,209.99,10
192,199.13,209.81,10
191,198.96,209.62,10
189,198.77,209.42,10
189,198.57,209.21,10
190,198.40,209.02,10
190,198.23,208.83,10
189,198.05,208.63,10
190,197.89,208.45,10
190,197.73,208.26,10
191,197.59,208.09,10
194,197.52,207.95,10
190,197.37,207.77,10
190,197.22,207.59,10
190,197.08,207.41,10
189,196.92,207.23,10
189,196.76,207.05,10
191,196.64,206.89,10
190,196.51,206.72,10
189,196.36,206.54,10
192,196.27,206.40,10
189,196.13,206.22,10
190,196.01,206.06,10
189,195.87,205.89,10
188,195.71,205.71,10
191,195.61,205.56,10
190,195.50,205.41,10
187,195.33,205.22,10
187,195.16,205.04,10
187,195.00,204.86,10
187,194.84,204.68,10
187,194.68,204.51,10
187,194.53,204.33,10
188,194.40,204.17,10
188,194.27,204.01,10
186,194.11,203.83,10
186,193.94,203.65,10
187,193.81,203.48,10
186,193.65,203.31,10
186,193.50,203.13,10
185,193.33,202.95,10
185,193.16,202.77,10
187,193.04,202.61,10
184,192.86,202.43,10
184,192.68,202.24,10
184,192.51,202.06,10
184,192.34,201.88,10
183,192.15,201.69,10
183,191.97,201.51,10
184,191.81,201.33,10
185,191.67,201.17,10
182,191.48,200.98,10
182,191.29,200.79,10
182,191.10,200.60,10
183,190.94,200.42,10
182,190.76,200.24,10
181,190.57,200.05,10
183,190.41,199.87,10
184,190.29,199.72,10
181,190.10,199.53,10
181,189.92,199.34,10
181,189.74,199.16,10
182,189.59,198.99,10
182,189.43,198.82,10
182,189.28,198.65,10
184,189.18,198.50,10
182,189.04,198.34,10
181,188.87,198.17,10
183,188.76,198.01,10
182,188.62,197.85,10
182,188.49,197.70,10
182,188.36,197.54,10
181,188.21,197.37,10
184,188.13,197.24,10
183,188.03,197.10,10
179,187.85,196.92,10
180,187.69,196.75,10
182,187.57,196.60,10
180,187.42,196.43,10
180,187.27,196.27,10
181,187.15,196.12,10
183,187.07,195.99,10
182,186.97,195.85,10
179,186.81,195.68,10
179,186.65,195.51,10
180,186.52,195.35,10
179,186.37,195.19,10
179,186.22,195.03,10
178,186.05,194.86,10
178,185.89,194.69,10
178,185.74,194.52,10
178,185.58,194.36,10
178,185.43,194.19,10
178,185.28,194.03,10
177,185.12,193.86,10
178,184.97,193.70,10
177,184.81,193.54,10
178,184.68,193.38,10
177,184.52,193.22,10
177,184.37,193.06,10
177,184.23,192.90,10
177,184.08,192.74,10
176,183.92,192.57,10
175,183.74,192.39,10
175,183.57,192.22,10
177,183.43,192.07,10
176,183.29,191.91,10
175,183.12,191.74,10
176,182.98,191.58,10
176,182.84,191.42,10
175,182.68,191.26,10
175,182.53,191.10,10
175,182.38,190.94,10
176,182.25,190.79,10
175,182.11,190.63,10
175,181.96,190.47,10
173,181.78,190.30,10
174,181.63,190.13,10
174,181.48,189.97,10
174,181.33,189.81,10
175,181.20,189.67,10
174,181.06,189.51,10
173,180.89,189.34,10
174,180.76,189.19,10
174,180.62,189.04,10
173,180.47,188.88,10
173,180.32,188.72,10
173,180.17,188.56,10
174,180.05,188.42,10
173,179.91,188.26,10
173,179.77,188.11,10
173,179.64,187.96,10
173,179.50,187.81,10
173,179.37,187.66,10
173,179.24,187.51,10
172,179.10,187.36,10
172,178.96,187.21,10
172,178.82,187.05,10
172,178.68,186.90,10
172,178.55,186.75,10
172,178.42,186.61,10
172,178.29,186.46,10
172,178.16,186.32,10
172,178.04,186.17,10
173,177.94,186.04,10
173,177.84,185.91,10
172,177.72,185.77,10
173,177.63,185.64,10
173,177.54,185.52,10
173,177.45,185.39,10
173,177.36,185.27,10
171,177.23,185.13,10
174,177.17,185.01,10
172,177.06,184.88,10
172,176.96,184.76,10
172,176.86,184.63,10
173,176.78,184.51,10
173,176.71,184.40,10
173,176.63,184.28,10
172,176.54,184.16,10
171,176.43,184.03,10
171,176.32,183.90,10
172,176.24,183.78,10
171,176.13,183.65,10
172,176.05,183.53,10
172,175.97,183.42,10
171,175.87,183.29,10
171,175.77,183.17,10
171,175.68,183.05,10
171,175.58,182.93,10
171,175.49,182.81,10
171,175.40,182.69,10
170,175.29,182.57,10
170,175.19,182.44,10
171,175.10,182.33,10
171,175.02,182.21,10
172,174.96,182.11,10
171,174.88,182.00,10
171,174.80,181.89,10
172,174.75,181.79,10
174,174.73,181.71,10
173,174.70,181.63,10
173,174.66,181.54,10
172,174.61,181.44,10
173,174.58,181.36,10
173,174.55,181.28,10
173,174.52,181.19,10
172,174.47,181.10,10
172,174.42,181.01,10
173,174.39,180.93,10
172,174.34,180.84,10
172,174.29,180.75,10
171,174.23,180.65,10
173,174.20,180.58,10
173,174.18,180.50,10
173,174.16,180.43,10
173,174.13,180.35,10
175,174.15,180.30,10
175,174.17,180.25,10
174,174.16,180.18,10
174,174.16,180.12,10
174,174.16,180.06,10
174,174.15,180.00,10
175,174.17,179.95,10
175,174.19,179.90,10
175,174.20,179.85,10
174,174.20,179.79,10
174,174.20,179.74,10
174,174.19,179.68,10
174,174.19,179.62,10
174,174.18,179.56,10
173,174.16,179.50,10
173,174.14,179.43,10
174,174.13,179.38,10
173,174.11,179.32,10
171,174.05,179.23,10
172,174.01,179.16,10
173,173.99,179.10,10
174,173.99,179.05,10
174,173.99,179.00,10
174,173.99,178.95,10
175,174.01,178.91,10
173,173.99,178.85,10
174,173.99,178.80,10
174,173.99,178.75,10
174,173.99,178.71,10
174,173.99,178.66,10
173,173.97,178.60,10
174,173.97,178.56,10
173,173.95,178.50,10
173,173.93,178.44,10
172,173.89,178.38,10
177,173.96,178.37,10
173,173.94,178.31,10
173,173.92,178.26,10
173,173.90,178.21,10
173,173.88,178.16,10
173,173.86,178.10,10
173,173.85,178.05,10
171,173.79,177.98,10
171,173.73,177.91,10
172,173.70,177.85,10
171,173.65,177.78,10
172,173.61,177.73,10
171,173.56,177.66,10
172,173.53,177.60,10
172,173.50,177.55,10
171,173.45,177.48,10
171,173.40,177.42,10
171,173.35,177.35,10
171,173.30,177.29,10
172,173.28,177.24,10
171,173.23,177.17,10
172,173.21,177.12,10
171,173.16,177.06,10
171,173.12,177.00,10
171,173.08,176.94,10
171,173.04,176.88,10
171,173.00,176.82,10
172,172.98,176.77,10
172,172.96,176.73,10
172,172.94,176.68,10
171,172.90,176.62,10
171,172.86,176.57,10
171,172.82,176.51,10
171,172.79,176.46,10
171,172.75,176.40,10
170,172.70,176.34,10
171,172.66,176.28,10
171,172.63,176.23,10
171,172.60,176.18,10
171,172.56,176.13,10
171,172.53,176.07,10
172,172.52,176.03,10
171,172.49,175.98,10
173,172.50,175.95,10
172,172.49,175.91,10
172,172.48,175.88,10
171,172.45,175.83,10
171,172.42,175.78,10
171,172.40,175.73,10
171,172.37,175.68,10
171,172.34,175.64,10
172,172.33,175.60,10
170,172.29,175.54,10
171,172.26,175.50,10
171,172.24,175.45,10
170,172.19,175.40,10
170,172.15,175.35,10
170,172.10,175.29,10
170,172.06,175.24,10
171,172.04,175.20,10
170,172.00,175.14,10
169,171.94,175.08,10
170,171.90,175.03,10
169,171.84,174.97,10
169,171.79,174.91,10
169,171.73,174.85,10
170,171.70,174.80,10
170,171.66,174.76,10
170,171.63,174.71,10
169,171.58,174.65,10
170,171.54,174.61,10
170,171.51,174.56,10
171,171.50,174.52,10
171,171.49,174.49,10
171,171.48,174.45,10
172,171.49,174.43,10
172,171.50,174.40,10
172,171.51,174.38,10
173,171.54,174.37,10
173,171.57,174.35,10
172,171.58,174.33,10
172,171.59,174.31,10
171,171.58,174.27,10
172,171.59,174.25,10
171,171.57,174.22,10
171,171.56,174.19,10
171,171.55,174.15,10
171,171.54,174.12,10
171,171.53,174.09,10
171,171.52,174.06,10
171,171.51,174.03,10
172,171.52,174.01,10
171,171.51,173.98,10
171,171.50,173.95,10
172,171.51,173.93,10
171,171.50,173.90,10
171,171.49,173.87,10
171,171.48,173.84,10
171,171.47,173.81,10
172,171.48,173.80,10
172,171.49,173.78,10
171,171.48,173.75,10
172,171.49,173.73,10
171,171.48,173.71,10
170,171.45,173.67,10
171,171.44,173.64,10
171,171.43,173.62,10
172,171.44,173.60,10
171,171.44,173.57,10
172,171.45,173.56,10
172,171.46,173.54,10
171,171.45,173.52,10
172,171.46,173.50,10
171,171.45,173.48,10
173,171.48,173.47,10
173,171.51,173.47,10
173,171.54,173.46,10
174,171.59,173.47,10
174,171.64,173.47,10
174,171.69,173.48,10
174,171.73,173.48,10
174,171.78,173.49,10
174,171.82,173.49,10
174,171.87,173.50,10
175,171.93,173.51,10
175,171.99,173.53,10
175,172.05,173.54,10
175,172.11,173.56,10
174,172.15,173.56,10
174,172.18,173.57,10
174,172.22,173.57,10
174,172.26,173.58,10
175,172.31,173.59,10
175,172.36,173.60,10
175,172.42,173.62,10
175,172.47,173.63,10
176,172.54,173.66,10
175,172.59,173.67,10
175,172.64,173.68,10
175,172.68,173.70,10
176,172.75,173.72,10
175,172.80,173.73,10
175,172.84,173.74,10
175,172.88,173.76,10
175,172.93,173.77,10
175,172.97,173.78,10
176,173.03,173.80,10
178,173.13,173.85,10
178,173.22,173.89,10
178,173.32,173.93,10
178,173.41,173.97,10
179,173.53,174.02,10
180,173.65,174.08,10
181,173.80,174.15,10
181,173.95,174.22,10
183,174.13,174.30,10
183,174.30,174.39,11
185,174.52,174.50,11
184,174.71,174.59,12
182,174.85,174.67,12
184,175.04,174.76,12
184,175.22,174.85,12
185,175.41,174.95,12
186,175.62,175.06,12
184,175.79,175.15,12
187,176.02,175.27,12
186,176.21,175.38,12
185,176.39,175.48,12
185,176.56,175.57,12
185,176.73,175.67,12
185,176.90,175.76,12
186,177.08,175.86,12
186,177.26,175.96,12
185,177.41,176.05,12
186,177.58,176.15,12
186,177.75,176.25,12
185,177.90,176.34,12
185,178.04,176.42,12
185,178.18,176.51,12
186,178.33,176.61,12
186,178.49,176.70,12
186,178.64,176.79,12
186,178.79,176.88,12
184,178.89,176.96,12
185,179.01,177.04,12
185,179.13,177.12,12
188,179.31,177.22,12
186,179.44,177.31,12
184,179.53,177.38,12
186,179.66,177.47,12
185,179.77,177.54,12
184,179.85,177.61,12
184,179.94,177.67,12
184,180.02,177.73,12
184,180.10,177.80,12
186,180.22,177.88,12
184,180.29,177.94,12
186,180.41,178.02,12
186,180.52,178.10,12
185,180.61,178.17,12
185,180.70,178.24,12
186,180.80,178.31,12
187,180.93,178.40,12
186,181.03,178.48,12
188,181.17,178.57,12
187,181.28,178.66,12
188,181.42,178.75,12
189,181.57,178.85,12
187,181.68,178.93,12
188,181.80,179.02,12
189,181.95,179.12,12
189,182.09,179.22,12
188,182.21,179.31,12
189,182.34,179.41,12
189,182.48,179.50,12
187,182.57,179.58,12
188,182.68,179.66,12
190,182.82,179.77,12
189,182.95,179.86,12
189,183.07,179.95,12
188,183.17,180.03,12
194,183.38,180.17,12
189,183.49,180.26,12
188,183.58,180.34,12
188,183.67,180.41,12
188,183.76,180.49,12
188,183.84,180.56,12
187,183.91,180.63,12
188,183.99,180.70,12
188,184.07,180.77,12
188,184.15,180.85,12
187,184.21,180.91,12
188,184.28,180.98,12
189,184.38,181.06,12
189,184.47,181.14,12
188,184.54,181.21,12
190,184.65,181.30,12
191,184.77,181.39,12
191,184.90,181.49,12
192,185.04,181.59,12
192,185.18,181.70,12
195,185.38,181.83,12
193,185.53,181.94,12
192,185.66,182.04,12
191,185.77,182.13,12
191,185.87,182.22,12
193,186.01,182.33,12
194,186.17,182.45,12
198,186.41,182.60,12
199,186.66,182.77,12
199,186.91,182.93,12
198,187.13,183.08,12
203,187.45,183.28,12
205,187.80,183.49,12
205,188.14,183.71,12
205,188.48,183.92,12
207,188.85,184.15,12
210,189.27,184.41,12
211,189.71,184.68,12
210,190.11,184.93,12
210,190.51,185.18,12
213,190.96,185.46,12
214,191.42,185.75,12
213,191.85,186.02,12
215,192.32,186.31,12
218,192.83,186.62,12
220,193.37,186.96,12
220,193.91,187.29,12
221,194.45,187.63,12
223,195.02,187.98,12
226,195.64,188.36,12
228,196.29,188.76,12
228,196.92,189.15,12
228,197.54,189.54,12
229,198.17,189.93,12
228,198.77,190.31,12
228,199.35,190.69,12
227,199.90,191.05,12
229,200.49,191.43,12
227,201.02,191.79,12
228,201.56,192.15,12
230,202.13,192.53,12
232,202.72,192.92,12
232,203.31,193.31,12
232,203.88,193.70,12
233,204.46,194.09,12
233,205.04,194.48,12
233,205.59,194.87,12
235,206.18,195.27,12
237,206.80,195.69,12
239,207.44,196.12,12
239,208.07,196.55,12
239,208.69,196.97,12
239,209.30,197.39,12
240,209.91,197.82,12
239,210.49,198.23,12
240,211.08,198.65,12
241,211.68,199.07,12
241,212.27,199.49,12
242,212.86,199.92,12
242,213.45,200.34,12
242,214.02,200.75,12
244,214.62,201.19,12
244,215.21,201.61,12
244,215.78,202.04,12
244,216.35,202.46,12
243,216.88,202.86,12
242,217.38,203.26,12
242,217.87,203.64,12
243,218.38,204.04,12
246,218.93,204.46,12
249,219.53,204.90,12
248,220.10,205.33,12
249,220.68,205.77,12
252,221.30,206.23,12
252,221.92,206.69,12
254,222.56,207.16,12
256,223.23,207.65,12
255,223.86,208.12,12
256,224.51,208.60,12
257,225.16,209.09,12
258,225.81,209.58,12
261,226.52,210.09,12
263,227.25,210.62,12
264,227.98,211.15,12
262,228.66,211.66,12
262,229.33,212.16,12
266,230.06,212.70,12
268,230.82,213.26,12
267,231.54,213.79,12
267,232.25,214.33,12
267,232.95,214.85,12
267,233.63,215.37,12
271,234.38,215.93,12
273,235.15,216.50,12
272,235.89,217.06,12
276,236.69,217.65,12
277,237.49,218.24,12
281,238.37,218.87,12
281,239.22,219.49,12
282,240.07,220.11,12
282,240.91,220.73,12
283,241.75,221.35,12
285,242.62,221.99,12
288,243.53,222.65,12
291,244.48,223.33,12
291,245.41,224.01,12
290,246.30,224.67,12
288,247.13,225.30,12
291,248.01,225.96,12
291,248.87,226.61,12
291,249.71,227.26,12
290,250.52,227.88,12
295,251.41,228.55,12
297,252.32,229.24,12
297,253.21,229.92,12
297,254.09,230.59,12
299,254.99,231.27,12
302,255.93,231.98,12
302,256.85,232.68,12
303,257.77,233.38,12
307,258.76,234.12,12
308,259.74,234.86,12
307,260.69,235.58,12
307,261.61,236.29,12
311,262.60,237.04,12
311,263.57,237.78,12
312,264.54,238.52,12
312,265.49,239.26,12
315,266.48,240.01,12
313,267.41,240.74,12
315,268.36,241.49,12
318,269.35,242.25,12
319,270.34,243.02,12
319,271.32,243.78,12
321,272.31,244.55,12
323,273.33,245.34,12
326,274.38,246.14,12
324,275.37,246.92,12
327,276.40,247.72,12
328,277.44,248.52,12
328,278.45,249.32,12
329,279.46,250.12,12
328,280.43,250.89,12
329,281.40,251.68,12
330,282.37,252.46,12
330,283.32,253.23,12
329,284.24,253.99,12
332,285.19,254.77,12
334,286.17,255.56,12
337,287.19,256.38,12
335,288.14,257.16,12
338,289.14,257.97,12
341,290.18,258.80,12
344,291.25,259.66,12
343,292.29,260.49,12
345,293.34,261.33,12
347,294.42,262.19,12
349,295.51,263.06,12
350,296.60,263.93,12
350,297.67,264.79,12
350,298.71,265.64,12
349,299.72,266.47,12
351,300.74,267.32,12
350,301.73,268.15,12
351,302.71,268.98,12
350,303.66,269.79,12
351,304.61,270.60,12
352,305.55,271.41,12
350,306.44,272.20,12
351,307.33,272.99,12
351,308.21,273.77,12
350,309.04,274.53,12
350,309.86,275.28,12
350,310.67,276.03,12
350,311.45,276.77,12
351,312.24,277.51,12
353,313.06,278.27,12
353,313.86,279.01,12
354,314.66,279.76,12
355,315.47,280.52,12
356,316.28,281.27,12
358,317.11,282.04,12
358,317.93,282.80,12
359,318.75,283.56,12
358,319.54,284.30,12
356,320.27,285.02,12
359,321.04,285.76,12
358,321.78,286.48,12
358,322.50,287.20,12
358,323.21,287.91,12
359,323.93,288.62,12
360,324.65,289.33,12
358,325.32,290.02,12
358,325.97,290.70,12
358,326.61,291.37,12
358,327.24,292.04,12
358,327.85,292.70,12
357,328.44,293.34,12
359,329.05,294.00,12
358,329.63,294.64,12
358,330.20,295.27,12
361,330.81,295.93,12
357,331.34,296.54,12
356,331.83,297.13,12
357,332.33,297.73,12
356,332.81,298.31,12
356,333.27,298.89,12
357,333.74,299.47,12
356,334.19,300.04,12
355,334.61,300.59,12
355,335.01,301.13,12
356,335.43,301.68,12
355,335.82,302.21,12
354,336.19,302.73,12
355,336.56,303.25,12
354,336.91,303.76,12
354,337.25,304.26,12
353,337.57,304.75,12
353,337.88,305.23,12
352,338.16,305.70,12
351,338.42,306.15,12
351,338.67,306.60,12
351,338.92,307.05,12
350,339.14,307.48,12
349,339.33,307.89,12
349,339.53,308.30,12
348,339.70,308.70,12
348,339.86,309.09,12
348,340.03,309.48,12
347,340.17,309.86,12
346,340.28,310.22,12
346,340.40,310.58,12
346,340.51,310.93,12
345,340.60,311.27,12
345,340.69,311.61,12
344,340.75,311.93,12
343,340.80,312.24,12
342,340.82,312.54,12
342,340.85,312.83,12
341,340.85,313.12,12
340,340.83,313.39,12
340,340.81,313.65,12
339,340.78,313.91,12
338,340.72,314.15,12
338,340.67,314.38,12
338,340.62,314.62,12
336,340.52,314.83,12
336,340.43,315.05,12
336,340.34,315.26,12
335,340.24,315.45,12
335,340.13,315.65,12
335,340.03,315.84,12
334,339.91,316.02,12
335,339.81,316.21,12
333,339.67,316.38,12
332,339.52,316.54,12
332,339.37,316.69,12
331,339.20,316.84,12
331,339.04,316.98,12
331,338.88,317.12,12
330,338.70,317.25,12
330,338.53,317.37,12
329,338.34,317.49,12
328,338.13,317.59,12
328,337.93,317.70,12
327,337.71,317.79,12
327,337.49,317.88,12
327,337.28,317.98,12
327,337.08,318.07,12
325,336.84,318.13,12
325,336.60,318.20,12
323,336.33,318.25,12
324,336.08,318.31,12
324,335.84,318.37,12
324,335.60,318.42,12
323,335.35,318.47,12
323,335.10,318.51,12
323,334.86,318.56,12
322,334.61,318.59,12
321,334.33,318.62,12
321,334.07,318.64,12
320,333.79,318.65,12
320,333.51,318.67,12
319,333.22,318.67,12
320,332.95,318.68,12
320,332.70,318.70,12
318,332.40,318.69,12
318,332.11,318.68,12
318,331.83,318.68,12
317,331.53,318.66,12
317,331.24,318.64,12
316,330.94,318.62,12
317,330.66,318.60,12
316,330.37,318.57,12
315,330.06,318.54,12
315,329.76,318.50,12
314,329.44,318.46,12
313,329.11,318.40,12
314,328.81,318.36,12
313,328.50,318.31,12
313,328.19,318.25,12
312,327.86,318.19,12
311,327.53,318.12,12
311,327.19,318.05,12
310,326.85,317.97,12
310,326.51,317.89,12
309,326.16,317.80,12
309,325.82,317.71,12
309,325.48,317.62,12
308,325.13,317.53,12
307,324.77,317.42,12
307,324.42,317.32,12
306,324.05,317.20,12
306,323.69,317.09,12
305,323.31,316.97,12
307,322.99,316.87,12
305,322.63,316.75,12
305,322.27,316.64,12
304,321.91,316.51,12
303,321.53,316.37,12
303,321.16,316.24,12
303,320.80,316.11,12
302,320.42,315.97,12
302,320.05,315.83,12
301,319.67,315.68,12
302,319.32,315.54,12
301,318.95,315.40,12
300,318.57,315.24,12
300,318.20,315.09,12
299,317.82,314.93,12
300,317.46,314.78,12
300,317.11,314.63,12
301,316.79,314.50,12
299,316.43,314.34,12
298,316.07,314.18,12
298,315.70,314.02,12
298,315.35,313.86,12
298,315.00,313.70,12
297,314.64,313.53,12
296,314.27,313.36,12
299,313.96,313.21,12
298,313.65,313.06,12
295,313.27,312.88,12
294,312.89,312.69,12
294,312.51,312.50,13
294,312.14,312.32,13
293,311.76,312.12,13
292,311.36,311.92,13
293,310.99,311.73,13
294,310.65,311.56,13
291,310.26,311.35,13
291,309.88,311.15,13
290,309.48,310.94,13
290,309.09,310.73,13
290,308.71,310.52,13
289,308.31,310.30,13
292,307.99,310.12,13
290,307.63,309.92,13
287,307.21,309.69,13
287,306.81,309.46,13
287,306.41,309.24,13
287,306.03,309.02,13
286,305.63,308.79,13
286,305.23,308.56,13
288,304.89,308.35,13
287,304.53,308.14,13
283,304.10,307.89,13
283,303.68,307.64,13
283,303.26,307.39,13
283,302.86,307.15,13
285,302.50,306.93,13
284,302.13,306.70,13
283,301.75,306.46,13
284,301.39,306.24,13
282,301.01,305.99,13
282,300.63,305.75,13
281,300.23,305.51,13
281,299.85,305.26,13
281,299.47,305.02,13
281,299.10,304.78,13
283,298.78,304.56,13
282,298.44,304.34,13
279,298.06,304.08,13
279,297.67,303.83,13
278,297.28,303.57,13
278,296.90,303.32,13
277,296.50,303.05,13
281,296.19,302.83,13
277,295.80,302.58,13
277,295.43,302.32,13
275,295.02,302.05,13
275,294.62,301.78,13
275,294.23,301.51,13
275,293.84,301.24,13
275,293.47,300.98,13
276,293.12,300.73,13
274,292.73,300.46,13
274,292.36,300.20,13
274,291.99,299.94,13
273,291.61,299.67,13
273,291.24,299.40,13
272,290.85,299.13,13
271,290.46,298.85,13
272,290.09,298.58,13
271,289.71,298.30,13
271,289.33,298.03,13
270,288.95,297.75,13
270,288.57,297.47,13
270,288.20,297.20,13
269,287.81,296.91,13
269,287.44,296.64,13
269,287.07,296.36,13
268,286.69,296.08,13
268,286.31,295.79,13
267,285.93,295.51,13
268,285.57,295.23,13
268,285.22,294.96,13
268,284.87,294.69,13
266,284.49,294.40,13
267,284.14,294.13,13
267,283.80,293.86,13
268,283.49,293.60,13
268,283.18,293.34,13
267,282.85,293.08,13
267,282.54,292.82,13
266,282.20,292.55,13
266,281.88,292.28,13
266,281.56,292.02,13
264,281.21,291.74,13
264,280.87,291.46,13
264,280.53,291.19,13
265,280.22,290.93,13
265,279.91,290.67,13
265,279.62,290.41,13
264,279.30,290.15,13
264,279.00,289.89,13
264,278.70,289.63,13
