Teste de posicionamento 1.1(EMG ao centro do bíceps (Verde A, Vermelho B) + Ref no pulso) - 16/09/2024 - teste3 - 5 contrações
long frequencia = 1000;                 //frequência de aquisição do sinal, neste caso, 1000 sinais por segundo
float fator1 = 0.02, fator2 = 0.01;
float incerteza = 0.13;
float pico_basal = 130; // Mínimo para ser considerado um pico de contração
int filtro_horizontal=200000; //intervalo de 200ms valores não pode ter mais de 1 contração

Biceps_D,mediaMovel_1,mediaMovel_2,Contracao
87,1.74,0.87,0
89,3.49,1.75,0
88,5.18,2.61,0
87,6.81,3.46,0
86,8.40,4.28,0
85,9.93,5.09,0
86,11.45,5.90,0
87,12.96,6.71,0
86,14.42,7.50,0
87,15.87,8.30,0
86,17.28,9.08,0
85,18.63,9.83,0
87,20.00,10.61,0
87,21.34,11.37,0
85,22.61,12.11,0
83,23.82,12.82,0
85,25.04,13.54,0
85,26.24,14.25,0
86,27.44,14.97,0
86,28.61,15.68,0
85,29.74,16.37,0
85,30.84,17.06,0
86,31.94,17.75,0
84,32.98,18.41,0
85,34.03,19.08,0
86,35.06,19.75,0
84,36.04,20.39,0
84,37.00,21.02,0
85,37.96,21.66,0
85,38.90,22.30,0
86,39.85,22.93,0
84,40.73,23.55,0
85,41.61,24.16,0
84,42.46,24.76,0
84,43.29,25.35,0
84,44.11,25.94,0
85,44.92,26.53,0
84,45.71,27.10,0
84,46.47,27.67,0
84,47.22,28.23,0
85,47.98,28.80,0
84,48.70,29.35,0
84,49.40,29.90,0
84,50.10,30.44,0
85,50.79,30.99,0
84,51.46,31.52,0
84,52.11,32.04,0
86,52.79,32.58,0
85,53.43,33.11,0
84,54.04,33.62,0
84,54.64,34.12,0
84,55.23,34.62,0
83,55.78,35.10,0
84,56.35,35.59,0
84,56.90,36.07,0
84,57.44,36.55,0
83,57.95,37.02,0
84,58.48,37.49,0
86,59.03,37.97,0
84,59.53,38.43,0
83,60.00,38.88,0
84,60.48,39.33,0
84,60.95,39.78,0
84,61.41,40.22,0
83,61.84,40.65,0
84,62.28,41.08,0
88,62.80,41.55,0
85,63.24,41.98,0
83,63.64,42.39,0
83,64.02,42.80,0
84,64.42,43.21,0
83,64.79,43.61,0
82,65.14,43.99,0
82,65.48,44.37,0
80,65.77,44.73,0
83,66.11,45.11,0
82,66.43,45.48,0
88,66.86,45.91,0
83,67.18,46.28,0
83,67.50,46.65,0
82,67.79,47.00,0
82,68.07,47.35,0
80,68.31,47.68,0
82,68.59,48.02,0
84,68.89,48.38,0
82,69.16,48.72,0
82,69.41,49.05,0
82,69.66,49.38,0
84,69.95,49.72,0
81,70.17,50.04,0
83,70.43,50.37,0
82,70.66,50.68,0
82,70.89,51.00,0
82,71.11,51.31,0
82,71.33,51.61,0
82,71.54,51.92,0
84,71.79,52.24,0
82,71.99,52.53,0
82,72.19,52.83,0
82,72.39,53.12,0
83,72.60,53.42,0
83,72.81,53.72,0
81,72.97,53.99,0
82,73.15,54.27,0
81,73.31,54.54,0
82,73.49,54.81,0
81,73.64,55.07,0
82,73.80,55.34,0
81,73.95,55.60,0
82,74.11,55.86,0
81,74.25,56.11,0
80,74.36,56.35,0
81,74.49,56.60,0
81,74.62,56.84,0
80,74.73,57.07,0
80,74.84,57.30,0
83,75.00,57.56,0
81,75.12,57.80,0
80,75.22,58.02,0
80,75.31,58.24,0
80,75.41,58.45,0
80,75.50,58.67,0
80,75.59,58.88,0
80,75.68,59.09,0
81,75.78,59.31,0
80,75.87,59.52,0
80,75.95,59.73,0
80,76.03,59.93,0
83,76.17,60.16,0
80,76.25,60.36,0
80,76.32,60.55,0
79,76.38,60.74,0
80,76.45,60.93,0
80,76.52,61.12,0
80,76.59,61.31,0
80,76.66,61.50,0
79,76.70,61.67,0
80,76.77,61.86,0
80,76.83,62.04,0
78,76.86,62.20,0
79,76.90,62.36,0
79,76.94,62.53,0
78,76.96,62.69,0
79,77.00,62.85,0
80,77.06,63.02,0
79,77.10,63.18,0
78,77.12,63.33,0
78,77.14,63.48,0
79,77.18,63.63,0
80,77.23,63.79,0
78,77.25,63.94,0
79,77.28,64.09,0
79,77.32,64.24,0
78,77.33,64.37,0
78,77.34,64.51,0
79,77.38,64.65,0
79,77.41,64.80,0
78,77.42,64.93,0
79,77.45,65.07,0
78,77.46,65.20,0
78,77.47,65.33,0
81,77.55,65.48,0
80,77.59,65.63,0
79,77.62,65.76,0
78,77.63,65.89,0
78,77.64,66.01,0
79,77.66,66.14,0
78,77.67,66.26,0
78,77.68,66.37,0
78,77.68,66.49,0
78,77.69,66.60,0
78,77.70,66.72,0
79,77.72,66.84,0
84,77.85,67.01,0
78,77.85,67.12,0
78,77.85,67.23,0
78,77.86,67.34,0
78,77.86,67.45,0
78,77.86,67.55,0
78,77.87,67.66,0
78,77.87,67.76,0
80,77.91,67.88,0
78,77.91,67.98,0
78,77.91,68.08,0
78,77.92,68.18,0
77,77.90,68.27,0
78,77.90,68.37,0
77,77.88,68.45,0
78,77.88,68.55,0
75,77.83,68.61,0
77,77.81,68.70,0
77,77.79,68.78,0
79,77.82,68.88,0
77,77.80,68.96,0
78,77.81,69.05,0
77,77.79,69.13,0
77,77.77,69.21,0
76,77.74,69.28,0
77,77.72,69.36,0
78,77.73,69.44,0
77,77.71,69.52,0
77,77.70,69.59,0
76,77.67,69.66,0
77,77.65,69.73,0
77,77.64,69.80,0
77,77.63,69.88,0
76,77.59,69.94,0
77,77.58,70.01,0
77,77.57,70.08,0
78,77.58,70.16,0
77,77.57,70.23,0
76,77.54,70.28,0
77,77.53,70.35,0
76,77.50,70.41,0
76,77.47,70.46,0
76,77.44,70.52,0
76,77.41,70.57,0
76,77.38,70.63,0
76,77.35,70.68,0
76,77.32,70.73,0
77,77.32,70.80,0
76,77.29,70.85,0
75,77.25,70.89,0
76,77.22,70.94,0
75,77.18,70.98,0
77,77.17,71.04,0
76,77.15,71.09,0
76,77.13,71.14,0
77,77.12,71.20,0
75,77.08,71.24,0
76,77.06,71.29,0
76,77.04,71.33,0
76,77.02,71.38,0
76,77.00,71.43,0
76,76.98,71.47,0
76,76.96,71.52,0
77,76.96,71.57,0
76,76.94,71.62,0
76,76.92,71.66,0
76,76.90,71.70,0
76,76.88,71.75,0
76,76.87,71.79,0
76,76.85,71.83,0
76,76.83,71.87,0
76,76.82,71.91,0
75,76.78,71.94,0
77,76.78,72.00,0
76,76.77,72.04,0
76,76.75,72.07,0
76,76.74,72.11,0
76,76.72,72.15,0
76,76.71,72.19,0
76,76.69,72.23,0
76,76.68,72.27,0
74,76.63,72.28,0
76,76.61,72.32,0
76,76.60,72.36,0
76,76.59,72.39,0
76,76.58,72.43,0
74,76.53,72.45,0
75,76.50,72.47,0
76,76.49,72.51,0
76,76.48,72.54,0
76,76.47,72.58,0
75,76.44,72.60,0
76,76.43,72.64,0
76,76.42,72.67,0
74,76.37,72.68,0
74,76.32,72.70,0
74,76.28,72.71,0
76,76.27,72.74,0
75,76.25,72.76,0
74,76.20,72.78,0
76,76.20,72.81,0
76,76.19,72.84,0
75,76.17,72.86,0
74,76.13,72.87,0
76,76.12,72.90,0
76,76.12,72.94,0
74,76.08,72.95,0
73,76.02,72.95,0
75,76.00,72.97,0
74,75.96,72.98,0
74,75.92,72.99,0
74,75.88,73.00,0
76,75.88,73.03,0
74,75.84,73.04,0
74,75.81,73.05,0
75,75.79,73.07,0
76,75.80,73.10,0
74,75.76,73.11,0
75,75.74,73.12,0
76,75.75,73.15,0
74,75.71,73.16,0
74,75.68,73.17,0
74,75.65,73.18,0
78,75.69,73.23,0
75,75.68,73.24,0
74,75.65,73.25,0
74,75.61,73.26,0
76,75.62,73.29,0
74,75.59,73.29,0
74,75.56,73.30,0
74,75.53,73.31,0
73,75.48,73.30,0
76,75.49,73.33,0
74,75.46,73.34,0
74,75.43,73.34,0
75,75.42,73.36,0
76,75.43,73.39,0
74,75.40,73.39,0
74,75.37,73.40,0
76,75.39,73.43,0
76,75.40,73.45,0
74,75.37,73.46,0
74,75.34,73.46,0
76,75.36,73.49,0
74,75.33,73.49,0
76,75.34,73.52,0
74,75.32,73.52,0
74,75.29,73.53,0
74,75.26,73.53,0
74,75.24,73.54,0
76,75.25,73.56,0
74,75.23,73.57,0
74,75.20,73.57,0
74,75.18,73.57,0
74,75.16,73.58,0
74,75.13,73.58,0
74,75.11,73.59,0
74,75.09,73.59,0
73,75.05,73.59,0
74,75.03,73.59,0
76,75.04,73.61,0
74,75.02,73.62,0
74,75.00,73.62,0
74,74.98,73.63,0
74,74.96,73.63,0
72,74.90,73.61,0
74,74.89,73.62,0
74,74.87,73.62,0
72,74.81,73.60,0
72,74.76,73.59,0
72,74.70,73.57,0
73,74.67,73.57,0
72,74.61,73.55,0
72,74.56,73.54,0
72,74.51,73.52,0
72,74.46,73.50,0
72,74.41,73.49,0
72,74.36,73.48,0
74,74.35,73.48,0
73,74.33,73.48,0
72,74.28,73.46,0
72,74.24,73.45,0
74,74.23,73.45,0
73,74.21,73.45,0
74,74.20,73.45,0
73,74.18,73.45,0
72,74.13,73.43,0
72,74.09,73.42,0
74,74.09,73.43,0
74,74.09,73.43,0
72,74.05,73.42,0
72,74.01,73.40,0
76,74.05,73.43,0
72,74.00,73.41,0
73,73.98,73.41,0
72,73.94,73.40,0
72,73.91,73.38,0
72,73.87,73.37,0
71,73.81,73.34,0
72,73.77,73.33,0
72,73.74,73.32,0
72,73.70,73.30,0
72,73.67,73.29,0
71,73.62,73.27,0
72,73.58,73.26,0
72,73.55,73.24,0
72,73.52,73.23,0
71,73.47,73.21,0
73,73.46,73.21,0
72,73.43,73.19,0
71,73.38,73.17,0
72,73.36,73.16,0
72,73.33,73.15,0
71,73.28,73.13,0
71,73.24,73.11,0
71,73.19,73.09,0
72,73.17,73.07,0
71,73.12,73.05,0
71,73.08,73.03,0
73,73.08,73.03,0
70,73.02,73.00,0
72,73.00,72.99,0
72,72.98,72.98,0
73,72.98,72.98,0
72,72.96,72.97,0
70,72.90,72.94,0
71,72.86,72.92,0
72,72.84,72.91,0
71,72.81,72.90,0
70,72.75,72.87,0
70,72.70,72.84,0
71,72.66,72.82,0
72,72.65,72.81,0
70,72.60,72.78,0
70,72.54,72.76,0
71,72.51,72.74,0
70,72.46,72.71,0
70,72.41,72.68,0
70,72.37,72.66,0
71,72.34,72.64,0
70,72.29,72.61,0
70,72.25,72.59,0
70,72.20,72.56,0
71,72.18,72.55,0
72,72.17,72.54,0
69,72.11,72.50,0
66,71.99,72.44,0
71,71.97,72.43,0
70,71.93,72.40,0
70,71.89,72.38,0
70,71.85,72.35,0
71,71.84,72.34,0
71,71.82,72.33,0
70,71.78,72.30,0
70,71.75,72.28,0
71,71.73,72.27,0
70,71.70,72.24,0
72,71.70,72.24,0
72,71.71,72.24,0
71,71.69,72.23,0
70,71.66,72.21,0
70,71.63,72.18,0
72,71.64,72.18,0
71,71.62,72.17,0
70,71.59,72.15,0
70,71.56,72.13,0
71,71.55,72.12,0
71,71.54,72.10,0
70,71.51,72.08,0
70,71.48,72.06,0
70,71.45,72.04,0
70,71.42,72.02,0
70,71.39,72.00,0
69,71.34,71.97,0
70,71.31,71.95,0
70,71.29,71.93,0
72,71.30,71.93,0
70,71.28,71.91,0
70,71.25,71.89,0
71,71.25,71.88,0
70,71.22,71.87,0
72,71.24,71.87,0
70,71.21,71.85,0
70,71.19,71.83,0
70,71.16,71.81,0
70,71.14,71.79,0
71,71.14,71.79,0
70,71.11,71.77,0
70,71.09,71.75,0
70,71.07,71.73,0
70,71.05,71.72,0
70,71.03,71.70,0
70,71.01,71.68,0
70,70.99,71.66,0
69,70.95,71.64,0
68,70.89,71.60,0
70,70.87,71.59,0
70,70.85,71.57,0
70,70.84,71.55,0
70,70.82,71.54,0
69,70.78,71.51,0
70,70.77,71.50,0
69,70.73,71.47,0
69,70.70,71.45,0
69,70.66,71.42,0
70,70.65,71.41,0
68,70.60,71.38,0
70,70.59,71.36,0
69,70.55,71.34,0
69,70.52,71.31,0
69,70.49,71.29,0
71,70.50,71.29,0
69,70.47,71.27,0
68,70.42,71.23,0
69,70.39,71.21,0
70,70.39,71.20,0
69,70.36,71.18,0
68,70.31,71.14,0
68,70.27,71.11,0
71,70.28,71.11,0
68,70.23,71.08,0
68,70.19,71.05,0
68,70.15,71.02,0
69,70.12,71.00,0
68,70.08,70.97,0
67,70.02,70.93,0
68,69.98,70.90,0
69,69.96,70.88,0
68,69.92,70.85,0
68,69.88,70.82,0
69,69.86,70.81,0
69,69.85,70.79,0
69,69.83,70.77,0
67,69.77,70.73,0
68,69.74,70.71,0
69,69.72,70.69,0
70,69.73,70.68,0
68,69.69,70.65,0
68,69.66,70.63,0
69,69.65,70.61,0
69,69.63,70.60,0
70,69.64,70.59,0
68,69.61,70.56,0
68,69.58,70.54,0
67,69.52,70.50,0
68,69.49,70.48,0
68,69.46,70.45,0
70,69.47,70.45,0
70,69.49,70.44,0
68,69.46,70.42,0
68,69.43,70.40,0
69,69.42,70.38,0
71,69.45,70.39,0
70,69.46,70.38,0
70,69.47,70.38,0
71,69.50,70.39,0
70,69.51,70.38,0
70,69.52,70.38,0
70,69.53,70.37,0
71,69.56,70.38,0
72,69.61,70.40,0
70,69.62,70.39,0
70,69.63,70.39,0
71,69.65,70.40,0
71,69.68,70.40,0
70,69.69,70.40,0
70,69.69,70.39,0
70,69.70,70.39,0
70,69.70,70.39,0
70,69.71,70.38,0
70,69.72,70.38,0
70,69.72,70.37,0
70,69.73,70.37,0
72,69.77,70.39,0
70,69.78,70.38,0
70,69.78,70.38,0
70,69.79,70.37,0
71,69.81,70.38,0
70,69.81,70.38,0
71,69.84,70.38,0
72,69.88,70.40,0
69,69.86,70.39,0
71,69.89,70.39,0
70,69.89,70.39,0
72,69.93,70.40,0
71,69.95,70.41,0
70,69.95,70.41,0
71,69.97,70.41,0
70,69.97,70.41,0
70,69.98,70.40,0
71,70.00,70.41,0
70,70.00,70.41,0
70,70.00,70.40,0
72,70.04,70.42,0
72,70.08,70.43,0
73,70.13,70.46,0
73,70.19,70.48,0
72,70.23,70.50,0
72,70.26,70.51,0
72,70.30,70.53,0
76,70.41,70.58,0
73,70.46,70.61,0
72,70.49,70.62,0
71,70.50,70.63,0
72,70.53,70.64,0
73,70.58,70.66,0
73,70.63,70.69,0
74,70.70,70.72,0
73,70.75,70.74,0
72,70.77,70.76,0
72,70.79,70.77,0
74,70.86,70.80,0
72,70.88,70.81,0
74,70.94,70.84,0
73,70.99,70.87,0
72,71.01,70.88,0
74,71.07,70.91,0
73,71.10,70.93,0
72,71.12,70.94,0
73,71.16,70.96,0
74,71.22,70.99,0
74,71.27,71.02,0
74,71.33,71.05,0
75,71.40,71.09,0
74,71.45,71.12,0
76,71.54,71.17,0
75,71.61,71.21,0
76,71.70,71.25,0
77,71.81,71.31,0
75,71.87,71.35,0
76,71.95,71.40,0
78,72.07,71.46,0
76,72.15,71.51,0
76,72.23,71.55,0
75,72.28,71.59,0
76,72.36,71.63,0
76,72.43,71.67,0
76,72.50,71.72,0
76,72.57,71.76,0
76,72.64,71.80,0
75,72.69,71.83,0
74,72.71,71.86,0
76,72.78,71.90,0
76,72.84,71.94,0
78,72.95,72.00,0
76,73.01,72.04,0
76,73.07,72.08,0
76,73.13,72.12,0
76,73.18,72.16,0
78,73.28,72.22,0
78,73.38,72.27,0
79,73.49,72.34,0
79,73.60,72.41,0
78,73.69,72.46,0
82,73.85,72.56,0
84,74.06,72.67,0
82,74.21,72.77,0
82,74.37,72.86,0
82,74.52,72.95,0
81,74.65,73.03,0
82,74.80,73.12,0
82,74.94,73.21,0
82,75.08,73.30,0
81,75.20,73.37,0
82,75.34,73.46,0
82,75.47,73.55,0
82,75.60,73.63,0
82,75.73,73.71,0
84,75.90,73.82,0
82,76.02,73.90,0
82,76.14,73.98,0
82,76.25,74.06,0
82,76.37,74.14,0
82,76.48,74.22,0
82,76.59,74.30,0
82,76.70,74.37,0
82,76.81,74.45,0
83,76.93,74.53,0
82,77.03,74.61,0
82,77.13,74.68,0
82,77.23,74.76,0
81,77.30,74.82,0
81,77.38,74.88,0
82,77.47,74.95,0
81,77.54,75.01,0
82,77.63,75.08,0
81,77.70,75.14,0
81,77.76,75.20,0
82,77.85,75.27,0
82,77.93,75.33,0
81,77.99,75.39,0
82,78.07,75.46,0
82,78.15,75.52,0
82,78.23,75.59,0
81,78.28,75.64,0
83,78.38,75.72,0
81,78.43,75.77,0
82,78.50,75.83,0
83,78.59,75.90,0
84,78.70,75.98,0
83,78.79,76.05,0
82,78.85,76.11,0
83,78.93,76.18,0
83,79.01,76.25,0
87,79.17,76.36,0
83,79.25,76.42,0
83,79.33,76.49,0
84,79.42,76.56,0
82,79.47,76.62,0
84,79.56,76.69,0
84,79.65,76.77,0
85,79.76,76.85,0
84,79.84,76.92,0
84,79.93,76.99,0
83,79.99,77.05,0
84,80.07,77.12,0
83,80.13,77.18,0
84,80.20,77.25,0
83,80.26,77.30,0
84,80.33,77.37,0
84,80.41,77.44,0
82,80.44,77.48,0
82,80.47,77.53,0
85,80.56,77.60,0
85,80.65,77.68,0
83,80.70,77.73,0
82,80.72,77.77,0
83,80.77,77.83,0
84,80.83,77.89,0
84,80.90,77.95,0
86,81.00,78.03,0
85,81.08,78.10,0
87,81.20,78.19,0
88,81.33,78.29,0
86,81.43,78.36,0
90,81.60,78.48,0
88,81.73,78.57,0
86,81.81,78.65,0
89,81.96,78.75,0
88,82.08,78.84,0
87,82.17,78.93,0
86,82.25,79.00,0
86,82.33,79.07,0
88,82.44,79.16,0
86,82.51,79.22,0
88,82.62,79.31,0
88,82.73,79.40,0
88,82.83,79.49,0
89,82.96,79.58,0
88,83.06,79.66,0
88,83.16,79.75,0
88,83.25,79.83,0
88,83.35,79.91,0
88,83.44,79.99,0
90,83.57,80.09,0
88,83.66,80.17,0
88,83.75,80.25,0
88,83.83,80.33,0
90,83.96,80.42,0
90,84.08,80.52,0
88,84.16,80.60,0
88,84.23,80.67,0
89,84.33,80.75,0
91,84.46,80.86,0
88,84.53,80.93,0
88,84.60,81.00,0
90,84.71,81.09,0
90,84.82,81.18,0
90,84.92,81.26,0
92,85.06,81.37,0
90,85.16,81.46,0
90,85.26,81.54,0
90,85.35,81.63,0
90,85.44,81.71,0
92,85.58,81.82,0
92,85.70,81.92,0
90,85.79,82.00,0
90,85.87,82.08,0
91,85.98,82.17,0
90,86.06,82.25,0
92,86.18,82.34,0
92,86.29,82.44,0
90,86.37,82.52,0
95,86.54,82.64,0
96,86.73,82.77,0
92,86.83,82.87,0
90,86.90,82.94,0
91,86.98,83.02,0
92,87.08,83.11,0
90,87.14,83.18,0
91,87.22,83.25,0
94,87.35,83.36,0
95,87.50,83.48,0
96,87.67,83.60,0
94,87.80,83.71,0
93,87.90,83.80,0
95,88.05,83.91,0
93,88.15,84.00,0
94,88.26,84.10,0
96,88.42,84.22,0
97,88.59,84.35,0
96,88.74,84.47,0
94,88.84,84.56,0
95,88.97,84.67,0
97,89.13,84.79,0
96,89.26,84.90,0
95,89.38,85.00,0
95,89.49,85.10,0
95,89.60,85.20,0
95,89.71,85.30,0
95,89.81,85.40,0
97,89.96,85.51,0
95,90.06,85.61,0
96,90.18,85.71,0
95,90.27,85.80,0
97,90.41,85.92,0
96,90.52,86.02,0
95,90.61,86.11,0
95,90.70,86.20,0
99,90.86,86.32,0
98,91.01,86.44,0
98,91.15,86.56,0
98,91.28,86.67,0
97,91.40,86.77,0
100,91.57,86.91,0
103,91.80,87.07,0
103,92.02,87.23,0
103,92.24,87.38,0
104,92.48,87.55,0
102,92.67,87.70,0
103,92.87,87.85,0
106,93.14,88.03,0
107,93.41,88.22,0
109,93.73,88.43,0
108,94.01,88.62,0
107,94.27,88.81,0
106,94.51,88.98,0
107,94.76,89.16,0
107,95.00,89.34,0
109,95.28,89.53,0
113,95.64,89.77,0
111,95.94,89.98,0
111,96.24,90.19,0
108,96.48,90.37,0
109,96.73,90.56,0
109,96.97,90.74,0
107,97.18,90.90,0
109,97.41,91.08,0
112,97.70,91.29,0
111,97.97,91.49,0
111,98.23,91.68,0
107,98.41,91.84,0
109,98.62,92.01,0
111,98.86,92.20,0
111,99.11,92.39,0
111,99.35,92.57,0
113,99.62,92.78,0
113,99.89,92.98,0
113,100.15,93.18,0
112,100.39,93.37,0
113,100.64,93.56,0
116,100.94,93.79,0
112,101.17,93.97,0
113,101.40,94.16,0
114,101.65,94.36,0
113,101.88,94.55,0
112,102.08,94.72,0
113,102.30,94.90,0
113,102.52,95.08,0
114,102.75,95.27,0
114,102.97,95.46,0
114,103.19,95.65,0
118,103.49,95.87,0
114,103.70,96.05,0
115,103.92,96.24,0
117,104.19,96.45,0
117,104.44,96.65,0
118,104.71,96.87,0
116,104.94,97.06,0
116,105.16,97.25,0
117,105.40,97.45,0
120,105.69,97.67,0
120,105.98,97.89,0
122,106.30,98.14,0
120,106.57,98.35,0
120,106.84,98.57,0
124,107.18,98.82,0
122,107.48,99.06,0
121,107.75,99.28,0
120,107.99,99.48,0
122,108.27,99.71,0
122,108.55,99.93,0
124,108.86,100.17,0
121,109.10,100.38,0
124,109.40,100.62,0
123,109.67,100.84,0
127,110.02,101.10,0
129,110.40,101.38,0
125,110.69,101.62,0
127,111.01,101.87,0
129,111.37,102.14,0
132,111.79,102.44,0
132,112.19,102.74,0
131,112.57,103.02,0
133,112.98,103.32,0
131,113.34,103.60,0
128,113.63,103.84,0
133,114.02,104.13,0
133,114.40,104.42,0
131,114.73,104.69,0
131,115.05,104.95,0
132,115.39,105.22,0
133,115.75,105.50,0
134,116.11,105.78,0
133,116.45,106.05,0
133,116.78,106.32,0
133,117.10,106.59,0
133,117.42,106.85,0
135,117.77,107.14,0
134,118.10,107.40,0
135,118.44,107.68,0
134,118.75,107.94,0
135,119.07,108.21,0
135,119.39,108.48,0
134,119.68,108.74,0
135,119.99,109.00,0
141,120.41,109.32,0
141,120.82,109.64,0
141,121.22,109.95,0
139,121.58,110.24,0
141,121.97,110.55,0
142,122.37,110.86,0
141,122.74,111.16,0
142,123.13,111.47,0
149,123.64,111.85,0
149,124.15,112.22,0
148,124.63,112.58,0
145,125.04,112.90,0
147,125.48,113.24,0
151,125.99,113.62,0
155,126.57,114.03,0
157,127.17,114.46,0
157,127.77,114.89,0
153,128.28,115.27,0
156,128.83,115.68,0
165,129.55,116.17,0
165,130.26,116.66,0
167,131.00,117.16,0
162,131.62,117.61,0
165,132.29,118.08,0
167,132.98,118.57,0
168,133.68,119.07,0
167,134.35,119.55,0
166,134.98,120.01,0
165,135.58,120.46,0
165,136.17,120.91,0
165,136.74,121.35,0
169,137.39,121.82,0
168,138.00,122.29,0
167,138.58,122.73,0
167,139.15,123.18,0
171,139.79,123.65,0
172,140.43,124.14,0
177,141.16,124.67,0
179,141.92,125.21,0
175,142.58,125.71,0
181,143.35,126.26,0
183,144.14,126.83,0
186,144.98,127.42,0
188,145.84,128.03,0
187,146.66,128.62,0
186,147.45,129.19,0
191,148.32,129.81,0
188,149.11,130.39,0
189,149.91,130.98,0
187,150.65,131.54,0
187,151.38,132.09,0
187,152.09,132.64,0
187,152.79,133.18,0
192,153.58,133.77,0
191,154.32,134.34,0
193,155.10,134.93,0
197,155.94,135.55,0
195,156.72,136.15,0
196,157.50,136.74,0
201,158.37,137.39,0
200,159.21,138.01,0
198,159.98,138.61,0
197,160.72,139.20,0
199,161.49,139.79,0
197,162.20,140.37,0
203,163.01,140.99,0
205,163.85,141.63,0
205,164.68,142.27,0
204,165.46,142.88,0
208,166.31,143.53,0
209,167.17,144.19,0
207,167.96,144.82,0
208,168.76,145.45,0
207,169.53,146.07,0
207,170.28,146.67,0
208,171.03,147.29,0
207,171.75,147.88,0
207,172.46,148.48,0
207,173.15,149.06,0
207,173.83,149.64,0
207,174.49,150.21,0
205,175.10,150.76,0
205,175.70,151.30,0
207,176.32,151.86,0
205,176.90,152.39,0
205,177.46,152.92,0
210,178.11,153.49,0
209,178.73,154.04,0
209,179.33,154.59,0
209,179.93,155.14,0
207,180.47,155.66,0
212,181.10,156.22,0
213,181.74,156.79,0
214,182.38,157.36,0
211,182.95,157.90,0
215,183.59,158.47,0
217,184.26,159.05,0
213,184.84,159.59,0
217,185.48,160.17,0
219,186.15,160.75,0
221,186.85,161.36,0
217,187.45,161.91,0
220,188.10,162.49,0
223,188.80,163.10,0
220,189.42,163.67,0
221,190.06,164.24,0
223,190.71,164.83,0
220,191.30,165.38,0
220,191.87,165.93,0
219,192.42,166.46,0
220,192.97,166.99,0
220,193.51,167.52,0
219,194.02,168.04,0
221,194.56,168.57,0
219,195.05,169.07,0
219,195.53,169.57,0
218,195.98,170.06,0
218,196.42,170.54,0
217,196.83,171.00,0
217,197.23,171.46,0
221,197.71,171.96,0
221,198.17,172.45,0
219,198.59,172.91,0
220,199.02,173.38,0
223,199.50,173.88,0
225,200.01,174.39,0
221,200.43,174.86,0
221,200.84,175.32,0
221,201.24,175.77,0
218,201.58,176.20,0
220,201.95,176.63,0
219,202.29,177.06,0
221,202.66,177.50,0
219,202.99,177.91,0
219,203.31,178.32,0
219,203.62,178.73,0
219,203.93,179.13,0
219,204.23,179.53,0
219,204.53,179.93,0
218,204.80,180.31,0
217,205.04,180.67,0
218,205.30,181.05,0
217,205.53,181.41,0
217,205.76,181.76,0
218,206.01,182.13,0
217,206.23,182.47,0
216,206.42,182.81,0
216,206.61,183.14,0
216,206.80,183.47,0
216,206.99,183.79,0
215,207.15,184.11,0
215,207.30,184.42,0
214,207.44,184.71,0
215,207.59,185.01,0
215,207.74,185.31,0
215,207.88,185.61,0
213,207.98,185.89,0
213,208.08,186.16,0
213,208.18,186.42,0
215,208.32,186.71,0
212,208.39,186.96,0
214,208.50,187.23,0
213,208.59,187.49,0
213,208.68,187.75,0
213,208.77,188.00,0
213,208.85,188.25,0
214,208.96,188.51,0
211,209.00,188.73,0
215,209.12,188.99,0
211,209.16,189.21,0
211,209.19,189.43,0
210,209.21,189.64,0
210,209.22,189.84,0
211,209.26,190.05,0
211,209.29,190.26,0
209,209.29,190.45,0
211,209.32,190.66,0
209,209.32,190.84,0
208,209.29,191.01,0
209,209.28,191.19,0
209,209.28,191.37,0
209,209.27,191.54,0
209,209.27,191.72,0
208,209.24,191.88,0
207,209.20,192.03,0
207,209.15,192.18,0
207,209.11,192.33,0
207,209.07,192.48,0
207,209.03,192.62,0
206,208.97,192.76,0
206,208.91,192.89,0
205,208.83,193.01,0
207,208.79,193.15,0
207,208.76,193.29,0
205,208.68,193.41,0
205,208.61,193.52,0
205,208.54,193.64,0
204,208.44,193.74,0
205,208.38,193.85,0
205,208.31,193.96,0
205,208.24,194.07,0
202,208.12,194.15,0
204,208.04,194.25,0
203,207.93,194.34,0
204,207.86,194.44,0
204,207.78,194.53,0
204,207.70,194.63,0
203,207.61,194.71,0
204,207.54,194.80,0
202,207.43,194.88,0
203,207.34,194.96,0
201,207.21,195.02,0
202,207.11,195.09,0
201,206.98,195.15,0
201,206.86,195.20,0
200,206.73,195.25,0
200,206.59,195.30,0
200,206.46,195.35,0
199,206.31,195.38,0
199,206.17,195.42,0
199,206.02,195.46,0
198,205.86,195.48,0
198,205.70,195.51,0
196,205.51,195.51,0
197,205.34,195.53,0
197,205.17,195.54,0
196,204.99,195.55,0
196,204.81,195.55,0
196,204.63,195.55,0
197,204.48,195.57,0
196,204.31,195.57,0
195,204.13,195.57,0
195,203.94,195.56,0
195,203.76,195.56,0
195,203.59,195.55,0
194,203.40,195.54,0
193,203.19,195.51,0
194,203.01,195.49,0
193,202.81,195.47,0
193,202.61,195.45,0
193,202.42,195.42,0
193,202.23,195.40,0
193,202.04,195.37,0
192,201.84,195.34,0
191,201.63,195.30,0
191,201.41,195.25,0
191,201.21,195.21,0
190,200.98,195.16,0
190,200.76,195.11,0
190,200.55,195.06,0
189,200.32,194.99,0
189,200.09,194.93,0
189,199.87,194.88,0
189,199.65,194.82,0
189,199.44,194.76,0
189,199.23,194.70,0
187,198.98,194.62,0
189,198.78,194.57,0
187,198.55,194.49,0
187,198.32,194.42,0
187,198.09,194.34,0
186,197.85,194.26,0
190,197.69,194.22,0
187,197.48,194.14,0
185,197.23,194.05,0
185,196.98,193.96,0
185,196.74,193.87,0
185,196.51,193.78,0
185,196.28,193.70,0
184,196.03,193.60,0
184,195.79,193.50,0
183,195.54,193.40,0
183,195.29,193.29,0
183,195.04,193.19,0
182,194.78,193.08,0
181,194.50,192.96,0
182,194.25,192.85,0
182,194.01,192.74,0
180,193.73,192.61,0
181,193.47,192.50,0
181,193.23,192.38,0
180,192.96,192.26,0
179,192.68,192.13,0
181,192.45,192.01,0
179,192.18,191.88,0
180,191.94,191.77,0
179,191.68,191.64,1
179,191.42,191.51,1
179,191.17,191.39,1
179,190.93,191.26,1
179,190.69,191.14,1
180,190.48,191.03,1
178,190.23,190.90,1
178,189.98,190.77,1
177,189.72,190.63,1
177,189.47,190.50,1
177,189.22,190.36,1
176,188.96,190.22,1
176,188.70,190.07,1
175,188.42,189.92,1
175,188.16,189.77,1
175,187.89,189.63,1
175,187.63,189.48,1
175,187.38,189.34,1
175,187.13,189.19,1
175,186.89,189.05,1
175,186.65,188.91,1
173,186.38,188.75,1
174,186.13,188.60,1
173,185.87,188.45,1
174,185.63,188.30,1
173,185.38,188.15,1
173,185.13,188.00,1
173,184.89,187.85,1
172,184.63,187.69,1
172,184.38,187.53,1
171,184.11,187.37,1
172,183.87,187.21,1
171,183.61,187.05,1
171,183.36,186.89,1
171,183.11,186.73,1
169,182.83,186.56,1
170,182.57,186.39,1
171,182.34,186.24,1
169,182.08,186.06,1
169,181.81,185.89,1
169,181.56,185.72,1
169,181.31,185.56,1
168,181.04,185.38,1
168,180.78,185.21,1
168,180.52,185.04,1
168,180.27,184.86,1
169,180.05,184.71,1
168,179.81,184.54,1
167,179.55,184.36,1
167,179.30,184.19,1
167,179.05,184.02,1
167,178.81,183.85,1
168,178.60,183.69,1
166,178.34,183.51,1
166,178.10,183.34,1
166,177.86,183.16,1
167,177.64,183.00,1
165,177.39,182.82,1
166,177.16,182.65,1
164,176.90,182.47,1
165,176.66,182.29,1
164,176.40,182.11,1
164,176.16,181.93,1
164,175.91,181.75,1
163,175.65,181.56,1
163,175.40,181.38,1
163,175.15,181.19,1
163,174.91,181.01,1
162,174.65,180.82,1
161,174.38,180.62,1
162,174.13,180.44,1
161,173.87,180.24,1
162,173.63,180.06,1
162,173.40,179.88,1
161,173.15,179.69,1
161,172.91,179.50,1
161,172.67,179.32,1
160,172.42,179.13,1
160,172.17,178.93,1
160,171.92,178.74,1
159,171.67,178.55,1
159,171.41,178.35,1
159,171.16,178.16,1
159,170.92,177.97,1
160,170.70,177.79,1
159,170.47,177.60,1
157,170.20,177.39,1
158,169.96,177.20,1
158,169.72,177.01,1
158,169.48,176.82,1
159,169.27,176.64,1
157,169.03,176.44,1
157,168.79,176.25,1
157,168.55,176.06,1
157,168.32,175.86,1
157,168.09,175.68,1
157,167.87,175.49,1
156,167.63,175.29,1
156,167.40,175.10,1
157,167.19,174.92,1
155,166.95,174.72,1
156,166.73,174.53,1
155,166.50,174.34,1
155,166.27,174.15,1
155,166.04,173.95,1
156,165.84,173.77,1
154,165.60,173.58,1
155,165.39,173.39,1
153,165.14,173.19,1
153,164.90,172.99,1
153,164.66,172.79,1
154,164.45,172.60,1
153,164.22,172.40,1
153,164.00,172.21,1
153,163.78,172.02,1
152,163.54,171.82,1
153,163.33,171.63,1
152,163.10,171.43,1
152,162.88,171.24,1
152,162.66,171.04,1
152,162.45,170.85,1
151,162.22,170.66,1
151,162.00,170.46,1
151,161.78,170.26,1
152,161.58,170.08,1
153,161.41,169.91,1
150,161.18,169.71,1
150,160.96,169.51,1
151,160.76,169.33,1
150,160.54,169.14,1
150,160.33,168.94,1
149,160.11,168.75,1
151,159.92,168.57,1
150,159.73,168.38,1
150,159.53,168.20,1
150,159.34,168.02,1
149,159.13,167.83,1
149,158.93,167.64,1
150,158.75,167.46,1
152,158.62,167.31,1
150,158.44,167.13,1
150,158.28,166.96,1
149,158.09,166.78,1
149,157.91,166.61,1
149,157.73,166.43,1
151,157.60,166.27,1
149,157.42,166.10,1
149,157.26,165.93,1
149,157.09,165.76,1
149,156.93,165.59,1
149,156.77,165.43,1
148,156.59,165.25,1
148,156.42,165.08,1
147,156.23,164.90,1
148,156.07,164.73,1
147,155.89,164.55,1
149,155.75,164.40,1
148,155.60,164.23,1
147,155.42,164.06,1
147,155.25,163.89,1
147,155.09,163.72,1
147,154.93,163.56,1
147,154.77,163.39,1
145,154.57,163.21,1
149,154.46,163.06,1
146,154.29,162.89,1
145,154.11,162.71,1
145,153.93,162.54,1
145,153.75,162.36,1
145,153.57,162.19,1
145,153.40,162.02,1
145,153.23,161.85,1
145,153.07,161.68,1
145,152.91,161.51,1
145,152.75,161.35,1
145,152.59,161.18,1
145,152.44,161.02,1
146,152.31,160.87,1
144,152.15,160.70,1
144,151.98,160.53,1
143,151.80,160.36,1
145,151.67,160.21,1
146,151.55,160.06,1
144,151.40,159.90,1
144,151.26,159.74,1
145,151.13,159.60,1
145,151.01,159.45,1
144,150.87,159.30,1
145,150.75,159.15,1
143,150.60,158.99,1
143,150.44,158.83,1
143,150.29,158.67,1
144,150.17,158.53,1
143,150.03,158.37,1
142,149.86,158.21,1
141,149.69,158.04,1
141,149.51,157.87,1
141,149.34,157.70,1
141,149.18,157.53,1
141,149.01,157.36,1
141,148.85,157.20,1
141,148.70,157.04,1
141,148.54,156.88,1
141,148.39,156.72,1
141,148.24,156.56,1
141,148.10,156.41,1
141,147.96,156.25,1
141,147.82,156.10,1
139,147.64,155.93,1
141,147.51,155.78,1
141,147.38,155.63,1
141,147.25,155.49,1
140,147.11,155.33,1
139,146.94,155.17,1
140,146.80,155.02,1
140,146.67,154.87,1
139,146.51,154.71,1
139,146.36,154.55,1
139,146.22,154.39,1
138,146.05,154.23,1
139,145.91,154.08,1
137,145.73,153.91,1
138,145.58,153.75,1
138,145.43,153.59,1
139,145.30,153.45,1
138,145.15,153.29,1
137,144.99,153.13,1
137,144.83,152.97,1
137,144.67,152.81,1
137,144.52,152.65,1
137,144.37,152.49,1
137,144.22,152.34,1
137,144.08,152.18,1
137,143.94,152.03,1
137,143.80,151.88,1
135,143.62,151.71,1
136,143.47,151.56,1
136,143.32,151.40,1
136,143.17,151.25,1
136,143.03,151.09,1
135,142.87,150.93,1
136,142.73,150.78,1
134,142.56,150.62,1
136,142.43,150.47,1
135,142.28,150.31,1
135,142.13,150.16,1
133,141.95,149.99,1
136,141.83,149.85,1
133,141.65,149.68,1
135,141.52,149.53,1
135,141.39,149.39,1
134,141.24,149.24,1
134,141.10,149.08,1
133,140.94,148.92,1
133,140.78,148.76,1
134,140.64,148.62,1
133,140.49,148.46,1
133,140.34,148.30,1
133,140.19,148.15,1
133,140.05,148.00,1
133,139.91,147.85,1
133,139.77,147.70,1
132,139.61,147.54,1
133,139.48,147.40,1
133,139.35,147.26,1
131,139.18,147.09,1
132,139.04,146.94,1
132,138.90,146.79,1
131,138.74,146.63,1
132,138.61,146.49,1
131,138.46,146.33,1
131,138.31,146.18,1
131,138.16,146.03,1
131,138.02,145.88,1
134,137.94,145.76,1
131,137.80,145.61,1
129,137.62,145.45,1
130,137.47,145.29,1
131,137.34,145.15,1
130,137.19,145.00,1
129,137.03,144.84,1
130,136.89,144.69,1
129,136.73,144.53,1
130,136.60,144.39,1
131,136.48,144.25,1
130,136.35,144.11,1
131,136.25,143.98,1
130,136.12,143.84,1
129,135.98,143.69,1
129,135.84,143.54,1
128,135.68,143.39,1
129,135.55,143.24,1
129,135.42,143.10,1
129,135.29,142.96,1
129,135.17,142.82,1
129,135.04,142.68,1
128,134.90,142.54,1
127,134.74,142.38,1
129,134.63,142.25,1
128,134.50,142.10,1
128,134.37,141.96,1
127,134.22,141.81,1
127,134.07,141.67,1
127,133.93,141.52,1
126,133.77,141.36,1
127,133.64,141.22,1
127,133.51,141.08,1
127,133.38,140.94,1
127,133.25,140.80,1
128,133.14,140.67,1
127,133.02,140.53,1
127,132.90,140.40,1
126,132.76,140.25,1
127,132.65,140.12,1
127,132.53,139.99,1
127,132.42,139.86,1
126,132.29,139.72,1
127,132.19,139.59,1
127,132.08,139.47,1
126,131.96,139.33,1
126,131.84,139.20,1
125,131.71,139.06,1
125,131.57,138.92,1
125,131.44,138.78,1
127,131.35,138.66,1
125,131.23,138.52,1
125,131.10,138.39,1
125,130.98,138.26,1
125,130.86,138.12,1
124,130.72,137.98,1
125,130.61,137.85,1
124,130.48,137.71,1
124,130.35,137.58,1
124,130.22,137.44,1
123,130.07,137.30,1
124,129.95,137.16,1
124,129.83,137.03,1
123,129.70,136.89,1
123,129.56,136.75,1
124,129.45,136.62,1
123,129.32,136.49,1
123,129.20,136.35,1
122,129.05,136.21,1
123,128.93,136.08,1
123,128.81,135.95,1
123,128.70,135.82,1
121,128.54,135.67,1
123,128.43,135.54,1
121,128.28,135.40,1
121,128.14,135.25,1
122,128.02,135.12,1
121,127.87,134.98,1
121,127.74,134.84,1
121,127.60,134.70,1
121,127.47,134.56,1
121,127.34,134.43,1
121,127.21,134.29,1
121,127.09,134.16,1
121,126.97,134.03,1
121,126.85,133.90,1
121,126.73,133.77,1
121,126.62,133.64,1
123,126.54,133.54,1
121,126.43,133.41,1
120,126.31,133.28,1
120,126.18,133.14,1
120,126.06,133.01,1
120,125.93,132.88,1
120,125.82,132.75,1
120,125.70,132.63,1
119,125.57,132.49,1
120,125.45,132.37,1
119,125.33,132.23,1
120,125.22,132.11,1
119,125.09,131.98,1
119,124.97,131.85,1
119,124.85,131.72,1
119,124.74,131.59,1
118,124.60,131.46,1
119,124.49,131.33,1
117,124.34,131.19,1
117,124.19,131.05,1
118,124.07,130.92,1
118,123.95,130.79,1
115,123.77,130.63,1
117,123.63,130.49,1
117,123.50,130.36,1
118,123.39,130.23,1
117,123.26,130.10,1
117,123.14,129.97,1
117,123.01,129.84,1
117,122.89,129.71,1
119,122.82,129.61,1
117,122.70,129.48,1
117,122.59,129.35,1
117,122.47,129.23,1
119,122.40,129.13,1
117,122.30,129.01,1
117,122.19,128.89,1
118,122.11,128.78,1
119,122.04,128.68,1
119,121.98,128.58,1
118,121.90,128.48,1
117,121.81,128.36,1
117,121.71,128.25,1
119,121.66,128.16,1
119,121.60,128.07,1
118,121.53,127.97,1
117,121.44,127.86,1
119,121.39,127.77,1
117,121.30,127.66,1
119,121.26,127.57,1
117,121.17,127.47,1
116,121.07,127.35,1
117,120.99,127.25,1
118,120.93,127.16,1
116,120.83,127.04,1
116,120.73,126.93,1
117,120.66,126.84,1
117,120.58,126.74,1
117,120.51,126.64,1
116,120.42,126.53,1
116,120.33,126.43,1
119,120.31,126.35,1
117,120.24,126.26,1
116,120.16,126.16,1
117,120.09,126.07,1
115,119.99,125.95,1
115,119.89,125.85,1
116,119.81,125.75,1
115,119.72,125.64,1
115,119.62,125.53,1
116,119.55,125.44,1
115,119.46,125.33,1
115,119.37,125.23,1
115,119.28,125.13,1
114,119.18,125.02,1
113,119.05,124.90,1
113,118.93,124.78,1
112,118.79,124.65,1
113,118.68,124.53,1
113,118.56,124.42,1
113,118.45,124.30,1
113,118.34,124.19,1
113,118.24,124.08,1
113,118.13,123.97,1
114,118.05,123.87,1
114,117.97,123.77,1
112,117.85,123.65,1
113,117.75,123.55,1
113,117.66,123.44,1
112,117.54,123.33,1
113,117.45,123.22,1
112,117.34,123.11,1
111,117.22,122.99,1
112,117.11,122.88,1
112,117.01,122.77,1
113,116.93,122.67,1
113,116.85,122.58,1
112,116.76,122.47,1
111,116.64,122.36,1
111,116.53,122.24,1
111,116.42,122.13,1
113,116.35,122.04,1
112,116.26,121.94,1
111,116.16,121.83,1
112,116.07,121.73,1
111,115.97,121.62,1
111,115.87,121.52,1
111,115.77,121.41,1
111,115.68,121.31,1
111,115.59,121.20,1
111,115.49,121.10,1
111,115.40,121.00,1
111,115.32,120.90,1
111,115.23,120.80,1
112,115.17,120.71,1
111,115.08,120.62,1
111,115.00,120.52,1
110,114.90,120.42,1
110,114.80,120.31,1
111,114.73,120.22,1
109,114.61,120.11,1
109,114.50,120.00,1
109,114.39,119.89,1
110,114.30,119.79,1
111,114.24,119.70,1
109,114.13,119.59,1
109,114.03,119.49,1
109,113.93,119.38,1
111,113.87,119.30,1
109,113.77,119.19,1
109,113.68,119.09,1
109,113.58,118.99,1
109,113.49,118.89,1
107,113.36,118.77,1
109,113.27,118.67,1
109,113.19,118.58,1
110,113.12,118.49,1
108,113.02,118.39,1
109,112.94,118.29,1
108,112.84,118.19,1
109,112.77,118.10,1
110,112.71,118.02,1
108,112.62,117.92,1
108,112.52,117.82,1
107,112.41,117.71,1
108,112.33,117.61,1
108,112.24,117.52,1
109,112.17,117.43,1
108,112.09,117.34,1
107,111.99,117.23,1
107,111.89,117.13,1
108,111.81,117.04,1
107,111.72,116.94,1
107,111.62,116.84,1
105,111.49,116.72,1
107,111.40,116.62,1
108,111.33,116.54,1
106,111.22,116.43,1
106,111.12,116.33,1
106,111.02,116.23,1
105,110.90,116.11,1
105,110.78,116.00,1
105,110.66,115.89,1
105,110.55,115.78,1
105,110.44,115.68,1
105,110.33,115.57,1
105,110.22,115.46,1
105,110.12,115.36,1
105,110.02,115.25,1
105,109.92,115.15,1
106,109.84,115.06,1
103,109.70,114.94,1
106,109.63,114.85,1
105,109.53,114.75,1
105,109.44,114.65,1
105,109.36,114.56,1
105,109.27,114.46,1
105,109.18,114.37,1
105,109.10,114.27,1
105,109.02,114.18,1
105,108.94,114.09,1
105,108.86,114.00,1
105,108.78,113.91,1
107,108.75,113.84,1
105,108.67,113.75,1
105,108.60,113.66,1
105,108.53,113.58,1
104,108.43,113.48,1
105,108.37,113.40,1
107,108.34,113.33,1
105,108.27,113.25,1
105,108.21,113.17,1
106,108.16,113.10,1
105,108.10,113.01,1
104,108.02,112.92,1
105,107.96,112.84,1
106,107.92,112.78,1
104,107.84,112.69,1
105,107.78,112.61,1
105,107.73,112.54,1
105,107.67,112.46,1
104,107.60,112.38,1
105,107.55,112.30,1
104,107.48,112.22,1
104,107.41,112.14,1
103,107.32,112.05,1
104,107.25,111.96,1
104,107.19,111.89,1
103,107.10,111.80,1
103,107.02,111.71,1
107,107.02,111.66,1
103,106.94,111.57,1
104,106.88,111.50,1
104,106.82,111.42,1
103,106.75,111.34,1
104,106.69,111.27,1
104,106.64,111.19,1
104,106.59,111.12,1
103,106.51,111.04,1
104,106.46,110.97,1
104,106.41,110.90,1
105,106.39,110.84,1
103,106.32,110.76,1
103,106.25,110.69,1
103,106.19,110.61,1
103,106.12,110.53,1
104,106.08,110.47,1
103,106.02,110.39,1
104,105.98,110.33,1
103,105.92,110.26,1
105,105.90,110.20,1
103,105.84,110.13,1
105,105.83,110.08,1
104,105.79,110.02,1
105,105.77,109.97,1
104,105.74,109.91,1
104,105.70,109.85,1
105,105.69,109.80,1
104,105.66,109.74,1
105,105.64,109.70,1
105,105.63,109.65,1
104,105.60,109.59,1
104,105.57,109.54,1
105,105.55,109.49,1
105,105.54,109.45,1
104,105.51,109.39,1
104,105.48,109.34,1
104,105.45,109.28,1
103,105.40,109.22,1
104,105.37,109.17,1
104,105.35,109.12,1
104,105.32,109.07,1
105,105.31,109.03,1
104,105.29,108.98,1
104,105.26,108.93,1
105,105.26,108.89,1
103,105.21,108.83,1
103,105.17,108.77,1
103,105.12,108.71,1
104,105.10,108.66,1
105,105.10,108.63,1
105,105.10,108.59,1
104,105.08,108.55,1
105,105.07,108.51,1
105,105.07,108.48,1
105,105.07,108.44,1
105,105.07,108.41,1
104,105.05,108.36,1
103,105.01,108.31,1
104,104.99,108.27,1
105,104.99,108.23,1
103,104.95,108.18,1
105,104.95,108.15,1
105,104.95,108.12,1
105,104.95,108.09,1
107,104.99,108.07,1
105,104.99,108.04,1
107,105.03,108.03,1
108,105.09,108.03,1
107,105.13,108.02,1
106,105.15,108.00,1
108,105.20,108.00,1
107,105.24,107.99,1
107,105.28,107.98,1
107,105.31,107.97,1
106,105.32,107.95,1
107,105.36,107.94,1
110,105.45,107.96,1
108,105.50,107.96,1
107,105.53,107.96,1
105,105.52,107.93,1
107,105.55,107.92,1
109,105.62,107.93,1
109,105.69,107.94,1
109,105.75,107.95,1
109,105.82,107.96,1
109,105.88,107.97,1
107,105.90,107.96,1
108,105.95,107.96,1
107,105.97,107.95,1
108,106.01,107.95,1
107,106.03,107.94,1
107,106.05,107.93,1
107,106.07,107.92,1
107,106.08,107.91,1
107,106.10,107.90,1
107,106.12,107.90,1
107,106.14,107.89,1
107,106.16,107.88,1
107,106.17,107.87,1
109,106.23,107.88,1
109,106.28,107.89,1
108,106.32,107.89,1
108,106.35,107.89,1
107,106.37,107.88,1
108,106.40,107.89,1
109,106.45,107.90,1
108,106.48,107.90,1
109,106.53,107.91,1
109,106.58,107.92,1
107,106.59,107.91,1
109,106.64,107.92,1
109,106.68,107.93,1
108,106.71,107.93,1
109,106.76,107.94,1
111,106.84,107.97,1
110,106.90,107.99,1
112,107.01,108.03,1
111,107.09,108.06,1
110,107.14,108.08,1
109,107.18,108.09,1
111,107.26,108.12,1
111,107.33,108.15,1
112,107.43,108.19,1
112,107.52,108.23,1
111,107.59,108.25,1
113,107.70,108.30,1
111,107.76,108.33,1
112,107.85,108.37,1
111,107.91,108.39,1
111,107.97,108.42,1
111,108.03,108.44,1
111,108.09,108.47,1
113,108.19,108.52,1
112,108.27,108.55,1
113,108.36,108.59,1
112,108.43,108.63,1
113,108.52,108.67,1
113,108.61,108.72,1
113,108.70,108.76,1
114,108.81,108.81,1
116,108.95,108.88,1
115,109.07,108.94,1
115,109.19,109.00,1
113,109.27,109.04,1
116,109.40,109.11,1
116,109.53,109.18,1
117,109.68,109.26,1
117,109.83,109.34,1
121,110.05,109.45,1
117,110.19,109.53,1
117,110.33,109.61,1
117,110.46,109.68,1
117,110.59,109.75,1
117,110.72,109.82,1
118,110.87,109.91,1
120,111.05,110.01,1
119,111.21,110.10,1
121,111.40,110.21,1
121,111.60,110.31,1
122,111.80,110.43,1
121,111.99,110.54,1
120,112.15,110.63,1
121,112.32,110.74,1
122,112.52,110.85,1
120,112.67,110.94,1
121,112.83,111.04,1
121,113.00,111.14,1
121,113.16,111.24,1
123,113.35,111.36,1
122,113.53,111.46,1
121,113.68,111.56,1
123,113.86,111.67,1
125,114.09,111.81,1
123,114.26,111.92,1
125,114.48,112.05,1
125,114.69,112.18,1
124,114.88,112.30,1
124,115.06,112.41,1
123,115.22,112.52,1
125,115.41,112.64,1
124,115.58,112.76,1
125,115.77,112.88,1
127,116.00,113.02,1
126,116.20,113.15,1
125,116.37,113.27,1
124,116.53,113.38,1
127,116.74,113.51,1
128,116.96,113.66,1
127,117.16,113.79,1
125,117.32,113.90,1
126,117.49,114.02,1
129,117.72,114.17,1
129,117.95,114.32,1
128,118.15,114.46,1
128,118.35,114.59,1
131,118.60,114.76,1
129,118.81,114.90,1
128,118.99,115.03,1
129,119.19,115.17,1
129,119.39,115.31,1
131,119.62,115.47,1
129,119.81,115.60,1
131,120.03,115.76,1
131,120.25,115.91,1
132,120.49,116.07,1
130,120.68,116.21,1
133,120.92,116.38,1
131,121.12,116.52,1
133,121.36,116.69,1
133,121.59,116.85,1
134,121.84,117.02,1
133,122.07,117.18,1
133,122.28,117.34,1
132,122.48,117.49,1
133,122.69,117.64,1
133,122.90,117.80,1
137,123.18,117.99,1
135,123.41,118.16,1
134,123.63,118.32,1
135,123.85,118.48,1
134,124.06,118.64,1
133,124.23,118.78,1
137,124.49,118.96,1
140,124.80,119.17,1
137,125.04,119.35,1
136,125.26,119.52,1
136,125.48,119.68,1
137,125.71,119.86,1
135,125.89,120.01,1
135,126.08,120.16,1
137,126.29,120.33,1
137,126.51,120.49,1
139,126.76,120.68,1
139,127.00,120.86,1
138,127.22,121.03,1
137,127.42,121.19,1
137,127.61,121.35,1
138,127.82,121.52,1
141,128.08,121.71,1
138,128.28,121.87,1
140,128.51,122.06,1
140,128.74,122.24,1
139,128.95,122.40,1
139,129.15,122.57,1
140,129.37,122.74,1
140,129.58,122.92,1
139,129.77,123.08,1
137,129.91,123.22,1
140,130.12,123.38,1
140,130.31,123.55,1
138,130.47,123.69,1
139,130.64,123.85,1
139,130.80,124.00,1
141,131.01,124.17,1
142,131.23,124.35,1
141,131.42,124.51,1
141,131.62,124.68,1
143,131.84,124.86,1
141,132.03,125.02,1
144,132.27,125.21,1
141,132.44,125.37,1
143,132.65,125.55,1
141,132.82,125.70,1
141,132.98,125.86,1
141,133.14,126.01,1
142,133.32,126.17,1
141,133.47,126.31,1
141,133.62,126.46,1
141,133.77,126.61,1
141,133.92,126.75,1
141,134.06,126.89,1
139,134.16,127.01,1
141,134.29,127.15,1
142,134.45,127.30,1
143,134.62,127.46,1
145,134.83,127.64,1
143,134.99,127.79,1
145,135.19,127.96,1
145,135.39,128.13,1
145,135.58,128.30,1
145,135.77,128.47,1
145,135.95,128.63,1
147,136.17,128.82,1
144,136.33,128.97,1
145,136.50,129.13,1
145,136.67,129.29,1
147,136.88,129.46,1
145,137.04,129.62,1
147,137.24,129.79,1
147,137.44,129.97,1
147,137.63,130.14,1
146,137.79,130.29,1
146,137.96,130.45,1
147,138.14,130.62,1
146,138.30,130.77,1
150,138.53,130.96,1
156,138.88,131.21,1
156,139.22,131.46,1
152,139.48,131.67,1
158,139.85,131.93,1
161,140.27,132.22,1
163,140.73,132.53,1
160,141.11,132.80,1
159,141.47,133.07,1
164,141.92,133.37,1
166,142.40,133.70,1
162,142.79,133.98,1
161,143.16,134.25,1
166,143.61,134.57,1
167,144.08,134.90,1
168,144.56,135.23,1
171,145.09,135.58,1
169,145.57,135.92,1
168,146.02,136.24,1
169,146.48,136.57,1
174,147.03,136.94,1
173,147.55,137.30,1
169,147.97,137.62,1
171,148.44,137.95,1
171,148.89,138.28,1
171,149.33,138.61,1
175,149.84,138.97,1
179,150.43,139.37,1
177,150.96,139.75,1
175,151.44,140.10,1
176,151.93,140.46,1
175,152.39,140.81,1
179,152.92,141.19,1
183,153.52,141.61,1
181,154.07,142.00,1
179,154.57,142.37,1
182,155.12,142.77,1
180,155.62,143.14,1
181,156.13,143.52,1
184,156.68,143.92,1
184,157.23,144.32,1
189,157.87,144.77,1
191,158.53,145.23,1
187,159.10,145.65,1
187,159.66,146.06,1
195,160.36,146.55,1
197,161.10,147.06,1
201,161.89,147.60,1
195,162.56,148.07,1
200,163.30,148.59,1
201,164.06,149.12,1
201,164.80,149.63,1
197,165.44,150.11,1
200,166.13,150.61,1
203,166.87,151.13,1
206,167.65,151.68,1
205,168.40,152.21,1
204,169.11,152.73,1
207,169.87,153.27,1
208,170.63,153.82,1
205,171.32,154.33,1
206,172.01,154.85,1
206,172.69,155.36,1
209,173.42,155.90,1
207,174.09,156.41,1
207,174.75,156.91,1
209,175.43,157.43,1
206,176.04,157.92,1
210,176.72,158.44,1
210,177.39,158.96,1
207,177.98,159.44,1
206,178.54,159.90,1
211,179.19,160.41,1
211,179.83,160.92,1
209,180.41,161.40,1
208,180.96,161.87,1
208,181.50,162.33,1
209,182.05,162.79,1
209,182.59,163.26,1
213,183.20,163.75,1
215,183.84,164.27,1
219,184.54,164.81,1
216,185.17,165.33,1
217,185.81,165.84,1
219,186.47,166.37,1
216,187.06,166.87,1
215,187.62,167.35,1
215,188.17,167.83,1
219,188.78,168.34,1
222,189.45,168.88,1
226,190.18,169.45,1
223,190.83,169.98,1
223,191.48,170.51,1
226,192.17,171.07,1
231,192.95,171.67,1
227,193.63,172.22,1
228,194.31,172.78,1
227,194.97,173.32,1
229,195.65,173.88,1
228,196.30,174.42,1
227,196.91,174.94,1
225,197.47,175.45,1
229,198.10,175.98,1
229,198.72,176.51,1
229,199.33,177.04,1
229,199.92,177.56,1
235,200.62,178.13,1
237,201.35,178.72,1
237,202.06,179.30,1
234,202.70,179.85,1
243,203.51,180.48,1
245,204.34,181.12,1
241,205.07,181.72,1
248,205.93,182.39,1
249,206.79,183.05,1
249,207.63,183.71,1
247,208.42,184.34,1
247,209.19,184.97,1
245,209.91,185.57,1
245,210.61,186.17,1
245,211.30,186.75,1
243,211.93,187.32,1
246,212.61,187.90,1
245,213.26,188.47,1
244,213.88,189.03,1
247,214.54,189.61,1
252,215.29,190.23,1
251,216.00,190.84,1
249,216.66,191.42,1
251,217.35,192.02,1
256,218.12,192.66,1
255,218.86,193.28,1
253,219.54,193.88,1
253,220.21,194.47,1
252,220.85,195.05,1
251,221.45,195.61,1
251,222.04,196.16,1
257,222.74,196.77,1
260,223.49,197.40,1
259,224.20,198.02,1
258,224.87,198.62,1
264,225.65,199.27,1
265,226.44,199.93,1
265,227.21,200.58,1
261,227.89,201.18,1
261,228.55,201.78,1
260,229.18,202.36,1
261,229.82,202.95,1
261,230.44,203.53,1
260,231.03,204.09,1
264,231.69,204.69,1
263,232.32,205.28,1
261,232.89,205.83,1
261,233.45,206.38,1
262,234.02,206.94,1
260,234.54,207.47,1
259,235.03,207.99,1
259,235.51,208.50,1
261,236.02,209.02,1
262,236.54,209.55,1
268,237.17,210.14,1
267,237.77,210.70,1
264,238.29,211.24,1
271,238.95,211.84,1
269,239.55,212.41,1
265,240.06,212.93,1
267,240.59,213.47,1
266,241.10,214.00,1
267,241.62,214.53,1
265,242.09,215.03,1
266,242.57,215.54,1
264,243.00,216.03,1
265,243.44,216.52,1
264,243.85,216.99,1
265,244.27,217.47,1
264,244.66,217.94,1
263,245.03,218.39,1
264,245.41,218.84,1
264,245.78,219.30,1
263,246.13,219.73,1
262,246.44,220.16,1
263,246.77,220.58,1
261,247.06,220.99,1
263,247.38,221.41,1
261,247.65,221.80,1
261,247.92,222.20,1
261,248.18,222.58,1
260,248.42,222.96,1
261,248.67,223.34,1
262,248.93,223.73,1
260,249.16,224.09,1
261,249.39,224.46,1
261,249.62,224.82,1
262,249.87,225.19,1
260,250.07,225.54,1
259,250.25,225.88,1
259,250.43,226.21,1
259,250.60,226.54,1
259,250.77,226.86,1
258,250.91,227.17,1
258,251.05,227.48,1
257,251.17,227.78,1
257,251.29,228.07,1
255,251.36,228.34,1
257,251.48,228.62,1
255,251.55,228.89,1
255,251.62,229.15,1
256,251.70,229.42,1
256,251.79,229.68,1
256,251.87,229.95,1
255,251.94,230.20,1
255,252.00,230.45,1
254,252.04,230.68,1
254,252.08,230.91,1
253,252.10,231.13,1
252,252.09,231.34,1
253,252.11,231.56,1
252,252.11,231.76,1
252,252.11,231.97,1
253,252.12,232.18,1
251,252.10,232.37,1
253,252.12,232.57,1
252,252.12,232.77,1
251,252.10,232.95,1
251,252.07,233.13,1
251,252.05,233.31,1
252,252.05,233.49,1
251,252.03,233.67,1
249,251.97,233.82,1
249,251.91,233.97,1
249,251.85,234.12,1
249,251.80,234.27,1
249,251.74,234.42,1
248,251.66,234.56,1
248,251.59,234.69,1
247,251.50,234.81,1
247,251.41,234.94,1
246,251.30,235.05,1
247,251.22,235.17,1
245,251.09,235.26,1
245,250.97,235.36,1
245,250.85,235.46,1
245,250.73,235.55,1
244,250.60,235.64,1
245,250.49,235.73,1
246,250.40,235.83,1
243,250.25,235.91,1
244,250.12,235.99,1
243,249.98,236.06,1
244,249.86,236.14,1
243,249.72,236.21,1
241,249.55,236.25,1
241,249.38,236.30,1
241,249.21,236.35,1
240,249.03,236.38,1
240,248.85,236.42,1
239,248.65,236.45,1
239,248.46,236.47,1
239,248.27,236.50,1
239,248.08,236.52,1
239,247.90,236.55,1
236,247.66,236.54,1
237,247.45,236.55,1
237,247.24,236.55,1
237,247.04,236.55,1
236,246.81,236.55,1
236,246.60,236.54,1
235,246.37,236.53,1
235,246.14,236.51,1
234,245.90,236.49,1
235,245.68,236.47,1
235,245.46,236.46,1
233,245.22,236.42,1
233,244.97,236.39,1
233,244.73,236.36,1
232,244.48,236.31,1
233,244.25,236.28,1
232,244.00,236.24,1
231,243.74,236.18,1
232,243.51,236.14,1
231,243.26,236.09,1
230,242.99,236.03,1
231,242.75,235.98,1
231,242.52,235.93,1
231,242.29,235.88,1
231,242.06,235.83,1
229,241.80,235.76,1
229,241.54,235.70,1
228,241.27,235.62,1
227,240.99,235.53,1
228,240.73,235.46,1
227,240.45,235.37,1
227,240.18,235.29,1
226,239.90,235.20,1
227,239.64,235.11,1
225,239.35,235.01,1
225,239.06,234.91,1
225,238.78,234.81,1
225,238.51,234.72,1
225,238.24,234.62,1
227,238.01,234.54,1
223,237.71,234.43,1
225,237.46,234.33,1
223,237.17,234.22,1
223,236.88,234.11,1
221,236.57,233.98,1
221,236.26,233.85,1
222,235.97,233.73,1
221,235.67,233.60,1
221,235.38,233.47,1
220,235.07,233.34,1
220,234.77,233.21,1
219,234.45,233.06,1
220,234.16,232.93,1
219,233.86,232.79,1
218,233.54,232.65,1
219,233.25,232.51,1
219,232.97,232.37,1
217,232.65,232.22,1
219,232.38,232.09,1
217,232.07,231.94,2
216,231.75,231.78,2
217,231.45,231.63,2
216,231.14,231.47,2
215,230.82,231.31,2
215,230.50,231.15,2
215,230.19,230.99,2
215,229.89,230.83,2
214,229.57,230.66,2
213,229.24,230.48,2
213,228.92,230.31,2
213,228.60,230.13,2
213,228.29,229.96,2
213,227.98,229.79,2
213,227.68,229.62,2
211,227.35,229.44,2
212,227.04,229.26,2
211,226.72,229.08,2
211,226.40,228.90,2
210,226.08,228.71,2
211,225.77,228.53,2
209,225.44,228.34,2
210,225.13,228.15,2
209,224.81,227.96,2
209,224.49,227.77,2
209,224.18,227.59,2
208,223.86,227.39,2
208,223.54,227.20,2
207,223.21,226.99,2
207,222.89,226.79,2
206,222.55,226.59,2
207,222.24,226.39,2
205,221.89,226.18,2
205,221.55,225.96,2
205,221.22,225.76,2
203,220.86,225.53,2
204,220.52,225.31,2
205,220.21,225.11,2
204,219.89,224.90,2
203,219.55,224.68,2
204,219.24,224.47,2
203,218.91,224.26,2
203,218.60,224.05,2
203,218.28,223.83,2
203,217.98,223.63,2
202,217.66,223.41,2
203,217.37,223.21,2
201,217.04,222.98,2
201,216.72,222.76,2
201,216.40,222.55,2
201,216.09,222.33,2
200,215.77,222.11,2
202,215.50,221.91,2
201,215.21,221.70,2
200,214.90,221.48,2
200,214.61,221.27,2
200,214.31,221.05,2
201,214.05,220.85,2
199,213.75,220.63,2
199,213.45,220.42,2
199,213.16,220.20,2
199,212.88,219.99,2
198,212.58,219.77,2
200,212.33,219.57,2
197,212.02,219.35,2
198,211.74,219.13,2
197,211.45,218.91,2
198,211.18,218.70,2
196,210.88,218.48,2
196,210.58,218.25,2
196,210.29,218.03,2
195,209.98,217.80,2
195,209.68,217.57,2
195,209.39,217.35,2
197,209.14,217.14,2
195,208.86,216.92,2
195,208.58,216.70,2
193,208.27,216.46,2
194,207.98,216.24,2
193,207.68,216.01,2
195,207.43,215.80,2
193,207.14,215.57,2
193,206.86,215.34,2
192,206.56,215.11,2
194,206.31,214.90,2
192,206.02,214.67,2
192,205.74,214.44,2
192,205.47,214.22,2
191,205.18,213.99,2
192,204.92,213.77,2
189,204.60,213.52,2
190,204.30,213.28,2
190,204.02,213.05,2
191,203.76,212.83,2
190,203.48,212.60,2
189,203.19,212.37,2
189,202.91,212.13,2
190,202.65,211.91,2
189,202.38,211.68,2
188,202.09,211.45,2
189,201.83,211.22,2
191,201.61,211.02,2
189,201.36,210.80,2
189,201.11,210.58,2
189,200.87,210.37,2
189,200.63,210.15,2
190,200.42,209.95,2
189,200.19,209.74,2
188,199.95,209.52,2
188,199.71,209.31,2
189,199.50,209.10,2
189,199.29,208.90,2
189,199.08,208.70,2
188,198.86,208.50,2
188,198.64,208.29,2
188,198.43,208.09,2
188,198.22,207.89,2
187,198.00,207.68,2
188,197.80,207.48,2
185,197.54,207.26,2
185,197.29,207.04,2
187,197.08,206.84,2
185,196.84,206.62,2
186,196.62,206.41,2
185,196.39,206.20,2
184,196.14,205.97,2
184,195.90,205.76,2
185,195.68,205.55,2
184,195.45,205.33,2
185,195.24,205.13,2
183,195.00,204.91,2
183,194.76,204.69,2
182,194.50,204.46,2
183,194.27,204.25,2
182,194.03,204.02,2
183,193.80,203.81,2
183,193.59,203.61,2
181,193.34,203.38,2
181,193.09,203.16,2
181,192.85,202.93,2
181,192.61,202.72,2
180,192.36,202.49,2
180,192.11,202.26,2
179,191.85,202.03,2
179,191.59,201.80,2
179,191.34,201.57,2
179,191.09,201.35,2
179,190.85,201.12,2
179,190.62,200.90,2
179,190.38,200.68,2
179,190.16,200.47,2
179,189.93,200.25,2
178,189.69,200.03,2
177,189.44,199.80,2
177,189.19,199.57,2
180,189.01,199.37,2
177,188.77,199.15,2
177,188.53,198.93,2
177,188.30,198.71,2
177,188.07,198.49,2
176,187.83,198.27,2
175,187.58,198.04,2
176,187.35,197.82,2
175,187.10,197.59,2
175,186.86,197.36,2
176,186.64,197.15,2
175,186.41,196.93,2
175,186.18,196.71,2
174,185.93,196.48,2
175,185.72,196.27,2
173,185.46,196.03,2
174,185.23,195.81,2
173,184.99,195.58,2
175,184.79,195.38,2
175,184.59,195.17,2
173,184.36,194.95,2
173,184.13,194.73,2
173,183.91,194.52,2
173,183.69,194.30,2
174,183.50,194.10,2
173,183.29,193.89,2
171,183.04,193.66,2
173,182.84,193.45,2
171,182.61,193.23,2
171,182.37,193.00,2
172,182.17,192.79,2
172,181.96,192.59,2
171,181.74,192.37,2
172,181.55,192.17,2
171,181.34,191.96,2
170,181.11,191.74,2
171,180.91,191.53,2
170,180.69,191.31,2
171,180.50,191.11,2
170,180.29,190.90,2
169,180.06,190.68,2
169,179.84,190.46,2
169,179.62,190.25,2
169,179.41,190.04,2
169,179.20,189.83,2
169,179.00,189.62,2
167,178.76,189.39,2
168,178.54,189.18,2
168,178.33,188.97,2
167,178.11,188.75,2
167,177.88,188.53,2
167,177.67,188.31,2
167,177.45,188.10,2
166,177.22,187.88,2
166,177.00,187.66,2
166,176.78,187.44,2
166,176.56,187.23,2
166,176.35,187.02,2
165,176.12,186.80,2
165,175.90,186.58,2
163,175.64,186.34,2
165,175.43,186.13,2
164,175.20,185.91,2
163,174.96,185.68,2
163,174.72,185.45,2
164,174.51,185.24,2
163,174.28,185.02,2
163,174.05,184.80,2
165,173.87,184.60,2
162,173.63,184.37,2
163,173.42,184.16,2
162,173.19,183.94,2
162,172.97,183.72,2
161,172.73,183.49,2
161,172.49,183.26,2
162,172.28,183.05,2
164,172.12,182.86,2
162,171.91,182.65,2
161,171.70,182.44,2
161,171.48,182.22,2
160,171.25,182.00,2
161,171.05,181.79,2
162,170.87,181.59,2
161,170.67,181.39,2
160,170.46,181.17,2
161,170.27,180.97,2
160,170.06,180.76,2
162,169.90,180.57,2
160,169.70,180.37,2
159,169.49,180.15,2
159,169.28,179.94,2
161,169.11,179.75,2
159,168.91,179.55,2
160,168.73,179.35,2
159,168.54,179.15,2
158,168.33,178.93,2
159,168.14,178.74,2
159,167.96,178.54,2
159,167.78,178.34,2
157,167.56,178.13,2
157,167.35,177.92,2
158,167.16,177.72,2
159,167.00,177.53,2
157,166.80,177.33,2
157,166.61,177.12,2
157,166.41,176.92,2
157,166.23,176.72,2
159,166.08,176.55,2
160,165.96,176.38,2
158,165.80,176.20,2
157,165.62,176.00,2
158,165.47,175.82,2
157,165.30,175.64,2
157,165.14,175.45,2
157,164.97,175.27,2
157,164.81,175.08,2
157,164.66,174.90,2
157,164.50,174.72,2
155,164.31,174.53,2
157,164.17,174.35,2
156,164.00,174.17,2
156,163.84,173.98,2
155,163.67,173.80,2
158,163.55,173.64,2
155,163.38,173.45,2
153,163.18,173.25,2
155,163.01,173.06,2
155,162.85,172.88,2
155,162.69,172.70,2
155,162.54,172.53,2
155,162.39,172.35,2
156,162.26,172.19,2
156,162.14,172.03,2
155,161.99,171.86,2
153,161.81,171.67,2
153,161.64,171.48,2
155,161.51,171.32,2
157,161.42,171.17,2
155,161.29,171.01,2
154,161.14,170.84,2
155,161.02,170.68,2
155,160.90,170.53,2
155,160.78,170.37,2
154,160.64,170.21,2
154,160.51,170.05,2
154,160.38,169.88,2
153,160.23,169.72,2
153,160.09,169.55,2
153,159.95,169.38,2
153,159.81,169.22,2
153,159.67,169.06,2
153,159.54,168.90,2
152,159.39,168.73,2
152,159.24,168.56,2
152,159.10,168.39,2
152,158.95,168.23,2
151,158.79,168.06,2
151,158.64,167.89,2
151,158.49,167.72,2
151,158.34,167.55,2
151,158.19,167.39,2
151,158.05,167.22,2
150,157.88,167.05,2
151,157.75,166.89,2
149,157.57,166.71,2
149,157.40,166.53,2
149,157.23,166.36,2
151,157.11,166.20,2
151,156.99,166.05,2
149,156.83,165.88,2
149,156.67,165.71,2
149,156.52,165.55,2
151,156.41,165.40,2
151,156.30,165.26,2
151,156.19,165.11,2
150,156.07,164.96,2
149,155.93,164.80,2
149,155.79,164.65,2
150,155.67,164.50,2
149,155.54,164.34,2
148,155.39,164.18,2
148,155.24,164.02,2
148,155.10,163.86,2
149,154.97,163.71,2
150,154.87,163.57,2
148,154.74,163.42,2
148,154.60,163.26,2
148,154.47,163.11,2
147,154.32,162.95,2
148,154.19,162.80,2
147,154.05,162.64,2
148,153.93,162.50,2
147,153.79,162.34,2
147,153.65,162.19,2
147,153.52,162.04,2
148,153.41,161.89,2
147,153.28,161.75,2
146,153.14,161.59,2
145,152.97,161.42,2
146,152.84,161.27,2
145,152.68,161.11,2
145,152.52,160.94,2
145,152.37,160.79,2
145,152.23,160.63,2
145,152.08,160.47,2
145,151.94,160.32,2
146,151.82,160.17,2
145,151.69,160.02,2
144,151.53,159.86,2
144,151.38,159.70,2
144,151.23,159.55,2
143,151.07,159.38,2
145,150.95,159.24,2
143,150.79,159.07,2
143,150.63,158.91,2
143,150.48,158.75,2
143,150.33,158.60,2
143,150.18,158.44,2
144,150.06,158.30,2
143,149.92,158.14,2
143,149.78,157.99,2
143,149.65,157.84,2
142,149.49,157.68,2
143,149.36,157.54,2
143,149.24,157.39,2
143,149.11,157.25,2
141,148.95,157.08,2
141,148.79,156.92,2
141,148.63,156.76,2
141,148.48,156.61,2
141,148.33,156.45,2
141,148.18,156.30,2
141,148.04,156.14,2
140,147.88,155.98,2
141,147.74,155.83,2
140,147.59,155.67,2
140,147.44,155.52,2
139,147.27,155.35,2
141,147.14,155.21,2
139,146.98,155.05,2
140,146.84,154.90,2
139,146.68,154.74,2
140,146.55,154.59,2
139,146.40,154.43,2
140,146.27,154.29,2
139,146.12,154.14,2
137,145.94,153.97,2
137,145.76,153.80,2
138,145.61,153.64,2
138,145.46,153.48,2
139,145.33,153.34,2
137,145.16,153.17,2
137,145.00,153.01,2
137,144.84,152.85,2
137,144.68,152.69,2
138,144.55,152.55,2
140,144.46,152.42,2
137,144.31,152.27,2
136,144.14,152.10,2
137,144.00,151.95,2
137,143.86,151.80,2
137,143.72,151.65,2
137,143.59,151.51,2
135,143.41,151.34,2
135,143.25,151.18,2
137,143.12,151.04,2
136,142.98,150.89,2
137,142.86,150.75,2
135,142.70,150.59,2
136,142.57,150.45,2
135,142.42,150.29,2
135,142.27,150.14,2
139,142.20,150.03,2
135,142.06,149.88,2
136,141.94,149.74,2
135,141.80,149.59,2
136,141.68,149.45,2
135,141.55,149.31,2
135,141.42,149.17,2
135,141.29,149.02,2
136,141.18,148.89,2
135,141.06,148.76,2
136,140.96,148.63,2
135,140.84,148.49,2
135,140.72,148.36,2
133,140.57,148.20,2
133,140.42,148.05,2
135,140.31,147.92,2
135,140.20,147.79,2
133,140.06,147.64,2
133,139.92,147.50,2
133,139.78,147.35,2
133,139.64,147.21,2
133,139.51,147.07,2
133,139.38,146.93,2
133,139.25,146.79,2
133,139.13,146.65,2
133,139.01,146.51,2
131,138.85,146.36,2
133,138.73,146.22,2
132,138.59,146.08,2
131,138.44,145.93,2
131,138.29,145.78,2
131,138.15,145.63,2
132,138.02,145.50,2
131,137.88,145.35,2
131,137.75,145.21,2
131,137.61,145.07,2
132,137.50,144.94,2
129,137.33,144.78,2
132,137.22,144.65,2
130,137.08,144.50,2
129,136.92,144.35,2
130,136.78,144.20,2
129,136.62,144.05,2
129,136.47,143.90,2
129,136.32,143.75,2
129,136.17,143.60,2
129,136.03,143.46,2
129,135.89,143.31,2
129,135.75,143.17,2
129,135.62,143.03,2
128,135.47,142.88,2
128,135.32,142.73,2
128,135.17,142.58,2
128,135.03,142.44,2
128,134.89,142.29,2
127,134.73,142.14,2
128,134.59,142.00,2
127,134.44,141.85,2
127,134.29,141.70,2
127,134.15,141.55,2
127,134.00,141.41,2
127,133.86,141.26,2
127,133.73,141.12,2
126,133.57,140.97,2
125,133.40,140.81,2
126,133.25,140.66,2
126,133.11,140.52,2
126,132.97,140.37,2
125,132.81,140.22,2
126,132.67,140.07,2
126,132.54,139.93,2
125,132.39,139.78,2
126,132.26,139.65,2
125,132.11,139.50,2
125,131.97,139.35,2
125,131.83,139.21,2
125,131.69,139.07,2
125,131.56,138.93,2
123,131.39,138.77,2
125,131.26,138.63,2
123,131.10,138.48,2
124,130.95,138.33,2
125,130.84,138.20,2
125,130.72,138.07,2
125,130.60,137.93,2
125,130.49,137.81,2
123,130.34,137.66,2
124,130.22,137.52,2
125,130.11,137.40,2
125,130.01,137.27,2
125,129.91,137.15,2
124,129.79,137.02,2
123,129.65,136.88,2
125,129.56,136.76,2
124,129.45,136.63,2
123,129.32,136.49,2
123,129.20,136.36,2
124,129.09,136.24,2
123,128.97,136.10,2
123,128.85,135.97,2
123,128.73,135.84,2
123,128.62,135.71,2
124,128.53,135.60,2
123,128.42,135.47,2
122,128.29,135.34,2
123,128.18,135.21,2
121,128.04,135.07,2
121,127.90,134.93,2
123,127.80,134.81,2
121,127.66,134.67,2
117,127.45,134.50,2
121,127.32,134.36,2
122,127.21,134.24,2
121,127.09,134.11,2
121,126.97,133.97,2
121,126.85,133.84,2
122,126.75,133.73,2
122,126.66,133.61,2
121,126.54,133.48,2
122,126.45,133.37,2
122,126.36,133.25,2
123,126.30,133.15,2
122,126.21,133.04,2
121,126.11,132.92,2
121,126.00,132.80,2
121,125.90,132.68,2
122,125.83,132.58,2
121,125.73,132.46,2
121,125.64,132.35,2
122,125.56,132.24,2
122,125.49,132.14,2
121,125.40,132.03,2
121,125.31,131.92,2
121,125.23,131.81,2
122,125.16,131.71,2
121,125.08,131.60,2
122,125.02,131.51,2
121,124.94,131.40,2
121,124.86,131.30,2
121,124.78,131.20,2
122,124.73,131.10,2
121,124.65,131.00,2
121,124.58,130.90,2
121,124.51,130.80,2
120,124.42,130.70,2
120,124.33,130.59,2
122,124.28,130.50,2
121,124.22,130.41,2
120,124.13,130.30,2
123,124.11,130.23,2
121,124.05,130.14,2
121,123.99,130.05,2
120,123.91,129.95,2
120,123.83,129.85,2
119,123.73,129.74,2
120,123.66,129.64,2
119,123.56,129.53,2
121,123.51,129.45,2
119,123.42,129.34,2
119,123.33,129.24,2
119,123.25,129.14,2
119,123.16,129.04,2
119,123.08,128.94,2
119,123.00,128.84,2
117,122.88,128.72,2
118,122.78,128.61,2
119,122.70,128.52,2
119,122.63,128.42,2
118,122.54,128.32,2
118,122.45,128.21,2
117,122.34,128.10,2
117,122.23,127.99,2
117,122.13,127.88,2
117,122.02,127.77,2
117,121.92,127.66,2
117,121.83,127.56,2
117,121.73,127.45,2
116,121.61,127.34,2
117,121.52,127.23,2
116,121.41,127.12,2
116,121.30,127.01,2
117,121.22,126.91,2
117,121.13,126.81,2
117,121.05,126.71,2
116,120.95,126.61,2
117,120.87,126.51,2
116,120.77,126.40,2
116,120.68,126.30,2
116,120.58,126.20,2
117,120.51,126.11,2
115,120.40,125.99,2
117,120.33,125.90,2
116,120.25,125.81,2
116,120.16,125.71,2
115,120.06,125.60,2
116,119.98,125.50,2
117,119.92,125.42,2
117,119.86,125.34,2
117,119.80,125.25,2
115,119.71,125.15,2
116,119.63,125.06,2
116,119.56,124.97,2
116,119.49,124.88,2
115,119.40,124.78,2
117,119.35,124.70,2
116,119.28,124.61,2
116,119.22,124.53,2
116,119.15,124.44,2
115,119.07,124.35,2
115,118.99,124.25,2
117,118.95,124.18,2
116,118.89,124.10,2
117,118.85,124.03,2
116,118.80,123.95,2
119,118.80,123.90,2
117,118.76,123.83,2
117,118.73,123.76,2
117,118.69,123.69,2
117,118.66,123.63,2
117,118.63,123.56,2
117,118.59,123.50,2
117,118.56,123.43,2
117,118.53,123.37,2
117,118.50,123.30,2
116,118.45,123.23,2
117,118.42,123.17,2
115,118.35,123.09,2
117,118.33,123.02,2
115,118.26,122.94,2
117,118.23,122.89,2
117,118.21,122.83,2
115,118.15,122.75,2
115,118.08,122.67,2
116,118.04,122.60,2
117,118.02,122.55,2
116,117.98,122.48,2
117,117.96,122.43,2
118,117.96,122.38,2
117,117.94,122.33,2
117,117.92,122.28,2
117,117.90,122.22,2
120,117.95,122.20,2
121,118.01,122.19,2
118,118.01,122.15,2
119,118.03,122.12,2
117,118.01,122.06,2
117,117.99,122.01,2
119,118.01,121.98,2
120,118.05,121.96,2
119,118.07,121.93,2
119,118.08,121.91,2
117,118.06,121.86,2
119,118.08,121.83,2
119,118.10,121.80,2
119,118.12,121.77,2
119,118.14,121.74,2
119,118.15,121.72,2
118,118.15,121.68,2
118,118.15,121.64,2
118,118.14,121.61,2
119,118.16,121.58,2
120,118.20,121.56,2
119,118.21,121.54,2
119,118.23,121.51,2
119,118.24,121.49,2
122,118.32,121.49,2
120,118.35,121.48,2
120,118.39,121.46,2
120,118.42,121.45,2
121,118.47,121.44,2
122,118.54,121.45,2
121,118.59,121.45,2
121,118.64,121.44,2
123,118.73,121.46,2
122,118.79,121.46,2
121,118.84,121.46,2
121,118.88,121.45,2
121,118.92,121.45,2
121,118.96,121.44,2
121,119.00,121.44,2
121,119.04,121.43,2
121,119.08,121.43,2
121,119.12,121.43,2
121,119.16,121.42,2
120,119.18,121.41,2
121,119.21,121.40,2
120,119.23,121.39,2
123,119.30,121.41,2
124,119.40,121.43,2
121,119.43,121.43,2
121,119.46,121.42,2
125,119.57,121.46,2
123,119.64,121.47,2
127,119.79,121.53,2
125,119.89,121.56,2
124,119.97,121.59,2
126,120.09,121.63,2
125,120.19,121.67,2
127,120.33,121.72,2
125,120.42,121.75,2
124,120.49,121.77,2
123,120.54,121.79,2
124,120.61,121.81,2
123,120.66,121.82,2
124,120.73,121.84,2
124,120.79,121.86,2
124,120.86,121.89,2
124,120.92,121.91,2
125,121.00,121.94,2
124,121.06,121.96,2
125,121.14,121.99,2
125,121.22,122.02,2
124,121.27,122.04,2
125,121.35,122.07,2
128,121.48,122.13,2
125,121.55,122.16,2
125,121.62,122.18,2
125,121.69,122.21,2
125,121.75,122.24,2
125,121.82,122.27,2
126,121.90,122.31,2
125,121.96,122.33,2
125,122.02,122.36,2
125,122.08,122.39,2
126,122.16,122.42,2
125,122.22,122.45,2
126,122.29,122.48,2
128,122.41,122.54,2
127,122.50,122.58,2
127,122.59,122.63,2
125,122.64,122.65,2
127,122.73,122.69,2
127,122.81,122.74,2
125,122.86,122.76,2
127,122.94,122.80,2
127,123.02,122.84,2
129,123.14,122.91,2
127,123.22,122.95,2
127,123.29,122.99,2
127,123.37,123.03,2
127,123.44,123.07,2
127,123.51,123.11,2
128,123.60,123.16,2
129,123.71,123.21,2
128,123.79,123.26,2
129,123.90,123.32,2
127,123.96,123.36,2
128,124.04,123.40,2
128,124.12,123.45,2
129,124.22,123.50,2
128,124.29,123.55,2
128,124.37,123.59,2
128,124.44,123.64,2
129,124.53,123.69,2
128,124.60,123.73,2
131,124.73,123.81,2
131,124.85,123.88,2
129,124.94,123.93,2
133,125.10,124.02,2
131,125.22,124.09,2
131,125.33,124.16,2
132,125.47,124.24,2
131,125.58,124.31,2
132,125.70,124.38,2
131,125.81,124.45,2
131,125.91,124.51,2
129,125.98,124.56,2
135,126.16,124.66,2
131,126.25,124.73,2
133,126.39,124.81,2
133,126.52,124.89,2
133,126.65,124.97,2
137,126.86,125.09,2
135,127.02,125.19,2
135,127.18,125.29,2
137,127.38,125.41,2
141,127.65,125.56,2
137,127.84,125.68,2
137,128.02,125.79,2
138,128.22,125.91,2
138,128.41,126.03,2
137,128.59,126.14,2
137,128.75,126.25,2
137,128.92,126.36,2
138,129.10,126.48,2
137,129.26,126.58,2
135,129.37,126.67,2
139,129.57,126.79,2
139,129.75,126.91,2
137,129.90,127.01,2
139,130.08,127.13,2
139,130.26,127.25,2
143,130.51,127.41,2
143,130.76,127.56,2
142,130.99,127.71,2
141,131.19,127.84,2
141,131.39,127.97,2
141,131.58,128.10,2
141,131.77,128.23,2
141,131.95,128.36,2
142,132.15,128.50,2
142,132.35,128.63,2
141,132.52,128.75,2
140,132.67,128.87,2
141,132.84,128.99,2
141,133.00,129.11,2
141,133.16,129.23,2
141,133.32,129.35,2
139,133.43,129.44,2
142,133.60,129.57,2
141,133.75,129.68,2
141,133.90,129.79,2
143,134.08,129.93,2
143,134.26,130.06,2
141,134.39,130.17,2
143,134.56,130.30,2
148,134.83,130.47,2
148,135.10,130.65,2
147,135.33,130.81,2
145,135.53,130.95,2
145,135.72,131.09,2
148,135.96,131.26,2
145,136.14,131.40,2
146,136.34,131.55,2
148,136.57,131.71,2
149,136.82,131.88,2
152,137.13,132.08,2
149,137.36,132.25,2
152,137.66,132.45,2
153,137.96,132.66,2
153,138.26,132.86,2
152,138.54,133.05,2
152,138.81,133.24,2
152,139.07,133.43,2
152,139.33,133.61,2
153,139.60,133.81,2
152,139.85,133.99,2
153,140.11,134.18,2
161,140.53,134.45,2
159,140.90,134.69,2
156,141.20,134.91,2
159,141.56,135.15,2
161,141.95,135.41,2
163,142.37,135.68,2
161,142.74,135.94,2
161,143.11,136.19,2
164,143.52,136.46,2
166,143.97,136.76,2
165,144.39,137.04,2
163,144.77,137.30,2
166,145.19,137.59,2
163,145.55,137.84,2
162,145.88,138.08,2
165,146.26,138.35,2
164,146.61,138.61,2
167,147.02,138.89,2
164,147.36,139.14,2
168,147.77,139.43,2
165,148.12,139.69,2
165,148.46,139.94,2
165,148.79,140.19,2
167,149.15,140.46,2
172,149.61,140.78,2
174,150.10,141.11,2
171,150.51,141.41,2
171,150.92,141.70,2
178,151.47,142.07,2
181,152.06,142.46,2
179,152.59,142.82,2
177,153.08,143.16,2
177,153.56,143.50,2
177,154.03,143.84,2
175,154.45,144.15,2
175,154.86,144.46,2
184,155.44,144.85,2
184,156.01,145.24,2
183,156.55,145.62,2
181,157.04,145.97,2
181,157.52,146.32,2
181,157.99,146.67,2
183,158.49,147.04,2
183,158.98,147.39,2
184,159.48,147.76,2
183,159.95,148.11,2
183,160.41,148.46,2
189,160.99,148.87,2
188,161.53,149.26,2
186,162.02,149.63,2
187,162.52,150.00,2
187,163.00,150.37,2
193,163.60,150.80,2
191,164.15,151.20,2
188,164.63,151.57,2
189,165.12,151.94,2
188,165.57,152.30,2
188,166.02,152.66,2
195,166.60,153.08,2
199,167.25,153.54,2
199,167.89,154.00,2
197,168.47,154.43,2
197,169.04,154.85,2
201,169.68,155.31,2
201,170.30,155.77,2
205,171.00,156.26,2
206,171.70,156.76,2
202,172.30,157.21,2
203,172.92,157.67,2
201,173.48,158.10,2
201,174.03,158.53,2
204,174.63,158.99,2
209,175.32,159.49,2
211,176.03,160.00,2
209,176.69,160.49,2
208,177.32,160.97,2
211,177.99,161.47,2
213,178.69,161.98,2
211,179.34,162.47,2
211,179.97,162.96,2
209,180.55,163.42,2
209,181.12,163.87,2
212,181.74,164.36,2
209,182.28,164.80,2
213,182.90,165.28,2
215,183.54,165.78,2
215,184.17,166.27,2
216,184.80,166.77,2
213,185.37,167.23,2
217,186.00,167.73,2
217,186.62,168.22,2
215,187.19,168.69,2
214,187.72,169.14,2
216,188.29,169.61,2
219,188.90,170.11,2
217,189.47,170.58,2
217,190.02,171.04,2
219,190.60,171.52,2
219,191.16,171.99,2
218,191.70,172.45,2
221,192.29,172.94,2
221,192.86,173.42,2
219,193.38,173.88,2
225,194.02,174.39,2
227,194.68,174.91,2
225,195.28,175.41,2
224,195.86,175.90,2
226,196.46,176.40,2
231,197.15,176.95,2
233,197.87,177.51,2
232,198.55,178.05,2
231,199.20,178.58,2
237,199.96,179.17,2
239,200.74,179.76,2
241,201.54,180.38,2
239,202.29,180.96,2
239,203.03,181.54,2
239,203.74,182.12,2
239,204.45,182.69,2
237,205.10,183.23,2
240,205.80,183.80,2
242,206.52,184.38,2
243,207.25,184.97,2
245,208.01,185.57,2
244,208.73,186.15,2
243,209.41,186.72,2
247,210.16,187.32,2
248,210.92,187.93,2
244,211.58,188.49,2
248,212.31,189.08,2
247,213.00,189.66,2
247,213.68,190.24,2
245,214.31,190.78,2
250,215.02,191.38,2
248,215.68,191.94,2
247,216.31,192.49,2
252,217.02,193.09,2
256,217.80,193.72,2
258,218.61,194.36,2
255,219.34,194.97,2
253,220.01,195.55,2
259,220.79,196.18,2
262,221.61,196.84,2
262,222.42,197.49,2
260,223.17,198.12,2
265,224.01,198.79,2
267,224.87,199.47,2
264,225.65,200.11,2
262,226.38,200.73,2
265,227.15,201.37,2
266,227.93,202.02,2
264,228.65,202.64,2
264,229.36,203.25,2
267,230.11,203.89,2
266,230.83,204.51,2
268,231.57,205.15,2
269,232.32,205.79,2
269,233.05,206.42,2
268,233.75,207.03,2
272,234.52,207.68,2
273,235.29,208.34,2
275,236.08,209.00,2
275,236.86,209.66,2
273,237.58,210.30,2
273,238.29,210.92,2
277,239.06,211.58,2
281,239.90,212.28,2
280,240.71,212.96,2
278,241.45,213.61,2
283,242.28,214.30,2
285,243.14,215.01,2
285,243.97,215.71,2
281,244.71,216.36,2
283,245.48,217.03,2
281,246.19,217.67,2
281,246.89,218.30,2
281,247.57,218.93,2
281,248.24,219.55,2
279,248.85,220.14,2
279,249.46,220.73,2
279,250.05,221.31,2
279,250.63,221.89,2
279,251.19,222.46,2
277,251.71,223.01,2
277,252.21,223.55,2
277,252.71,224.08,2
277,253.20,224.61,2
276,253.65,225.12,2
276,254.10,225.63,2
275,254.52,226.13,2
274,254.91,226.61,2
275,255.31,227.09,2
274,255.68,227.56,2
273,256.03,228.01,2
273,256.37,228.46,2
272,256.68,228.90,2
272,256.99,229.33,2
271,257.27,229.75,2
271,257.54,230.16,2
272,257.83,230.58,2
272,258.12,230.99,2
272,258.39,231.40,2
270,258.62,231.79,2
270,258.85,232.17,2
269,259.06,232.54,2
269,259.25,232.90,2
269,259.45,233.26,2
269,259.64,233.62,2
269,259.83,233.97,2
268,259.99,234.31,2
268,260.15,234.65,2
267,260.29,234.97,2
267,260.42,235.30,2
267,260.55,235.61,2
268,260.70,235.94,2
265,260.79,236.23,2
267,260.91,236.53,2
268,261.05,236.85,2
267,261.17,237.15,2
267,261.29,237.45,2
265,261.36,237.72,2
265,261.44,238.00,2
265,261.51,238.27,2
265,261.58,238.53,2
264,261.63,238.79,2
265,261.69,239.05,2
264,261.74,239.30,2
262,261.75,239.53,2
262,261.75,239.75,2
263,261.78,239.99,2
261,261.76,240.20,2
261,261.74,240.40,2
261,261.73,240.61,2
260,261.70,240.80,2
260,261.66,241.00,2
260,261.63,241.19,2
260,261.60,241.37,2
258,261.52,241.54,2
259,261.47,241.71,2
257,261.38,241.87,2
258,261.32,242.03,2
257,261.23,242.18,2
257,261.15,242.33,2
255,261.02,242.45,2
257,260.94,242.60,2
256,260.84,242.73,2
257,260.77,242.88,2
256,260.67,243.01,2
255,260.56,243.13,2
256,260.47,243.26,2
256,260.38,243.38,2
254,260.25,243.49,2
258,260.20,243.63,2
253,260.06,243.73,2
253,259.92,243.82,2
253,259.78,243.91,2
252,259.63,243.99,2
253,259.49,244.08,2
252,259.34,244.16,2
251,259.18,244.23,2
251,259.01,244.30,2
252,258.87,244.38,2
249,258.67,244.42,2
249,258.48,244.47,2
249,258.29,244.51,2
249,258.11,244.56,2
248,257.90,244.59,2
249,257.73,244.64,2
246,257.49,244.65,2
248,257.30,244.68,2
247,257.10,244.71,2
247,256.89,244.73,2
247,256.70,244.75,2
247,256.50,244.77,2
247,256.31,244.80,2
245,256.09,244.80,2
245,255.86,244.80,2
245,255.65,244.80,2
245,255.43,244.80,2
244,255.20,244.80,2
243,254.96,244.78,2
243,254.72,244.76,2
243,254.49,244.74,2
242,254.24,244.72,2
242,253.99,244.69,2
241,253.73,244.65,2
241,253.48,244.62,2
241,253.23,244.58,2
241,252.98,244.54,2
241,252.74,244.51,2
240,252.49,244.46,2
239,252.22,244.41,2
239,251.96,244.35,2
240,251.72,244.31,2
239,251.46,244.26,2
239,251.21,244.21,2
237,250.93,244.13,2
237,250.65,244.06,2
238,250.40,244.00,2
238,250.15,243.94,2
236,249.87,243.86,2
236,249.59,243.78,2
236,249.32,243.71,2
235,249.03,243.62,2
236,248.77,243.54,2
235,248.49,243.46,2
234,248.20,243.36,2
235,247.94,243.28,2
233,247.64,243.18,2
234,247.37,243.08,2
233,247.08,242.98,2
234,246.82,242.89,2
233,246.54,242.79,2
233,246.27,242.70,2
232,245.99,242.59,2
232,245.71,242.48,2
233,245.45,242.39,2
231,245.16,242.27,2
231,244.88,242.16,2
231,244.60,242.05,2
229,244.29,241.92,2
229,243.99,241.79,2
230,243.71,241.67,2
229,243.41,241.55,2
229,243.12,241.42,2
229,242.84,241.30,2
227,242.52,241.15,2
229,242.25,241.03,2
227,241.95,240.89,2
226,241.63,240.74,2
227,241.34,240.61,2
228,241.07,240.48,2
225,240.75,240.32,2
225,240.43,240.17,2
225,240.13,240.02,3
225,239.82,239.87,3
225,239.53,239.72,3
225,239.24,239.57,3
225,238.95,239.43,3
223,238.63,239.26,3
224,238.34,239.11,3
223,238.03,238.95,3
224,237.75,238.80,3
222,237.44,238.63,3
221,237.11,238.46,3
221,236.79,238.28,3
221,236.47,238.11,3
221,236.16,237.94,3
221,235.86,237.77,3
220,235.54,237.59,3
220,235.23,237.41,3
219,234.91,237.23,3
219,234.59,237.05,3
217,234.24,236.85,3
218,233.91,236.66,3
218,233.59,236.47,3
217,233.26,236.28,3
217,232.94,236.08,3
217,232.62,235.89,3
217,232.30,235.71,3
216,231.98,235.51,3
216,231.66,235.31,3
215,231.33,235.11,3
216,231.02,234.92,3
215,230.70,234.72,3
215,230.38,234.52,3
213,230.04,234.31,3
213,229.70,234.09,3
213,229.36,233.88,3
213,229.04,233.67,3
213,228.71,233.47,3
212,228.38,233.25,3
212,228.05,233.04,3
212,227.73,232.83,3
212,227.42,232.62,3
211,227.09,232.41,3
212,226.79,232.20,3
210,226.45,231.98,3
211,226.14,231.77,3
209,225.80,231.54,3
210,225.48,231.33,3
209,225.15,231.10,3
209,224.83,230.88,3
209,224.51,230.66,3
207,224.16,230.43,3
207,223.82,230.19,3
207,223.48,229.96,3
207,223.15,229.73,3
207,222.83,229.50,3
207,222.51,229.28,3
206,222.18,229.05,3
205,221.84,228.81,3
205,221.50,228.57,3
205,221.17,228.33,3
204,220.83,228.09,3
204,220.49,227.85,3
203,220.14,227.60,3
204,219.82,227.36,3
204,219.50,227.13,3
203,219.17,226.89,3
203,218.85,226.65,3
204,218.55,226.42,3
202,218.22,226.18,3
202,217.90,225.94,3
201,217.56,225.69,3
201,217.23,225.44,3
201,216.90,225.20,3
200,216.57,224.94,3
201,216.26,224.70,3
201,215.95,224.47,3
200,215.63,224.22,3
199,215.30,223.97,3
200,214.99,223.73,3
199,214.67,223.48,3
200,214.38,223.25,3
197,214.03,222.99,3
198,213.71,222.74,3
197,213.38,222.48,3
198,213.07,222.23,3
197,212.75,221.98,3
196,212.41,221.72,3
197,212.10,221.48,3
197,211.80,221.23,3
196,211.49,220.98,3
197,211.20,220.74,3
196,210.89,220.49,3
195,210.58,220.24,3
196,210.28,219.99,3
195,209.98,219.74,3
195,209.68,219.50,3
195,209.38,219.25,3
196,209.12,219.02,3
193,208.79,218.76,3
194,208.50,218.51,3
193,208.19,218.26,3
194,207.91,218.01,3
193,207.61,217.76,3
193,207.31,217.52,3
193,207.03,217.27,3
191,206.71,217.01,3
192,206.41,216.76,3
192,206.13,216.51,3
191,205.82,216.25,3
191,205.53,216.00,3
192,205.26,215.76,3
191,204.97,215.51,3
192,204.71,215.28,3
191,204.44,215.04,3
191,204.17,214.80,3
189,203.87,214.54,3
191,203.61,214.30,3
189,203.32,214.05,3
192,203.09,213.83,3
191,202.85,213.60,3
189,202.57,213.36,3
189,202.30,213.11,3
189,202.03,212.87,3
190,201.79,212.64,3
189,201.54,212.41,3
189,201.29,212.17,3
187,201.00,211.92,3
188,200.74,211.68,3
187,200.47,211.43,3
188,200.22,211.20,3
187,199.95,210.96,3
187,199.69,210.72,3
186,199.42,210.47,3
188,199.19,210.25,3
186,198.93,210.00,3
185,198.65,209.75,3
185,198.38,209.51,3
185,198.11,209.26,3
186,197.87,209.03,3
186,197.63,208.80,3
184,197.36,208.55,3
185,197.11,208.31,3
185,196.87,208.08,3
185,196.63,207.85,3
185,196.40,207.62,3
184,196.15,207.39,3
185,195.93,207.16,3
184,195.69,206.93,3
183,195.43,206.69,3
183,195.18,206.45,3
183,194.94,206.22,3
183,194.70,205.99,3
183,194.47,205.76,3
183,194.24,205.53,3
182,193.99,205.29,3
181,193.73,205.05,3
181,193.48,204.81,3
181,193.23,204.57,3
181,192.99,204.34,3
183,192.79,204.12,3
182,192.57,203.90,3
181,192.34,203.67,3
180,192.09,203.44,3
180,191.85,203.20,3
180,191.61,202.97,3
182,191.42,202.76,3
179,191.17,202.52,3
180,190.95,202.30,3
180,190.73,202.08,3
179,190.50,201.84,3
180,190.29,201.63,3
179,190.06,201.40,3
179,189.84,201.18,3
178,189.60,200.94,3
179,189.39,200.72,3
179,189.18,200.51,3
180,189.00,200.30,3
177,188.76,200.07,3
177,188.52,199.84,3
177,188.29,199.61,3
177,188.07,199.38,3
177,187.85,199.16,3
178,187.65,198.95,3
176,187.42,198.72,3
175,187.17,198.48,3
175,186.92,198.25,3
175,186.69,198.01,3
175,186.45,197.78,3
175,186.22,197.56,3
175,186.00,197.33,3
174,185.76,197.10,3
174,185.52,196.87,3
173,185.27,196.63,3
173,185.03,196.39,3
173,184.79,196.16,3
173,184.55,195.93,3
173,184.32,195.70,3
173,184.09,195.47,3
171,183.83,195.23,3
173,183.62,195.00,3
172,183.38,194.77,3
171,183.14,194.54,3
171,182.89,194.30,3
171,182.65,194.07,3
171,182.42,193.84,3
170,182.17,193.60,3
170,181.93,193.36,3
171,181.71,193.14,3
169,181.46,192.90,3
169,181.21,192.66,3
169,180.96,192.42,3
170,180.74,192.20,3
170,180.53,191.98,3
169,180.30,191.75,3
168,180.05,191.51,3
169,179.83,191.28,3
172,179.68,191.09,3
168,179.44,190.86,3
168,179.21,190.63,3
167,178.97,190.39,3
167,178.73,190.16,3
167,178.49,189.93,3
167,178.26,189.70,3
166,178.02,189.46,3
167,177.80,189.24,3
167,177.58,189.02,3
167,177.37,188.80,3
166,177.14,188.57,3
167,176.94,188.35,3
167,176.74,188.14,3
166,176.53,187.92,3
168,176.36,187.72,3
164,176.11,187.48,3
165,175.89,187.26,3
166,175.69,187.04,3
166,175.50,186.83,3
166,175.31,186.62,3
166,175.12,186.42,3
165,174.92,186.20,3
169,174.80,186.03,3
165,174.60,185.82,3
165,174.41,185.61,3
165,174.22,185.41,3
165,174.04,185.20,3
164,173.84,184.99,3
165,173.66,184.79,3
163,173.45,184.57,3
163,173.24,184.36,3
165,173.07,184.16,3
163,172.87,183.95,3
163,172.68,183.74,3
164,172.50,183.55,3
162,172.29,183.33,3
161,172.07,183.11,3
162,171.86,182.90,3
161,171.65,182.68,3
161,171.43,182.46,3
161,171.23,182.25,3
161,171.02,182.03,3
161,170.82,181.82,3
160,170.60,181.60,3
160,170.39,181.39,3
160,170.18,181.17,3
161,170.00,180.97,3
159,169.78,180.75,3
160,169.59,180.55,3
159,169.37,180.33,3
159,169.17,180.12,3
160,168.98,179.92,3
158,168.76,179.70,3
159,168.57,179.49,3
158,168.36,179.27,3
159,168.17,179.07,3
158,167.97,178.86,3
159,167.79,178.66,3
158,167.59,178.46,3
159,167.42,178.26,3
158,167.23,178.06,3
157,167.03,177.85,3
157,166.83,177.64,3
160,166.69,177.46,3
159,166.54,177.28,3
159,166.38,177.10,3
157,166.20,176.89,3
158,166.03,176.71,3
159,165.89,176.53,3
160,165.77,176.36,3
159,165.64,176.19,3
158,165.49,176.01,3
159,165.36,175.84,3
159,165.23,175.67,3
159,165.10,175.50,3
158,164.96,175.33,3
158,164.82,175.15,3
157,164.67,174.97,3
157,164.51,174.79,3
157,164.36,174.62,3
157,164.22,174.44,3
157,164.07,174.26,3
156,163.91,174.08,3
156,163.75,173.90,3
156,163.60,173.72,3
156,163.44,173.55,3
155,163.28,173.36,3
155,163.11,173.18,3
155,162.95,172.99,3
154,162.77,172.80,3
155,162.61,172.63,3
155,162.46,172.45,3
154,162.29,172.27,3
154,162.13,172.08,3
153,161.94,171.89,3
153,161.77,171.70,3
153,161.59,171.52,3
153,161.42,171.33,3
153,161.25,171.15,3
153,161.08,170.97,3
153,160.92,170.79,3
153,160.76,170.61,3
152,160.59,170.42,3
152,160.42,170.24,3
152,160.25,170.06,3
151,160.06,169.87,3
152,159.90,169.69,3
151,159.72,169.50,3
151,159.55,169.31,3
151,159.38,169.13,3
151,159.21,168.95,3
151,159.05,168.77,3
152,158.91,168.60,3
152,158.77,168.44,3
151,158.61,168.26,3
151,158.46,168.09,3
150,158.29,167.91,3
149,158.11,167.72,3
151,157.96,167.55,3
151,157.82,167.39,3
151,157.69,167.22,3
150,157.53,167.05,3
150,157.38,166.88,3
149,157.22,166.70,3
149,157.05,166.53,3
149,156.89,166.35,3
148,156.71,166.17,3
149,156.56,165.99,3
147,156.37,165.80,3
149,156.22,165.64,3
148,156.06,165.46,3
147,155.87,165.28,3
147,155.70,165.09,3
149,155.56,164.93,3
147,155.39,164.75,3
146,155.20,164.57,3
145,155.00,164.37,3
146,154.82,164.19,3
148,154.68,164.02,3
147,154.53,163.85,3
146,154.36,163.68,3
145,154.17,163.49,3
145,153.99,163.30,3
145,153.81,163.12,3
145,153.63,162.94,3
145,153.46,162.76,3
145,153.29,162.58,3
145,153.12,162.41,3
149,153.04,162.27,3
145,152.88,162.10,3
145,152.72,161.93,3
144,152.55,161.75,3
145,152.40,161.58,3
145,152.25,161.42,3
144,152.09,161.24,3
145,151.94,161.08,3
143,151.76,160.90,3
145,151.63,160.74,3
145,151.50,160.58,3
145,151.37,160.43,3
144,151.22,160.26,3
144,151.08,160.10,3
143,150.91,159.93,3
143,150.76,159.76,3
140,150.54,159.56,3
143,150.39,159.40,3
143,150.24,159.23,3
143,150.10,159.07,3
143,149.96,158.91,3
142,149.80,158.74,3
141,149.62,158.56,3
143,149.49,158.41,3
142,149.34,158.24,3
141,149.17,158.07,3
141,149.01,157.90,3
141,148.85,157.73,3
141,148.69,157.56,3
141,148.54,157.40,3
141,148.39,157.23,3
141,148.24,157.07,3
141,148.09,156.91,3
140,147.93,156.74,3
141,147.79,156.58,3
140,147.64,156.42,3
140,147.48,156.25,3
140,147.33,156.09,3
139,147.17,155.92,3
139,147.00,155.75,3
139,146.84,155.58,3
139,146.69,155.42,3
139,146.53,155.25,3
139,146.38,155.09,3
137,146.20,154.91,3
139,146.05,154.75,3
139,145.91,154.59,3
138,145.75,154.43,3
138,145.60,154.26,3
139,145.47,154.11,3
137,145.30,153.94,3
137,145.13,153.77,3
137,144.97,153.60,3
138,144.83,153.45,3
137,144.67,153.28,3
135,144.48,153.10,3
137,144.33,152.94,3
136,144.16,152.77,3
137,144.02,152.61,3
137,143.88,152.46,3
137,143.74,152.30,3
137,143.61,152.15,3
137,143.47,152.00,3
136,143.32,151.84,3
137,143.20,151.69,3
136,143.05,151.53,3
137,142.93,151.39,3
136,142.79,151.23,3
137,142.68,151.09,3
135,142.53,150.93,3
136,142.39,150.78,3
135,142.25,150.62,3
136,142.12,150.48,3
135,141.98,150.32,3
135,141.84,150.17,3
135,141.70,150.02,3
134,141.55,149.86,3
135,141.42,149.71,3
134,141.27,149.55,3
134,141.12,149.39,3
134,140.98,149.24,3
134,140.84,149.09,3
134,140.71,148.94,3
135,140.59,148.80,3
134,140.46,148.65,3
133,140.31,148.49,3
133,140.16,148.34,3
133,140.02,148.19,3
133,139.88,148.03,3
134,139.76,147.89,3
133,139.63,147.74,3
133,139.49,147.60,3
133,139.36,147.45,3
133,139.24,147.31,3
135,139.15,147.18,3
133,139.03,147.04,3
133,138.91,146.90,3
131,138.75,146.74,3
133,138.64,146.60,3
131,138.48,146.45,3
133,138.37,146.31,3
132,138.25,146.17,3
131,138.10,146.02,3
132,137.98,145.88,3
130,137.82,145.72,3
131,137.68,145.57,3
132,137.57,145.44,3
129,137.40,145.27,3
130,137.25,145.12,3
131,137.13,144.98,3
129,136.96,144.82,3
130,136.82,144.67,3
129,136.67,144.51,3
129,136.51,144.36,3
129,136.36,144.21,3
129,136.22,144.05,3
129,136.07,143.90,3
129,135.93,143.75,3
129,135.79,143.61,3
129,135.66,143.46,3
129,135.52,143.32,3
130,135.41,143.18,3
129,135.28,143.04,3
129,135.16,142.90,3
129,135.04,142.76,3
128,134.89,142.61,3
129,134.78,142.48,3
128,134.64,142.33,3
127,134.49,142.18,3
127,134.34,142.03,3
127,134.19,141.88,3
127,134.05,141.73,3
127,133.91,141.58,3
127,133.77,141.44,3
127,133.63,141.29,3
127,133.50,141.15,3
129,133.41,141.03,3
128,133.30,140.90,3
127,133.18,140.76,3
127,133.05,140.62,3
127,132.93,140.48,3
127,132.81,140.35,3
128,132.72,140.23,3
127,132.60,140.09,3
127,132.49,139.96,3
127,132.38,139.83,3
127,132.27,139.70,3
125,132.13,139.56,3
127,132.03,139.43,3
129,131.96,139.33,3
127,131.87,139.20,3
127,131.77,139.08,3
127,131.67,138.96,3
127,131.58,138.84,3
127,131.49,138.72,3
126,131.38,138.60,3
126,131.27,138.47,3
127,131.18,138.36,3
127,131.10,138.24,3
126,131.00,138.12,3
125,130.88,137.99,3
126,130.78,137.87,3
125,130.67,137.74,3
125,130.55,137.61,3
125,130.44,137.49,3
121,130.25,137.32,3
125,130.15,137.20,3
125,130.04,137.08,3
125,129.94,136.96,3
123,129.81,136.82,3
124,129.69,136.69,3
124,129.58,136.56,3
124,129.46,136.44,3
124,129.35,136.31,3
123,129.23,136.18,3
124,129.12,136.06,3
123,129.00,135.93,3
124,128.90,135.81,3
123,128.78,135.68,3
121,128.63,135.53,3
122,128.49,135.40,3
123,128.38,135.27,3
122,128.26,135.14,3
122,128.13,135.01,3
121,127.99,134.87,3
123,127.89,134.75,3
121,127.75,134.61,3
122,127.64,134.49,3
122,127.52,134.36,3
121,127.39,134.23,3
121,127.27,134.09,3
122,127.16,133.97,3
121,127.04,133.84,3
122,126.94,133.73,3
121,126.82,133.60,3
121,126.70,133.47,3
123,126.63,133.37,3
123,126.55,133.26,3
123,126.48,133.16,3
123,126.41,133.06,3
125,126.39,132.98,3
125,126.36,132.90,3
124,126.31,132.81,3
124,126.26,132.72,3
125,126.24,132.65,3
125,126.21,132.57,3
124,126.17,132.48,3
123,126.11,132.39,3
124,126.06,132.30,3
125,126.04,132.23,3
124,126.00,132.15,3
124,125.96,132.07,3
123,125.90,131.98,3
125,125.88,131.91,3
123,125.83,131.82,3
123,125.77,131.73,3
123,125.72,131.64,3
123,125.66,131.56,3
123,125.61,131.47,3
124,125.58,131.40,3
123,125.52,131.31,3
123,125.47,131.23,3
124,125.44,131.16,3
125,125.44,131.09,3
123,125.39,131.01,3
123,125.34,130.93,3
124,125.31,130.86,3
125,125.31,130.81,3
125,125.30,130.75,3
125,125.29,130.69,3
124,125.27,130.62,3
124,125.24,130.56,3
125,125.24,130.50,3
125,125.23,130.45,3
125,125.23,130.39,3
124,125.20,130.33,3
125,125.20,130.27,3
125,125.20,130.22,3
125,125.19,130.17,3
125,125.19,130.12,3
124,125.16,130.06,3
123,125.12,129.99,3
125,125.12,129.94,3
128,125.18,129.92,3
125,125.17,129.87,3
125,125.17,129.82,3
125,125.17,129.77,3
124,125.14,129.71,3
123,125.10,129.65,3
124,125.08,129.59,3
124,125.06,129.53,3
125,125.05,129.49,3
123,125.01,129.42,3
124,124.99,129.37,3
123,124.95,129.31,3
124,124.93,129.25,3
123,124.90,129.19,3
123,124.86,129.13,3
124,124.84,129.08,3
122,124.78,129.01,3
124,124.77,128.96,3
123,124.73,128.90,3
125,124.74,128.86,3
124,124.72,128.81,3
125,124.73,128.77,3
123,124.69,128.71,3
124,124.68,128.67,3
123,124.65,128.61,3
125,124.65,128.57,3
124,124.64,128.53,3
123,124.61,128.47,3
124,124.60,128.43,3
124,124.58,128.38,3
123,124.55,128.33,3
123,124.52,128.28,3
121,124.45,128.20,3
123,124.42,128.15,3
123,124.39,128.10,3
122,124.35,128.04,3
123,124.32,127.99,3
124,124.31,127.95,3
124,124.31,127.91,3
123,124.28,127.86,3
124,124.27,127.82,3
123,124.25,127.77,3
124,124.24,127.74,3
123,124.22,127.69,3
122,124.17,127.63,3
122,124.13,127.58,3
123,124.11,127.53,3
123,124.09,127.48,3
123,124.06,127.44,3
123,124.04,127.39,3
122,124.00,127.34,3
124,124.00,127.31,3
123,123.98,127.26,3
123,123.96,127.22,3
123,123.94,127.18,3
126,123.98,127.17,3
123,123.96,127.13,3
124,123.97,127.09,3
123,123.95,127.05,3
124,123.95,127.02,3
124,123.95,126.99,3
124,123.95,126.96,3
123,123.93,126.92,3
124,123.93,126.89,3
125,123.95,126.88,3
123,123.93,126.84,3
124,123.94,126.81,3
123,123.92,126.77,3
125,123.94,126.75,3
125,123.96,126.73,3
125,123.98,126.72,3
122,123.94,126.67,3
125,123.96,126.65,3
127,124.02,126.66,3
127,124.08,126.66,3
129,124.18,126.68,3
128,124.26,126.70,3
128,124.33,126.71,3
127,124.39,126.71,3
127,124.44,126.72,3
127,124.49,126.72,3
129,124.58,126.74,3
128,124.65,126.75,3
129,124.73,126.78,3
131,124.86,126.82,3
129,124.94,126.84,3
129,125.02,126.86,3
129,125.10,126.88,3
131,125.22,126.92,3
131,125.34,126.97,3
131,125.45,127.01,3
130,125.54,127.04,3
129,125.61,127.06,3
131,125.72,127.09,3
130,125.80,127.12,3
131,125.91,127.16,3
129,125.97,127.18,3
129,126.03,127.20,3
129,126.09,127.22,3
131,126.19,127.26,3
131,126.28,127.29,3
130,126.36,127.32,3
131,126.45,127.36,3
131,126.54,127.39,3
133,126.67,127.45,3
131,126.76,127.48,3
133,126.88,127.54,3
132,126.99,127.58,3
132,127.09,127.63,3
133,127.20,127.68,3
132,127.30,127.73,3
132,127.39,127.77,3
135,127.55,127.84,3
133,127.65,127.89,3
133,127.76,127.94,3
133,127.87,127.99,3
133,127.97,128.04,3
134,128.09,128.10,3
134,128.21,128.16,3
133,128.30,128.21,3
133,128.40,128.26,3
133,128.49,128.31,3
133,128.58,128.35,3
135,128.71,128.42,3
134,128.81,128.48,3
133,128.90,128.52,3
135,129.02,128.59,3
136,129.16,128.66,3
134,129.26,128.71,3
135,129.37,128.78,3
133,129.44,128.82,3
135,129.56,128.88,3
135,129.66,128.94,3
135,129.77,129.00,3
134,129.86,129.05,3
135,129.96,129.11,3
134,130.04,129.16,3
135,130.14,129.22,3
136,130.26,129.29,3
135,130.35,129.34,3
135,130.44,129.40,3
134,130.51,129.45,3
135,130.60,129.50,3
134,130.67,129.55,3
136,130.78,129.61,3
136,130.88,129.67,3
136,130.99,129.74,3
133,131.03,129.77,3
135,131.11,129.82,3
138,131.24,129.90,3
137,131.36,129.98,3
136,131.45,130.04,3
136,131.54,130.10,3
137,131.65,130.16,3
136,131.74,130.22,3
137,131.84,130.29,3
136,131.93,130.35,3
137,132.03,130.41,3
136,132.11,130.47,3
137,132.21,130.54,3
138,132.32,130.61,3
137,132.41,130.67,3
137,132.51,130.74,3
137,132.60,130.80,3
137,132.68,130.86,3
136,132.75,130.91,3
139,132.88,130.99,3
139,133.00,131.07,3
137,133.08,131.13,3
137,133.16,131.19,3
140,133.29,131.28,3
139,133.41,131.36,3
140,133.54,131.44,3
139,133.65,131.52,3
141,133.80,131.61,3
140,133.92,131.70,3
141,134.06,131.79,3
141,134.20,131.88,3
143,134.38,131.99,3
143,134.55,132.10,3
142,134.70,132.20,3
141,134.82,132.29,3
143,134.99,132.40,3
145,135.19,132.52,3
144,135.36,132.64,3
145,135.56,132.76,3
145,135.75,132.89,3
143,135.89,132.99,3
143,136.03,133.09,3
143,136.17,133.19,3
144,136.33,133.29,3
145,136.50,133.41,3
144,136.65,133.52,3
145,136.82,133.63,3
149,137.06,133.79,3
148,137.28,133.93,3
146,137.46,134.05,3
149,137.69,134.20,3
151,137.95,134.37,3
153,138.25,134.55,3
152,138.53,134.73,3
151,138.78,134.89,3
153,139.06,135.07,3
153,139.34,135.25,3
157,139.69,135.47,3
154,139.98,135.65,3
153,140.24,135.83,3
153,140.50,136.00,3
153,140.75,136.17,3
153,140.99,136.34,3
153,141.23,136.50,3
154,141.49,136.68,3
153,141.72,136.84,3
157,142.02,137.04,3
162,142.42,137.29,3
157,142.71,137.49,3
157,143.00,137.68,3
156,143.26,137.87,3
155,143.49,138.04,3
156,143.74,138.22,3
155,143.97,138.39,3
156,144.21,138.56,3
155,144.43,138.73,3
159,144.72,138.93,3
159,145.00,139.13,3
159,145.28,139.33,3
157,145.52,139.51,3
158,145.77,139.69,3
160,146.05,139.89,3
163,146.39,140.12,3
159,146.64,140.31,3
160,146.91,140.51,3
160,147.17,140.71,3
160,147.43,140.90,3
162,147.72,141.11,3
161,147.99,141.31,3
163,148.29,141.52,3
160,148.52,141.71,3
165,148.85,141.94,3
165,149.17,142.17,3
165,149.49,142.40,3
163,149.76,142.61,3
165,150.06,142.83,3
167,150.40,143.07,3
168,150.75,143.32,3
167,151.08,143.56,3
165,151.36,143.77,3
167,151.67,144.01,3
167,151.98,144.24,3
167,152.28,144.46,3
169,152.61,144.71,3
168,152.92,144.94,3
171,153.28,145.20,3
171,153.64,145.46,3
171,153.98,145.72,3
169,154.28,145.95,3
173,154.66,146.22,3
173,155.03,146.49,3
171,155.34,146.73,3
175,155.74,147.01,3
173,156.08,147.27,3
173,156.42,147.53,3
171,156.71,147.77,3
175,157.08,148.04,3
174,157.42,148.30,3
175,157.77,148.57,3
177,158.15,148.85,3
175,158.49,149.11,3
175,158.82,149.37,3
174,159.12,149.62,3
177,159.48,149.89,3
180,159.89,150.19,3
183,160.35,150.52,3
183,160.81,150.84,3
180,161.19,151.14,3
181,161.59,151.43,3
183,162.02,151.75,3
185,162.48,152.08,3
186,162.95,152.42,3
186,163.41,152.76,3
186,163.86,153.09,3
184,164.26,153.40,3
184,164.66,153.71,3
184,165.04,154.01,3
184,165.42,154.31,3
184,165.79,154.60,3
187,166.22,154.93,3
193,166.75,155.31,3
195,167.32,155.71,3
192,167.81,156.07,3
195,168.36,156.46,3
200,168.99,156.89,3
203,169.67,157.36,3
199,170.26,157.77,3
198,170.81,158.17,3
199,171.37,158.58,3
199,171.93,158.99,3
201,172.51,159.41,3
202,173.10,159.83,3
204,173.72,160.27,3
208,174.40,160.75,3
204,174.99,161.18,3
207,175.63,161.64,3
208,176.28,162.11,3
211,176.98,162.59,3
213,177.70,163.10,3
209,178.32,163.56,3
211,178.98,164.03,3
214,179.68,164.53,3
217,180.42,165.06,3
215,181.11,165.56,3
211,181.71,166.01,3
212,182.32,166.47,3
211,182.89,166.92,3
209,183.41,167.34,3
216,184.07,167.82,3
215,184.68,168.29,3
214,185.27,168.75,3
217,185.90,169.23,3
219,186.57,169.73,3
224,187.32,170.27,3
225,188.07,170.82,3
221,188.73,171.32,3
227,189.49,171.88,3
228,190.26,172.44,3
226,190.98,172.98,3
224,191.64,173.49,3
227,192.35,174.02,3
227,193.04,174.55,3
231,193.80,175.12,3
227,194.46,175.64,3
225,195.07,176.13,3
227,195.71,176.64,3
227,196.34,177.14,3
227,196.95,177.64,3
226,197.53,178.12,3
228,198.14,178.62,3
229,198.76,179.13,3
227,199.32,179.61,3
227,199.88,180.08,3
227,200.42,180.55,3
226,200.93,181.00,3
229,201.49,181.48,3
229,202.04,181.96,3
228,202.56,182.42,3
229,203.09,182.88,3
233,203.69,183.39,3
229,204.19,183.84,3
229,204.69,184.29,3
231,205.22,184.76,3
233,205.77,185.24,3
232,206.30,185.71,3
233,206.83,186.18,3
237,207.43,186.69,3
237,208.03,187.19,3
236,208.59,187.68,3
235,209.11,188.16,3
233,209.59,188.60,3
235,210.10,189.07,3
237,210.64,189.55,3
235,211.12,190.00,3
235,211.60,190.45,3
233,212.03,190.88,3
236,212.51,191.33,3
234,212.94,191.76,3
234,213.36,192.18,3
233,213.75,192.59,3
233,214.14,192.99,3
235,214.56,193.41,3
234,214.94,193.82,3
236,215.37,194.24,3
236,215.78,194.66,3
242,216.30,195.13,3
244,216.86,195.62,3
239,217.30,196.05,3
243,217.81,196.52,3
247,218.40,197.03,3
249,219.01,197.55,3
251,219.65,198.08,3
245,220.16,198.55,3
247,220.69,199.03,3
248,221.24,199.52,3
252,221.85,200.05,3
248,222.38,200.53,3
247,222.87,200.99,3
247,223.35,201.45,3
246,223.81,201.90,3
249,224.31,202.37,3
247,224.76,202.82,3
247,225.21,203.26,3
248,225.66,203.70,3
247,226.09,204.14,3
247,226.51,204.57,3
247,226.92,204.99,3
247,227.32,205.41,3
248,227.73,205.84,3
251,228.20,206.29,3
249,228.62,206.72,3
247,228.98,207.12,3
248,229.36,207.53,3
247,229.72,207.92,3
246,230.04,208.30,3
245,230.34,208.67,3
246,230.65,209.04,3
248,231.00,209.43,3
249,231.36,209.83,3
250,231.73,210.23,3
247,232.04,210.60,3
252,232.44,211.01,3
251,232.81,211.41,3
249,233.13,211.79,3
249,233.45,212.16,3
250,233.78,212.54,3
251,234.13,212.92,3
252,234.48,213.31,3
249,234.77,213.67,3
250,235.08,214.03,3
251,235.40,214.40,3
251,235.71,214.77,3
251,236.01,215.13,3
249,236.27,215.47,3
249,236.53,215.81,3
250,236.80,216.15,3
249,237.04,216.48,3
249,237.28,216.80,3
249,237.52,217.12,3
248,237.73,217.43,3
248,237.93,217.74,3
248,238.13,218.04,3
252,238.41,218.38,3
252,238.68,218.72,3
249,238.89,219.02,3
253,239.17,219.36,3
256,239.51,219.72,3
256,239.84,220.09,3
253,240.10,220.42,3
253,240.36,220.74,3
253,240.61,221.07,3
254,240.88,221.39,3
252,241.10,221.70,3
253,241.34,222.01,3
251,241.53,222.30,3
253,241.76,222.61,3
252,241.97,222.90,3
251,242.15,223.19,3
250,242.30,223.45,3
251,242.48,223.73,3
253,242.69,224.02,3
250,242.83,224.28,3
249,242.96,224.53,3
249,243.08,224.77,3
248,243.18,225.01,3
248,243.27,225.24,3
247,243.35,225.45,3
246,243.40,225.66,3
247,243.47,225.87,3
247,243.54,226.08,3
247,243.61,226.29,3
245,243.64,226.48,3
247,243.71,226.68,3
247,243.77,226.89,3
247,243.84,227.09,3
245,243.86,227.27,3
244,243.86,227.44,3
245,243.89,227.61,3
245,243.91,227.79,3
244,243.91,227.95,3
244,243.91,228.11,3
243,243.89,228.26,3
244,243.90,228.41,3
243,243.88,228.56,3
241,243.82,228.68,3
242,243.78,228.82,3
241,243.73,228.94,3
241,243.67,229.06,3
241,243.62,229.18,3
240,243.55,229.29,3
241,243.50,229.40,3
241,243.45,229.52,3
239,243.36,229.62,3
239,243.27,229.71,3
237,243.15,229.78,3
239,243.06,229.87,3
237,242.94,229.95,3
237,242.82,230.02,3
237,242.71,230.09,3
239,242.63,230.18,3
238,242.54,230.25,3
237,242.43,230.32,3
239,242.36,230.41,3
239,242.29,230.49,3
239,242.23,230.58,3
237,242.12,230.64,3
237,242.02,230.71,3
236,241.90,230.76,3
237,241.80,230.82,3
235,241.67,230.86,3
237,241.57,230.92,3
235,241.44,230.97,3
235,241.31,231.01,3
235,241.19,231.05,3
235,241.06,231.09,3
236,240.96,231.13,3
233,240.80,231.15,3
233,240.65,231.17,3
232,240.47,231.18,3
233,240.32,231.20,3
231,240.14,231.20,3
232,239.97,231.20,3
232,239.81,231.21,3
231,239.64,231.21,3
231,239.47,231.21,3
231,239.30,231.21,3
229,239.09,231.18,3
229,238.89,231.16,3
229,238.69,231.14,3
230,238.52,231.13,3
229,238.33,231.11,3
229,238.14,231.09,3
227,237.92,231.05,3
227,237.70,231.01,3
227,237.49,230.97,3
227,237.28,230.93,3
228,237.09,230.90,3
227,236.89,230.86,3
225,236.65,230.80,3
225,236.42,230.74,3
225,236.19,230.68,3
225,235.97,230.63,3
225,235.75,230.57,3
223,235.49,230.49,3
224,235.26,230.43,3
225,235.06,230.38,3
224,234.83,230.31,3
223,234.60,230.24,3
224,234.39,230.18,3
223,234.16,230.10,3
223,233.94,230.03,3
222,233.70,229.95,3
222,233.46,229.87,3
221,233.21,229.78,3
221,232.97,229.70,3
221,232.73,229.61,3
220,232.48,229.51,3
221,232.25,229.43,3
219,231.98,229.32,3
219,231.72,229.22,3
219,231.47,229.12,3
219,231.22,229.02,3
218,230.95,228.91,3
219,230.71,228.81,3
217,230.44,228.69,3
217,230.17,228.57,3
217,229.91,228.46,3
217,229.65,228.34,3
216,229.38,228.22,3
216,229.11,228.10,3
215,228.83,227.97,3
215,228.55,227.84,3
215,228.28,227.71,3
214,227.99,227.57,3
213,227.69,227.43,3
213,227.40,227.28,4
213,227.11,227.14,4
213,226.83,227.00,4
213,226.55,226.86,4
212,226.26,226.71,4
213,226.00,226.57,4
211,225.70,226.42,4
212,225.42,226.27,4
212,225.15,226.13,4
215,224.95,226.02,4
211,224.67,225.87,4
210,224.38,225.71,4
211,224.11,225.56,4
209,223.81,225.40,4
211,223.55,225.25,4
211,223.30,225.11,4
210,223.04,224.96,4
210,222.78,224.81,4
210,222.52,224.66,4
209,222.25,224.50,4
209,221.98,224.35,4
208,221.70,224.19,4
208,221.43,224.02,4
208,221.16,223.86,4
207,220.88,223.70,4
208,220.62,223.54,4
207,220.35,223.37,4
207,220.08,223.21,4
206,219.80,223.04,4
207,219.54,222.88,4
206,219.27,222.71,4
207,219.03,222.55,4
205,218.75,222.38,4
205,218.47,222.20,4
207,218.24,222.05,4
205,217.98,221.88,4
203,217.68,221.69,4
205,217.42,221.52,4
203,217.14,221.34,4
203,216.85,221.15,4
201,216.54,220.95,4
203,216.27,220.77,4
202,215.98,220.59,4
202,215.70,220.40,4
201,215.41,220.21,4
201,215.12,220.01,4
201,214.84,219.82,4
201,214.56,219.64,4
201,214.29,219.45,4
200,214.00,219.25,4
199,213.70,219.05,4
200,213.43,218.86,4
199,213.14,218.66,4
199,212.86,218.47,4
199,212.58,218.27,4
199,212.31,218.08,4
198,212.02,217.88,4
198,211.74,217.68,4
198,211.47,217.48,4
197,211.18,217.28,4
197,210.89,217.08,4
197,210.62,216.87,4
197,210.34,216.68,4
197,210.08,216.48,4
197,209.82,216.28,4
196,209.54,216.08,4
195,209.25,215.87,4
196,208.98,215.67,4
195,208.70,215.47,4
196,208.45,215.27,4
195,208.18,215.07,4
194,207.90,214.86,4
193,207.60,214.64,4
194,207.33,214.43,4
193,207.04,214.22,4
194,206.78,214.02,4
193,206.50,213.81,4
193,206.23,213.60,4
192,205.95,213.38,4
192,205.67,213.17,4
193,205.42,212.97,4
193,205.17,212.77,4
193,204.93,212.57,4
191,204.65,212.35,4
192,204.39,212.15,4
191,204.13,211.94,4
193,203.90,211.75,4
191,203.65,211.54,4
190,203.37,211.33,4
191,203.13,211.12,4
189,202.84,210.90,4
189,202.57,210.68,4
189,202.29,210.47,4
189,202.03,210.25,4
188,201.75,210.03,4
189,201.49,209.82,4
187,201.20,209.59,4
188,200.94,209.37,4
188,200.68,209.16,4
188,200.43,208.95,4
187,200.16,208.73,4
187,199.90,208.51,4
187,199.64,208.30,4
188,199.40,208.09,4
187,199.16,207.88,4
186,198.89,207.66,4
187,198.66,207.46,4
187,198.42,207.25,4
185,198.15,207.03,4
185,197.89,206.81,4
185,197.63,206.59,4
185,197.38,206.38,4
184,197.11,206.15,4
184,196.85,205.93,4
184,196.59,205.71,4
183,196.32,205.48,4
183,196.06,205.26,4
183,195.79,205.04,4
183,195.54,204.82,4
182,195.27,204.59,4
182,195.00,204.36,4
181,194.72,204.13,4
181,194.45,203.90,4
181,194.18,203.67,4
182,193.94,203.45,4
181,193.68,203.23,4
181,193.42,203.00,4
181,193.17,202.78,4
180,192.91,202.56,4
180,192.65,202.33,4
179,192.38,202.10,4
179,192.11,201.87,4
179,191.85,201.64,4
180,191.61,201.42,4
178,191.34,201.19,4
178,191.07,200.96,4
177,190.79,200.72,4
177,190.52,200.48,4
177,190.25,200.24,4
178,190.00,200.02,4
177,189.74,199.79,4
177,189.49,199.56,4
176,189.22,199.33,4
177,188.97,199.11,4
175,188.69,198.86,4
177,188.46,198.65,4
175,188.19,198.41,4
176,187.95,198.18,4
177,187.73,197.97,4
176,187.49,197.75,4
177,187.28,197.55,4
175,187.04,197.32,4
175,186.80,197.10,4
175,186.56,196.88,4
175,186.33,196.66,4
175,186.10,196.44,4
176,185.90,196.24,4
175,185.68,196.02,4
175,185.47,195.81,4
175,185.26,195.61,4
174,185.03,195.39,4
175,184.83,195.19,4
175,184.64,194.98,4
175,184.44,194.78,4
175,184.26,194.59,4
174,184.05,194.38,4
174,183.85,194.18,4
173,183.63,193.96,4
173,183.42,193.76,4
173,183.21,193.55,4
173,183.01,193.34,4
173,182.81,193.14,4
173,182.61,192.94,4
173,182.42,192.74,4
172,182.21,192.53,4
172,182.01,192.33,4
172,181.81,192.12,4
171,181.59,191.91,4
170,181.36,191.69,4
171,181.15,191.48,4
170,180.93,191.27,4
170,180.71,191.06,4
171,180.52,190.86,4
169,180.28,190.64,4
169,180.06,190.42,4
169,179.84,190.21,4
169,179.62,190.00,4
168,179.39,189.78,4
169,179.18,189.57,4
168,178.96,189.35,4
168,178.74,189.14,4
167,178.50,188.92,4
167,178.27,188.70,4
169,178.09,188.50,4
168,177.89,188.30,4
167,177.67,188.08,4
167,177.46,187.87,4
166,177.23,187.65,4
166,177.00,187.44,4
165,176.76,187.21,4
165,176.53,186.99,4
166,176.32,186.78,4
166,176.11,186.57,4
165,175.89,186.36,4
166,175.69,186.15,4
167,175.52,185.96,4
166,175.33,185.76,4
165,175.12,185.55,4
165,174.92,185.35,4
165,174.72,185.15,4
165,174.52,184.94,4
166,174.35,184.75,4
165,174.17,184.56,4
164,173.96,184.35,4
164,173.76,184.15,4
163,173.55,183.94,4
165,173.38,183.75,4
163,173.17,183.54,4
165,173.01,183.35,4
163,172.81,183.15,4
163,172.61,182.95,4
162,172.40,182.74,4
162,172.19,182.53,4
161,171.97,182.32,4
161,171.75,182.10,4
161,171.53,181.89,4
163,171.36,181.70,4
159,171.11,181.48,4
162,170.93,181.28,4
162,170.75,181.09,4
162,170.58,180.90,4
164,170.45,180.73,4
162,170.28,180.54,4
162,170.11,180.36,4
163,169.97,180.18,4
164,169.85,180.02,4
165,169.75,179.87,4
165,169.66,179.72,4
167,169.61,179.60,4
163,169.47,179.43,4
164,169.36,179.27,4
163,169.24,179.11,4
164,169.13,178.96,4
163,169.01,178.80,4
162,168.87,178.63,4
161,168.71,178.46,4
163,168.60,178.30,4
162,168.47,178.14,4
162,168.34,177.98,4
161,168.19,177.81,4
161,168.05,177.64,4
161,167.90,177.47,4
163,167.81,177.33,4
161,167.67,177.17,4
162,167.56,177.01,4
161,167.43,176.85,4
161,167.30,176.70,4
161,167.17,176.54,4
162,167.07,176.39,4
162,166.97,176.25,4
163,166.89,176.12,4
161,166.77,175.97,4
161,166.65,175.82,4
161,166.54,175.67,4
163,166.47,175.54,4
164,166.42,175.43,4
162,166.33,175.29,4
163,166.27,175.17,4
162,166.18,175.04,4
161,166.08,174.90,4
161,165.98,174.76,4
161,165.88,174.62,4
161,165.78,174.48,4
160,165.66,174.34,4
161,165.57,174.21,4
160,165.46,174.06,4
159,165.33,173.91,4
160,165.22,173.77,4
159,165.10,173.63,4
159,164.98,173.48,4
159,164.86,173.33,4
159,164.74,173.19,4
159,164.62,173.05,4
158,164.49,172.90,4
157,164.34,172.74,4
158,164.22,172.59,4
157,164.07,172.44,4
158,163.95,172.29,4
159,163.85,172.16,4
158,163.73,172.02,4
159,163.64,171.89,4
159,163.55,171.76,4
160,163.48,171.64,4
159,163.39,171.51,4
159,163.30,171.39,4
157,163.17,171.25,4
158,163.07,171.11,4
159,162.99,170.99,4
157,162.87,170.85,4
157,162.75,170.71,4
157,162.64,170.58,4
157,162.52,170.44,4
155,162.37,170.29,4
156,162.24,170.14,4
156,162.12,170.00,4
155,161.98,169.85,4
155,161.84,169.70,4
156,161.72,169.57,4
155,161.59,169.42,4
156,161.47,169.29,4
155,161.35,169.14,4
153,161.18,168.98,4
153,161.01,168.82,4
154,160.87,168.67,4
155,160.76,168.54,4
155,160.64,168.40,4
155,160.53,168.27,4
154,160.40,168.13,4
153,160.25,167.97,4
153,160.11,167.82,4
153,159.96,167.68,4
153,159.82,167.53,4
153,159.69,167.38,4
153,159.55,167.24,4
155,159.46,167.12,4
152,159.31,166.97,4
153,159.19,166.83,4
153,159.06,166.69,4
153,158.94,166.55,4
153,158.82,166.42,4
152,158.69,166.27,4
152,158.55,166.13,4
152,158.42,165.99,4
152,158.29,165.85,4
151,158.15,165.70,4
152,158.02,165.56,4
151,157.88,165.42,4
151,157.75,165.27,4
151,157.61,165.13,4
149,157.44,164.97,4
151,157.31,164.83,4
151,157.18,164.69,4
149,157.02,164.53,4
150,156.88,164.39,4
149,156.72,164.24,4
150,156.59,164.09,4
149,156.44,163.94,4
149,156.29,163.79,4
147,156.10,163.62,4
149,155.96,163.48,4
149,155.82,163.33,4
149,155.68,163.19,4
149,155.55,163.05,4
148,155.40,162.90,4
148,155.25,162.75,4
148,155.11,162.60,4
149,154.98,162.47,4
147,154.83,162.31,4
147,154.67,162.16,4
148,154.54,162.02,4
147,154.38,161.87,4
148,154.26,161.73,4
148,154.13,161.59,4
147,153.99,161.44,4
147,153.85,161.30,4
147,153.71,161.16,4
147,153.58,161.01,4
147,153.45,160.87,4
146,153.30,160.73,4
146,153.15,160.58,4
147,153.03,160.44,4
146,152.89,160.30,4
145,152.73,160.15,4
145,152.58,159.99,4
145,152.42,159.84,4
145,152.28,159.70,4
145,152.13,159.55,4
145,151.99,159.40,4
144,151.83,159.25,4
146,151.71,159.12,4
144,151.56,158.97,4
145,151.43,158.83,4
145,151.30,158.69,4
144,151.15,158.54,4
143,150.99,158.39,4
145,150.87,158.25,4
143,150.71,158.10,4
143,150.56,157.95,4
144,150.43,157.81,4
144,150.30,157.67,4
145,150.19,157.54,4
143,150.05,157.40,4
143,149.91,157.25,4
141,149.73,157.09,4
143,149.59,156.95,4
142,149.44,156.80,4
142,149.29,156.65,4
141,149.13,156.50,4
142,148.98,156.35,4
143,148.87,156.22,4
142,148.73,156.08,4
142,148.59,155.94,4
142,148.46,155.80,4
143,148.35,155.67,4
143,148.25,155.54,4
143,148.14,155.42,4
142,148.02,155.28,4
141,147.88,155.14,4
141,147.74,155.00,4
141,147.60,154.86,4
142,147.49,154.73,4
143,147.40,154.61,4
141,147.27,154.48,4
141,147.15,154.34,4
141,147.03,154.21,4
142,146.93,154.09,4
141,146.81,153.95,4
141,146.69,153.83,4
140,146.56,153.69,4
140,146.43,153.55,4
140,146.30,153.41,4
139,146.15,153.27,4
140,146.03,153.14,4
139,145.89,153.00,4
139,145.75,152.86,4
140,145.64,152.73,4
139,145.50,152.59,4
139,145.37,152.45,4
138,145.23,152.31,4
137,145.06,152.16,4
137,144.90,152.01,4
139,144.78,151.88,4
137,144.63,151.73,4
138,144.49,151.59,4
137,144.34,151.44,4
137,144.20,151.30,4
137,144.05,151.16,4
137,143.91,151.01,4
137,143.77,150.87,4
137,143.64,150.74,4
137,143.51,150.60,4
136,143.36,150.45,4
133,143.15,150.28,4
137,143.03,150.14,4
136,142.88,150.00,4
137,142.77,149.87,4
137,142.65,149.74,4
136,142.52,149.61,4
135,142.37,149.46,4
136,142.24,149.33,4
136,142.12,149.19,4
135,141.97,149.05,4
135,141.83,148.91,4
135,141.70,148.77,4
134,141.54,148.62,4
135,141.41,148.49,4
135,141.28,148.35,4
133,141.12,148.20,4
135,141.00,148.07,4
134,140.86,147.93,4
135,140.74,147.80,4
133,140.58,147.65,4
133,140.43,147.50,4
133,140.28,147.36,4
133,140.14,147.21,4
134,140.02,147.08,4
133,139.88,146.94,4
133,139.74,146.80,4
133,139.60,146.66,4
133,139.47,146.53,4
133,139.34,146.39,4
133,139.21,146.26,4
132,139.07,146.12,4
132,138.93,145.97,4
132,138.79,145.83,4
133,138.67,145.71,4
131,138.52,145.56,4
133,138.41,145.43,4
132,138.28,145.30,4
131,138.14,145.16,4
132,138.01,145.02,4
134,137.93,144.91,4
132,137.82,144.79,4
132,137.70,144.66,4
131,137.56,144.52,4
131,137.43,144.39,4
131,137.30,144.25,4
131,137.18,144.12,4
131,137.06,143.99,4
130,136.91,143.85,4
132,136.82,143.73,4
131,136.70,143.60,4
132,136.61,143.49,4
131,136.49,143.36,4
131,136.38,143.24,4
129,136.24,143.10,4
130,136.11,142.96,4
129,135.97,142.83,4
131,135.87,142.71,4
130,135.75,142.58,4
130,135.64,142.45,4
129,135.50,142.32,4
129,135.37,142.19,4
129,135.25,142.05,4
129,135.12,141.92,4
129,135.00,141.79,4
129,134.88,141.67,4
129,134.76,141.54,4
128,134.63,141.40,4
128,134.49,141.27,4
127,134.34,141.13,4
128,134.22,141.00,4
127,134.07,140.86,4
127,133.93,140.72,4
127,133.79,140.58,4
126,133.64,140.44,4
126,133.48,140.29,4
126,133.33,140.15,4
127,133.21,140.02,4
127,133.08,139.89,4
126,132.94,139.75,4
126,132.80,139.61,4
126,132.67,139.47,4
125,132.51,139.33,4
126,132.38,139.20,4
125,132.24,139.05,4
125,132.09,138.91,4
125,131.95,138.77,4
125,131.81,138.64,4
125,131.67,138.50,4
126,131.56,138.37,4
124,131.41,138.23,4
125,131.28,138.10,4
124,131.14,137.96,4
123,130.97,137.81,4
124,130.83,137.67,4
123,130.68,137.52,4
124,130.54,137.39,4
124,130.41,137.25,4
124,130.28,137.12,4
123,130.14,136.98,4
124,130.02,136.85,4
122,129.86,136.70,4
123,129.72,136.57,4
121,129.54,136.41,4
123,129.41,136.28,4
122,129.26,136.13,4
123,129.14,136.00,4
122,129.00,135.86,4
123,128.88,135.73,4
123,128.76,135.61,4
123,128.64,135.48,4
121,128.49,135.33,4
122,128.36,135.20,4
123,128.25,135.08,4
122,128.13,134.95,4
121,127.99,134.81,4
123,127.89,134.69,4
123,127.79,134.57,4
122,127.67,134.45,4
121,127.54,134.31,4
121,127.41,134.18,4
121,127.28,134.05,4
121,127.16,133.92,4
121,127.03,133.79,4
121,126.91,133.66,4
121,126.79,133.53,4
121,126.68,133.41,4
120,126.54,133.28,4
121,126.43,133.15,4
121,126.32,133.03,4
121,126.22,132.91,4
122,126.13,132.80,4
121,126.03,132.68,4
122,125.95,132.58,4
123,125.89,132.48,4
124,125.85,132.40,4
122,125.78,132.29,4
123,125.72,132.20,4
126,125.73,132.14,4
125,125.71,132.07,4
127,125.74,132.02,4
126,125.74,131.96,4
125,125.73,131.89,4
125,125.71,131.82,4
126,125.72,131.76,4
126,125.72,131.70,4
126,125.73,131.64,4
127,125.76,131.60,4
125,125.74,131.53,4
125,125.73,131.47,4
123,125.67,131.38,4
125,125.66,131.32,4
125,125.64,131.25,4
126,125.65,131.20,4
126,125.66,131.15,4
126,125.67,131.10,4
125,125.65,131.04,4
124,125.62,130.97,4
125,125.61,130.91,4
125,125.59,130.85,4
126,125.60,130.80,4
126,125.61,130.75,4
126,125.62,130.70,4
125,125.61,130.65,4
126,125.61,130.60,4
125,125.60,130.54,4
125,125.59,130.49,4
127,125.62,130.45,4
125,125.61,130.40,4
125,125.59,130.35,4
127,125.62,130.31,4
125,125.61,130.26,4
127,125.64,130.23,4
127,125.66,130.19,4
127,125.69,130.16,4
127,125.72,130.13,4
126,125.72,130.09,4
127,125.75,130.06,4
127,125.77,130.03,4
128,125.82,130.01,4
127,125.84,129.98,4
127,125.86,129.95,4
127,125.89,129.92,4
127,125.91,129.89,4
127,125.93,129.86,4
127,125.95,129.83,4
127,125.97,129.80,4
127,125.99,129.78,4
127,126.01,129.75,4
132,126.13,129.77,4
127,126.15,129.74,4
127,126.17,129.72,4
127,126.19,129.69,4
127,126.20,129.66,4
125,126.18,129.61,4
127,126.19,129.59,4
126,126.19,129.55,4
126,126.19,129.52,4
125,126.16,129.47,4
127,126.18,129.45,4
127,126.20,129.42,4
127,126.21,129.40,4
126,126.21,129.36,4
125,126.18,129.32,4
126,126.18,129.29,4
124,126.14,129.23,4
125,126.11,129.19,4
125,126.09,129.15,4
125,126.07,129.11,4
126,126.07,129.08,4
125,126.05,129.04,4
125,126.03,129.00,4
126,126.03,128.97,4
125,126.00,128.93,4
125,125.98,128.89,4
125,125.96,128.85,4
125,125.95,128.81,4
126,125.95,128.78,4
126,125.95,128.75,4
127,125.97,128.74,4
127,125.99,128.72,4
127,126.01,128.70,4
125,125.99,128.67,4
125,125.97,128.63,4
129,126.03,128.63,4
127,126.05,128.62,4
127,126.07,128.60,4
127,126.09,128.58,4
126,126.09,128.56,4
128,126.12,128.55,4
125,126.10,128.52,4
126,126.10,128.49,4
127,126.12,128.48,4
127,126.13,128.46,4
127,126.15,128.45,4
126,126.15,128.42,4
127,126.17,128.41,4
126,126.16,128.38,4
125,126.14,128.35,4
125,126.12,128.32,4
126,126.11,128.29,4
126,126.11,128.27,4
125,126.09,128.24,4
125,126.07,128.21,4
125,126.05,128.17,4
125,126.03,128.14,4
125,126.01,128.11,4
125,125.99,128.08,4
125,125.97,128.05,4
125,125.95,128.02,4
125,125.93,127.99,4
125,125.91,127.96,4
123,125.85,127.91,4
125,125.83,127.88,4
124,125.80,127.84,4
124,125.76,127.80,4
124,125.73,127.76,4
125,125.71,127.74,4
124,125.68,127.70,4
124,125.64,127.66,4
124,125.61,127.63,4
123,125.56,127.58,4
125,125.55,127.55,4
123,125.50,127.51,4
124,125.47,127.47,4
123,125.42,127.43,4
124,125.39,127.39,4
123,125.34,127.35,4
124,125.31,127.32,4
123,125.27,127.27,4
125,125.26,127.25,4
124,125.24,127.22,4
123,125.19,127.18,4
123,125.15,127.13,4
126,125.17,127.12,4
124,125.14,127.09,4
123,125.10,127.05,4
124,125.08,127.02,4
123,125.04,126.98,4
123,125.00,126.94,4
123,124.96,126.90,4
123,124.92,126.86,4
125,124.92,126.84,4
127,124.96,126.85,4
126,124.98,126.84,4
127,125.02,126.84,4
128,125.08,126.85,4
128,125.14,126.86,4
129,125.22,126.88,4
127,125.25,126.88,4
127,125.29,126.89,4
129,125.36,126.91,4
128,125.41,126.92,4
128,125.47,126.93,4
129,125.54,126.95,4
128,125.59,126.96,4
129,125.65,126.98,4
130,125.74,127.01,4
132,125.87,127.06,4
129,125.93,127.08,4
131,126.03,127.12,4
129,126.09,127.14,4
129,126.15,127.16,4
129,126.20,127.17,4
129,126.26,127.19,4
129,126.32,127.21,4
129,126.37,127.23,4
130,126.44,127.26,4
131,126.53,127.29,4
129,126.58,127.31,4
129,126.63,127.33,4
131,126.72,127.36,4
130,126.78,127.39,4
131,126.87,127.43,4
131,126.95,127.46,4
133,127.07,127.52,4
131,127.15,127.55,4
133,127.27,127.61,4
133,127.38,127.66,4
132,127.47,127.70,4
131,127.54,127.74,4
133,127.65,127.79,4
131,127.72,127.82,4
132,127.81,127.86,4
131,127.87,127.90,4
132,127.95,127.94,4
133,128.05,127.99,4
132,128.13,128.03,4
133,128.23,128.08,4
133,128.33,128.13,4
133,128.42,128.17,4
133,128.51,128.22,4
133,128.60,128.27,4
133,128.69,128.32,4
133,128.77,128.36,4
133,128.86,128.41,4
135,128.98,128.48,4
133,129.06,128.52,4
139,129.26,128.63,4
137,129.42,128.71,4
137,129.57,128.79,4
136,129.70,128.87,4
138,129.86,128.96,4
139,130.04,129.06,4
137,130.18,129.14,4
140,130.38,129.25,4
138,130.53,129.33,4
139,130.70,129.43,4
139,130.87,129.53,4
140,131.05,129.63,4
139,131.21,129.72,4
141,131.41,129.84,4
139,131.56,129.93,4
142,131.77,130.05,4
138,131.89,130.13,4
142,132.09,130.25,4
140,132.25,130.34,4
141,132.43,130.45,4
140,132.58,130.55,4
141,132.75,130.65,4
141,132.91,130.75,4
140,133.05,130.85,4
140,133.19,130.94,4
139,133.31,131.02,4
141,133.46,131.12,4
140,133.59,131.21,4
141,133.74,131.31,4
141,133.89,131.40,4
141,134.03,131.50,4
142,134.19,131.60,4
141,134.32,131.70,4
141,134.46,131.79,4
141,134.59,131.88,4
143,134.76,131.99,4
145,134.96,132.12,4
141,135.08,132.21,4
143,135.24,132.32,4
143,135.40,132.43,4
143,135.55,132.53,4
143,135.70,132.64,4
142,135.82,132.73,4
143,135.97,132.83,4
142,136.09,132.93,4
145,136.27,133.05,4
148,136.50,133.20,4
147,136.71,133.33,4
145,136.88,133.45,4
151,137.16,133.63,4
153,137.48,133.82,4
153,137.79,134.01,4
151,138.05,134.18,4
152,138.33,134.36,4
153,138.62,134.55,4
153,138.91,134.73,4
151,139.15,134.89,4
150,139.37,135.04,4
151,139.60,135.20,4
152,139.85,135.37,4
153,140.11,135.55,4
153,140.37,135.72,4
154,140.64,135.91,4
153,140.89,136.08,4
153,141.13,136.25,4
152,141.35,136.40,4
153,141.58,136.57,4
151,141.77,136.71,4
156,142.06,136.91,4
157,142.35,137.11,4
158,142.67,137.32,4
156,142.93,137.50,4
156,143.20,137.69,4
156,143.45,137.87,4
157,143.72,138.06,4
157,143.99,138.25,4
160,144.31,138.47,4
164,144.70,138.72,4
161,145.03,138.95,4
160,145.33,139.16,4
163,145.68,139.40,4
169,146.15,139.69,4
167,146.56,139.97,4
165,146.93,140.22,4
167,147.33,140.48,4
167,147.73,140.75,4
165,148.07,140.99,4
167,148.45,141.25,4
168,148.84,141.52,4
168,149.23,141.78,4
169,149.62,142.06,4
167,149.97,142.31,4
167,150.31,142.55,4
167,150.64,142.80,4
168,150.99,143.05,4
172,151.41,143.34,4
171,151.80,143.62,4
173,152.23,143.91,4
172,152.62,144.19,4
173,153.03,144.48,4
177,153.51,144.80,4
175,153.94,145.11,4
175,154.36,145.40,4
175,154.77,145.70,4
175,155.18,145.99,4
175,155.57,146.28,4
179,156.04,146.61,4
183,156.58,146.97,4
181,157.07,147.31,4
180,157.53,147.64,4
182,158.02,147.98,4
183,158.52,148.34,4
184,159.03,148.69,4
183,159.51,149.03,4
185,160.02,149.39,4
182,160.46,149.72,4
190,161.05,150.12,4
187,161.57,150.49,4
187,162.07,150.86,4
192,162.67,151.27,4
193,163.28,151.69,4
195,163.91,152.12,4
191,164.46,152.51,4
191,164.99,152.89,4
189,165.47,153.25,4
193,166.02,153.65,4
192,166.54,154.03,4
192,167.05,154.41,4
191,167.53,154.78,4
190,167.98,155.13,4
192,168.46,155.50,4
193,168.95,155.88,4
195,169.47,156.27,4
193,169.94,156.63,4
192,170.38,156.99,4
192,170.81,157.34,4
193,171.26,157.70,4
192,171.67,158.04,4
192,172.08,158.38,4
192,172.48,158.71,4
191,172.85,159.04,4
194,173.27,159.39,4
192,173.64,159.71,4
192,174.01,160.04,4
199,174.51,160.43,4
199,175.00,160.81,4
195,175.40,161.15,4
201,175.91,161.55,4
205,176.49,161.99,4
206,177.08,162.43,4
205,177.64,162.85,4
203,178.15,163.25,4
201,178.61,163.63,4
209,179.21,164.08,4
205,179.73,164.49,4
206,180.26,164.91,4
212,180.89,165.38,4
214,181.55,165.87,4
210,182.12,166.31,4
211,182.70,166.75,4
217,183.39,167.26,4
219,184.10,167.77,4
221,184.84,168.31,4
221,185.56,168.83,4
221,186.27,169.35,4
217,186.88,169.83,4
220,187.54,170.33,4
223,188.25,170.86,4
225,188.99,171.40,4
226,189.73,171.95,4
226,190.45,172.49,4
225,191.15,173.01,4
224,191.80,173.52,4
223,192.43,174.02,4
223,193.04,174.51,4
225,193.68,175.01,4
226,194.32,175.52,4
225,194.94,176.02,4
229,195.62,176.55,4
232,196.35,177.10,4
231,197.04,177.64,4
227,197.64,178.13,4
235,198.39,178.70,4
237,199.16,179.29,4
239,199.95,179.88,4
237,200.70,180.45,4
237,201.42,181.02,4
235,202.09,181.56,4
239,202.83,182.13,4
243,203.63,182.74,4
246,204.48,183.37,4
247,205.33,184.01,4
242,206.07,184.59,4
242,206.78,185.16,4
245,207.55,185.76,4
247,208.34,186.38,4
252,209.21,187.03,4
249,210.01,187.65,4
250,210.81,188.27,4
255,211.69,188.94,4
257,212.60,189.62,4
257,213.48,190.30,4
255,214.32,190.94,4
253,215.09,191.56,4
255,215.89,192.20,4
261,216.79,192.89,4
264,217.73,193.60,4
267,218.72,194.33,4
262,219.58,195.01,4
269,220.57,195.75,4
271,221.58,196.50,4
273,222.61,197.27,4
273,223.62,198.02,4
269,224.53,198.73,4
272,225.47,199.47,4
271,226.39,200.18,4
273,227.32,200.91,4
277,228.31,201.67,4
281,229.37,202.46,4
281,230.40,203.25,4
277,231.33,203.99,4
278,232.26,204.73,4
280,233.22,205.48,4
281,234.17,206.23,4
281,235.11,206.98,4
283,236.07,207.74,4
281,236.97,208.47,4
279,237.81,209.18,4
288,238.81,209.97,4
287,239.77,210.74,4
285,240.68,211.48,4
287,241.61,212.24,4
289,242.55,213.00,4
291,243.52,213.78,4
291,244.47,214.56,4
289,245.36,215.30,4
289,246.24,216.04,4
293,247.17,216.81,4
294,248.11,217.58,4
291,248.97,218.31,4
290,249.79,219.03,4
291,250.61,219.75,4
294,251.48,220.49,4
291,252.27,221.20,4
291,253.04,221.90,4
293,253.84,222.61,4
291,254.59,223.29,4
293,255.35,223.99,4
292,256.09,224.67,4
299,256.94,225.41,4
301,257.83,226.17,4
296,258.59,226.87,4
297,259.36,227.57,4
297,260.11,228.26,4
297,260.85,228.95,4
296,261.55,229.62,4
298,262.28,230.30,4
297,262.97,230.97,4
299,263.70,231.65,4
295,264.32,232.28,4
297,264.97,232.93,4
297,265.62,233.57,4
296,266.22,234.20,4
297,266.84,234.82,4
299,267.48,235.47,4
297,268.07,236.08,4
297,268.65,236.69,4
295,269.18,237.27,4
297,269.73,237.87,4
296,270.26,238.45,4
297,270.79,239.04,4
295,271.28,239.60,4
297,271.79,240.17,4
297,272.30,240.74,4
299,272.83,241.32,4
301,273.39,241.92,4
299,273.91,242.49,4
300,274.43,243.06,4
302,274.98,243.65,4
301,275.50,244.23,4
301,276.01,244.79,4
300,276.49,245.35,4
301,276.98,245.90,4
300,277.44,246.44,4
299,277.87,246.97,4
298,278.27,247.48,4
299,278.69,248.00,4
298,279.08,248.50,4
