Teste de posicionamento 1.1(EMG ao centro do bíceps (Verde A, Vermelho B) + Ref no pulso) - 19/10/2024 - teste8 - 5 contrações
long frequencia = 1000;                 //frequência de aquisição do sinal, neste caso, 1000 sinais por segundo
float fator1 = 0.02, fator2 = 0.01;
float incerteza = 0.13;
float pico_basal = 130; // Mínimo para ser considerado um pico de contração
int filtro_horizontal=200000; //intervalo de 200ms valores não pode ter mais de 1 contração

Biceps_D,mediaMovel_1,mediaMovel_2,Contracao
127,2.54,1.27,0
127,5.03,2.53,0
129,7.51,3.79,0
127,9.90,5.02,0
127,12.24,6.24,0
127,14.54,7.45,0
128,16.80,8.66,0
128,19.03,9.85,0
128,21.21,11.03,0
126,23.30,12.18,0
127,25.38,13.33,0
128,27.43,14.48,0
129,29.46,15.62,0
128,31.43,16.75,0
127,33.34,17.85,0
127,35.22,18.94,0
128,37.07,20.03,0
127,38.87,21.10,0
128,40.65,22.17,0
127,42.38,23.22,0
127,44.07,24.25,0
130,45.79,25.31,0
127,47.42,26.33,0
128,49.03,27.35,0
128,50.61,28.35,0
127,52.13,29.34,0
127,53.63,30.32,0
128,55.12,31.29,0
130,56.62,32.28,0
130,58.08,33.26,0
127,59.46,34.19,0
129,60.85,35.14,0
127,62.18,36.06,0
128,63.49,36.98,0
128,64.78,37.89,0
127,66.03,38.78,0
127,67.25,39.66,0
127,68.44,40.54,0
127,69.61,41.40,0
127,70.76,42.26,0
127,71.89,43.11,0
127,72.99,43.94,0
127,74.07,44.77,0
127,75.13,45.60,0
127,76.16,46.41,0
127,77.18,47.22,0
126,78.16,48.00,0
127,79.13,48.79,0
128,80.11,49.59,0
127,81.05,50.36,0
127,81.97,51.13,0
127,82.87,51.89,0
129,83.79,52.66,0
127,84.66,53.40,0
127,85.50,54.14,0
127,86.33,54.87,0
125,87.11,55.57,0
125,87.86,56.26,0
127,88.65,56.97,0
127,89.41,57.67,0
127,90.17,58.36,0
126,90.88,59.04,0
127,91.60,59.72,0
126,92.29,60.38,0
127,92.99,61.05,0
127,93.67,61.71,0
125,94.29,62.34,0
127,94.95,62.99,0
127,95.59,63.63,0
128,96.24,64.27,0
127,96.85,64.90,0
125,97.42,65.50,0
127,98.01,66.11,0
127,98.59,66.72,0
125,99.12,67.30,0
127,99.67,67.90,0
127,100.22,68.49,0
127,100.75,69.08,0
126,101.26,69.65,0
126,101.75,70.21,0
129,102.30,70.80,0
126,102.77,71.35,0
127,103.26,71.91,0
126,103.71,72.45,0
127,104.18,72.99,0
126,104.62,73.52,0
127,105.06,74.06,0
127,105.50,74.59,0
127,105.93,75.11,0
126,106.33,75.62,0
126,106.73,76.12,0
127,107.13,76.63,0
126,107.51,77.13,0
126,107.88,77.62,0
126,108.24,78.10,0
126,108.60,78.58,0
126,108.94,79.05,0
126,109.29,79.52,0
127,109.64,80.00,0
127,109.99,80.47,0
126,110.31,80.92,0
126,110.62,81.37,0
126,110.93,81.82,0
126,111.23,82.26,0
126,111.53,82.70,0
126,111.82,83.13,0
127,112.12,83.57,0
126,112.40,83.99,0
127,112.69,84.42,0
126,112.95,84.84,0
126,113.22,85.25,0
126,113.47,85.66,0
128,113.76,86.08,0
127,114.03,86.49,0
126,114.27,86.89,0
126,114.50,87.28,0
127,114.75,87.68,0
127,115.00,88.07,0
127,115.24,88.46,0
127,115.47,88.84,0
127,115.70,89.22,0
126,115.91,89.59,0
126,116.11,89.96,0
126,116.31,90.32,0
126,116.50,90.67,0
126,116.69,91.03,0
125,116.86,91.37,0
126,117.04,91.71,0
126,117.22,92.06,0
126,117.40,92.40,0
126,117.57,92.73,0
127,117.76,93.07,0
126,117.92,93.40,0
126,118.08,93.73,0
126,118.24,94.05,0
126,118.40,94.37,0
126,118.55,94.69,0
126,118.70,95.00,0
126,118.84,95.31,0
126,118.99,95.62,0
128,119.17,95.94,0
126,119.30,96.24,0
125,119.42,96.53,0
126,119.55,96.82,0
126,119.68,97.12,0
126,119.80,97.41,0
127,119.95,97.70,0
126,120.07,97.98,0
126,120.19,98.26,0
126,120.30,98.54,0
126,120.42,98.82,0
126,120.53,99.09,0
126,120.64,99.36,0
126,120.75,99.62,0
126,120.85,99.89,0
126,120.95,100.15,0
127,121.08,100.42,0
128,121.21,100.69,0
126,121.31,100.95,0
126,121.40,101.20,0
125,121.48,101.43,0
126,121.57,101.68,0
127,121.67,101.93,0
127,121.78,102.18,0
126,121.87,102.42,0
126,121.95,102.66,0
127,122.05,102.90,0
127,122.15,103.14,0
127,122.24,103.38,0
126,122.32,103.61,0
126,122.39,103.83,0
125,122.45,104.04,0
127,122.54,104.27,0
126,122.61,104.49,0
127,122.69,104.71,0
127,122.78,104.94,0
127,122.86,105.16,0
126,122.93,105.37,0
126,122.99,105.57,0
126,123.05,105.78,0
127,123.13,105.99,0
127,123.21,106.20,0
126,123.26,106.40,0
125,123.30,106.58,0
126,123.35,106.78,0
127,123.42,106.98,0
126,123.47,107.17,0
126,123.53,107.36,0
127,123.59,107.56,0
127,123.66,107.75,0
127,123.73,107.94,0
126,123.77,108.12,0
125,123.80,108.29,0
126,123.84,108.47,0
127,123.91,108.65,0
125,123.93,108.82,0
127,123.99,109.00,0
126,124.03,109.17,0
125,124.05,109.33,0
126,124.09,109.49,0
126,124.13,109.66,0
125,124.14,109.81,0
126,124.18,109.97,0
125,124.20,110.12,0
127,124.25,110.29,0
126,124.29,110.45,0
127,124.34,110.62,0
125,124.36,110.76,0
126,124.39,110.91,0
125,124.40,111.05,0
126,124.43,111.20,0
126,124.46,111.35,0
126,124.50,111.50,0
126,124.53,111.64,0
126,124.55,111.79,0
125,124.56,111.92,0
125,124.57,112.05,0
127,124.62,112.20,0
126,124.65,112.34,0
125,124.66,112.46,0
125,124.66,112.59,0
126,124.69,112.72,0
125,124.70,112.85,0
125,124.70,112.97,0
125,124.71,113.09,0
125,124.71,113.21,0
125,124.72,113.32,0
126,124.74,113.45,0
127,124.79,113.59,0
125,124.79,113.70,0
125,124.80,113.81,0
126,124.82,113.94,0
125,124.83,114.05,0
126,124.85,114.17,0
127,124.89,114.29,0
125,124.89,114.40,0
126,124.92,114.52,0
126,124.94,114.63,0
127,124.98,114.76,0
125,124.98,114.86,0
125,124.98,114.96,0
127,125.02,115.08,0
126,125.04,115.19,0
127,125.08,115.31,0
126,125.10,115.41,0
126,125.12,115.52,0
127,125.15,115.63,0
125,125.15,115.73,0
125,125.15,115.82,0
125,125.14,115.91,0
125,125.14,116.00,0
127,125.18,116.11,0
126,125.20,116.21,0
127,125.23,116.32,0
126,125.25,116.42,0
127,125.28,116.52,0
127,125.32,116.63,0
127,125.35,116.73,0
125,125.34,116.81,0
126,125.36,116.91,0
127,125.39,117.01,0
126,125.40,117.10,0
125,125.39,117.18,0
126,125.41,117.26,0
125,125.40,117.34,0
126,125.41,117.43,0
125,125.40,117.50,0
127,125.43,117.60,0
127,125.46,117.69,0
127,125.50,117.79,0
127,125.53,117.88,0
126,125.53,117.96,0
127,125.56,118.05,0
127,125.59,118.14,0
127,125.62,118.23,0
127,125.65,118.32,0
127,125.68,118.40,0
127,125.70,118.49,0
127,125.73,118.57,0
127,125.75,118.66,0
127,125.78,118.74,0
127,125.80,118.82,0
127,125.83,118.91,0
128,125.87,119.00,0
128,125.91,119.09,0
127,125.93,119.17,0
127,125.96,119.24,0
127,125.98,119.32,0
127,126.00,119.40,0
128,126.04,119.48,0
125,126.02,119.54,0
127,126.04,119.61,0
127,126.06,119.69,0
128,126.09,119.77,0
127,126.11,119.84,0
126,126.11,119.90,0
128,126.15,119.99,0
128,126.19,120.07,0
127,126.20,120.14,0
129,126.26,120.22,0
128,126.29,120.30,0
130,126.37,120.40,0
131,126.46,120.50,0
131,126.55,120.61,0
131,126.64,120.71,0
129,126.69,120.80,0
130,126.75,120.89,0
129,126.80,120.97,0
131,126.88,121.07,0
130,126.94,121.16,0
130,127.00,121.25,0
129,127.04,121.33,0
129,127.08,121.40,0
130,127.14,121.49,0
129,127.18,121.56,0
130,127.24,121.65,0
130,127.29,121.73,0
129,127.33,121.80,0
129,127.36,121.88,0
129,127.39,121.95,0
130,127.44,122.03,0
129,127.47,122.10,0
129,127.51,122.17,0
129,127.54,122.23,0
129,127.56,122.30,0
130,127.61,122.38,0
130,127.66,122.46,0
130,127.71,122.53,0
133,127.81,122.64,0
130,127.86,122.71,0
132,127.94,122.80,0
131,128.00,122.88,0
131,128.06,122.97,0
131,128.12,123.05,0
132,128.20,123.14,0
131,128.25,123.21,0
133,128.35,123.31,0
131,128.40,123.39,0
131,128.45,123.46,0
132,128.52,123.55,0
132,128.59,123.63,0
131,128.64,123.71,0
132,128.71,123.79,0
132,128.78,123.87,0
129,128.78,123.92,0
133,128.86,124.02,0
132,128.93,124.09,0
134,129.03,124.19,0
134,129.13,124.29,0
133,129.21,124.38,0
133,129.28,124.47,0
133,129.36,124.55,0
131,129.39,124.62,0
134,129.48,124.71,0
133,129.55,124.79,0
133,129.62,124.87,0
133,129.69,124.96,0
134,129.77,125.05,0
132,129.82,125.12,0
133,129.88,125.19,0
133,129.94,125.27,0
133,130.01,125.35,0
134,130.09,125.44,0
135,130.18,125.53,0
135,130.28,125.63,0
136,130.39,125.73,0
135,130.49,125.82,0
135,130.58,125.91,0
136,130.69,126.02,0
134,130.75,126.10,0
135,130.84,126.18,0
135,130.92,126.27,0
136,131.02,126.37,0
136,131.12,126.47,0
136,131.22,126.56,0
135,131.29,126.65,0
135,131.37,126.73,0
135,131.44,126.81,0
135,131.51,126.89,0
136,131.60,126.98,0
135,131.67,127.07,0
136,131.76,127.15,0
135,131.82,127.23,0
139,131.96,127.35,0
135,132.03,127.43,0
135,132.09,127.50,0
135,132.14,127.58,0
135,132.20,127.65,0
135,132.26,127.73,0
135,132.31,127.80,0
134,132.35,127.86,0
134,132.38,127.92,0
133,132.39,127.97,0
133,132.40,128.02,0
135,132.45,128.09,0
136,132.53,128.17,0
135,132.58,128.24,0
135,132.62,128.31,0
136,132.69,128.38,0
136,132.76,128.46,0
137,132.84,128.55,0
137,132.93,128.63,0
137,133.01,128.71,0
137,133.09,128.80,0
137,133.17,128.88,0
136,133.22,128.95,0
136,133.28,129.02,0
136,133.33,129.09,0
137,133.41,129.17,0
136,133.46,129.24,0
136,133.51,129.31,0
136,133.56,129.37,0
136,133.61,129.44,0
136,133.65,129.50,0
136,133.70,129.57,0
137,133.77,129.64,0
136,133.81,129.71,0
137,133.88,129.78,0
137,133.94,129.85,0
136,133.98,129.91,0
137,134.04,129.98,0
137,134.10,130.05,0
137,134.16,130.12,0
137,134.21,130.19,0
137,134.27,130.26,0
137,134.32,130.33,0
137,134.38,130.40,0
138,134.45,130.47,0
138,134.52,130.55,0
137,134.57,130.61,0
137,134.62,130.67,0
137,134.67,130.74,0
137,134.71,130.80,0
137,134.76,130.86,0
139,134.84,130.94,0
137,134.89,131.00,0
138,134.95,131.07,0
139,135.03,131.15,0
140,135.13,131.24,0
139,135.21,131.32,0
139,135.28,131.40,0
140,135.38,131.48,0
141,135.49,131.58,0
140,135.58,131.66,0
141,135.69,131.76,0
141,135.79,131.85,0
141,135.90,131.94,0
143,136.04,132.05,0
143,136.18,132.16,0
145,136.36,132.29,0
145,136.53,132.42,0
145,136.70,132.54,0
146,136.88,132.68,0
147,137.09,132.82,0
146,137.27,132.95,0
148,137.48,133.10,0
148,137.69,133.25,0
147,137.88,133.39,0
148,138.08,133.53,0
147,138.26,133.67,0
149,138.47,133.82,0
147,138.64,133.95,0
148,138.83,134.09,0
147,138.99,134.22,0
148,139.17,134.36,0
147,139.33,134.49,0
148,139.50,134.62,0
148,139.67,134.76,0
149,139.86,134.90,0
147,140.00,135.02,0
149,140.18,135.16,0
147,140.32,135.28,0
148,140.47,135.41,0
148,140.62,135.53,0
148,140.77,135.66,0
149,140.94,135.79,0
148,141.08,135.91,0
150,141.26,136.05,0
148,141.39,136.17,0
149,141.54,136.30,0
149,141.69,136.43,0
149,141.84,136.55,0
150,142.00,136.69,0
152,142.20,136.84,0
153,142.42,137.00,0
153,142.63,137.16,0
153,142.84,137.32,0
155,143.08,137.50,0
155,143.32,137.67,0
157,143.59,137.87,0
156,143.84,138.05,0
156,144.08,138.23,0
157,144.34,138.41,0
154,144.53,138.57,0
156,144.76,138.74,0
157,145.01,138.93,0
157,145.25,139.11,0
157,145.48,139.29,0
157,145.71,139.46,0
157,145.94,139.64,0
157,146.16,139.81,0
157,146.38,139.98,0
157,146.59,140.15,0
157,146.80,140.32,0
157,147.00,140.49,0
157,147.20,140.65,0
157,147.40,140.82,0
158,147.61,140.99,0
158,147.82,141.16,0
157,148.00,141.32,0
157,148.18,141.48,0
157,148.36,141.63,0
157,148.53,141.78,0
159,148.74,141.96,0
159,148.95,142.13,0
157,149.11,142.28,0
158,149.28,142.43,0
158,149.46,142.59,0
158,149.63,142.74,0
161,149.86,142.93,0
159,150.04,143.09,0
160,150.24,143.26,0
159,150.41,143.41,0
159,150.59,143.57,0
159,150.75,143.72,0
161,150.96,143.90,0
159,151.12,144.05,0
160,151.30,144.21,0
161,151.49,144.37,0
160,151.66,144.53,0
161,151.85,144.70,0
161,152.03,144.86,0
159,152.17,145.00,0
162,152.37,145.17,0
163,152.58,145.35,0
163,152.79,145.52,0
163,152.99,145.70,0
163,153.19,145.87,0
163,153.39,146.04,0
163,153.58,146.21,0
163,153.77,146.38,0
162,153.93,146.54,0
162,154.10,146.69,0
163,154.27,146.85,0
163,154.45,147.02,0
164,154.64,147.19,0
164,154.83,147.35,0
165,155.03,147.53,0
165,155.23,147.71,0
166,155.44,147.89,0
166,155.66,148.07,0
169,155.92,148.28,0
167,156.14,148.47,0
168,156.38,148.66,0
167,156.59,148.84,0
167,156.80,149.03,0
168,157.03,149.22,0
167,157.23,149.39,0
168,157.44,149.58,0
167,157.63,149.75,0
169,157.86,149.95,0
168,158.06,150.13,0
168,158.26,150.31,0
169,158.48,150.49,0
168,158.67,150.67,0
168,158.85,150.84,0
169,159.06,151.02,0
169,159.25,151.20,0
169,159.45,151.38,0
169,159.64,151.56,0
169,159.83,151.73,0
172,160.07,151.93,0
172,160.31,152.13,0
172,160.54,152.33,0
171,160.75,152.52,0
172,160.98,152.71,0
173,161.22,152.92,0
173,161.45,153.12,0
173,161.68,153.32,0
174,161.93,153.52,0
173,162.15,153.72,0
173,162.37,153.91,0
174,162.60,154.11,0
173,162.81,154.30,0
173,163.01,154.49,0
173,163.21,154.67,0
173,163.41,154.86,0
171,163.56,155.02,0
175,163.79,155.22,0
174,163.99,155.41,0
175,164.21,155.60,0
175,164.43,155.80,0
175,164.64,155.99,0
175,164.85,156.18,0
175,165.05,156.37,0
175,165.25,156.55,0
175,165.45,156.74,0
175,165.64,156.92,0
175,165.82,157.10,0
176,166.03,157.29,0
177,166.25,157.49,0
177,166.46,157.68,0
176,166.65,157.86,0
176,166.84,158.05,0
175,167.00,158.22,0
177,167.20,158.40,0
180,167.46,158.62,0
180,167.71,158.83,0
179,167.94,159.03,0
180,168.18,159.24,0
180,168.41,159.45,0
182,168.68,159.68,0
182,168.95,159.90,0
181,169.19,160.11,0
181,169.43,160.32,0
181,169.66,160.53,0
181,169.89,160.73,0
181,170.11,160.93,0
181,170.33,161.14,0
181,170.54,161.33,0
181,170.75,161.53,0
184,171.01,161.76,0
184,171.27,161.98,0
184,171.53,162.20,0
184,171.78,162.42,0
185,172.04,162.64,0
187,172.34,162.89,0
187,172.63,163.13,0
188,172.94,163.38,0
187,173.22,163.61,0
189,173.54,163.87,0
191,173.89,164.14,0
189,174.19,164.39,0
190,174.51,164.64,0
189,174.80,164.89,0
191,175.12,165.15,0
193,175.48,165.43,0
192,175.81,165.69,0
193,176.15,165.96,0
194,176.51,166.24,0
195,176.88,166.53,0
193,177.20,166.80,0
193,177.52,167.06,0
196,177.89,167.35,0
196,178.25,167.63,0
197,178.62,167.93,0
196,178.97,168.21,0
197,179.33,168.50,0
197,179.69,168.78,0
200,180.09,169.09,0
201,180.51,169.41,0
201,180.92,169.73,0
203,181.36,170.06,0
206,181.85,170.42,0
205,182.32,170.77,0
209,182.85,171.15,0
210,183.39,171.54,0
213,183.99,171.95,0
213,184.57,172.36,0
213,185.14,172.77,0
216,185.75,173.20,0
218,186.40,173.65,0
217,187.01,174.08,0
217,187.61,174.51,0
220,188.26,174.97,0
219,188.87,175.41,0
220,189.49,175.85,0
220,190.10,176.29,0
219,190.68,176.72,0
219,191.25,177.14,0
221,191.84,177.58,0
220,192.41,178.01,0
221,192.98,178.44,0
221,193.54,178.86,0
223,194.13,179.30,0
225,194.75,179.76,0
225,195.35,180.21,0
225,195.94,180.66,0
227,196.57,181.12,0
230,197.23,181.61,0
232,197.93,182.12,0
233,198.63,182.63,0
235,199.36,183.15,0
237,200.11,183.69,0
240,200.91,184.25,0
243,201.75,184.84,0
243,202.58,185.42,0
244,203.40,186.01,0
243,204.20,186.58,0
244,204.99,187.15,0
247,205.83,187.75,0
248,206.68,188.35,0
247,207.48,188.94,0
247,208.27,189.52,0
249,209.09,190.11,0
249,209.89,190.70,0
249,210.67,191.29,0
248,211.41,191.85,0
252,212.23,192.45,0
253,213.04,193.06,0
251,213.80,193.64,0
252,214.56,194.22,0
255,215.37,194.83,0
253,216.13,195.41,0
254,216.88,196.00,0
253,217.61,196.57,0
254,218.33,197.14,0
255,219.07,197.72,0
254,219.77,198.28,0
255,220.47,198.85,0
257,221.20,199.43,0
259,221.96,200.03,0
259,222.70,200.62,0
261,223.46,201.22,0
261,224.21,201.82,0
264,225.01,202.44,0
266,225.83,203.08,0
267,226.65,203.72,0
267,227.46,204.35,0
270,228.31,205.01,0
269,229.12,205.65,0
269,229.92,206.28,0
269,230.70,206.91,0
271,231.51,207.55,0
269,232.26,208.16,0
269,232.99,208.77,0
269,233.71,209.37,0
269,234.42,209.97,0
269,235.11,210.56,0
272,235.85,211.17,0
271,236.55,211.77,0
273,237.28,212.38,0
276,238.06,213.02,0
277,238.83,213.66,0
278,239.62,214.30,0
277,240.37,214.93,0
278,241.12,215.56,0
280,241.90,216.21,0
281,242.68,216.85,0
280,243.42,217.48,0
279,244.14,218.10,0
280,244.85,218.72,0
280,245.56,219.33,0
283,246.31,219.97,0
283,247.04,220.60,0
283,247.76,221.22,0
283,248.46,221.84,0
285,249.19,222.47,0
286,249.93,223.11,0
285,250.63,223.73,0
283,251.28,224.32,0
285,251.95,224.93,0
284,252.59,225.52,0
284,253.22,226.10,0
284,253.84,226.68,0
283,254.42,227.24,0
283,254.99,227.80,0
283,255.55,228.35,0
283,256.10,228.90,0
283,256.64,229.44,0
284,257.19,229.99,0
283,257.70,230.52,0
285,258.25,231.06,0
285,258.78,231.60,0
286,259.33,232.14,0
285,259.84,232.67,0
285,260.35,233.20,0
286,260.86,233.72,0
285,261.34,234.24,0
286,261.83,234.75,0
286,262.32,235.27,0
285,262.77,235.76,0
287,263.26,236.28,0
286,263.71,236.77,0
285,264.14,237.26,0
290,264.65,237.78,0
285,265.06,238.26,0
285,265.46,238.72,0
284,265.83,239.18,0
284,266.19,239.62,0
283,266.53,240.06,0
283,266.86,240.49,0
283,267.18,240.91,0
284,267.52,241.34,0
282,267.81,241.75,0
283,268.11,242.16,0
282,268.39,242.56,0
281,268.64,242.95,0
281,268.89,243.33,0
281,269.13,243.70,0
280,269.35,244.07,0
278,269.52,244.41,0
280,269.73,244.76,0
279,269.92,245.10,0
279,270.10,245.44,0
279,270.28,245.78,0
278,270.43,246.10,0
277,270.56,246.41,0
277,270.69,246.72,0
277,270.82,247.02,0
277,270.94,247.32,0
277,271.06,247.61,0
277,271.18,247.91,0
277,271.30,248.20,0
275,271.37,248.47,0
276,271.46,248.74,0
277,271.57,249.03,0
276,271.66,249.30,0
275,271.73,249.55,0
275,271.80,249.81,0
275,271.86,250.06,0
275,271.92,250.31,0
274,271.96,250.54,0
273,271.98,250.77,0
273,272.00,250.99,0
273,272.02,251.21,0
272,272.02,251.42,0
274,272.06,251.65,0
272,272.06,251.85,0
271,272.04,252.04,0
271,272.02,252.23,0
270,271.98,252.41,0
270,271.94,252.58,0
269,271.88,252.75,0
269,271.82,252.91,0
269,271.77,253.07,0
269,271.71,253.23,0
269,271.66,253.39,0
269,271.60,253.54,0
268,271.53,253.69,0
268,271.46,253.83,0
267,271.37,253.96,0
269,271.33,254.11,0
267,271.24,254.24,0
268,271.17,254.38,0
267,271.09,254.51,0
267,271.01,254.63,0
266,270.91,254.75,0
267,270.83,254.87,0
265,270.71,254.97,0
265,270.60,255.07,0
265,270.49,255.17,0
265,270.38,255.27,0
265,270.27,255.36,0
263,270.12,255.44,0
263,269.98,255.52,0
263,269.84,255.59,0
264,269.73,255.68,0
262,269.57,255.74,0
263,269.44,255.81,0
261,269.27,255.86,0
261,269.11,255.91,0
261,268.94,255.97,0
260,268.76,256.01,0
260,268.59,256.05,0
260,268.42,256.09,0
260,268.25,256.12,0
260,268.08,256.16,0
260,267.92,256.20,0
259,267.74,256.23,0
261,267.61,256.28,0
260,267.46,256.31,0
260,267.31,256.35,0
259,267.14,256.38,0
260,267.00,256.41,0
259,266.84,256.44,0
261,266.72,256.49,0
259,266.57,256.51,0
258,266.40,256.53,0
258,266.23,256.54,0
259,266.08,256.56,0
257,265.90,256.57,0
257,265.72,256.57,0
256,265.53,256.57,0
257,265.36,256.57,0
257,265.19,256.58,0
256,265.01,256.57,0
255,264.81,256.55,0
255,264.61,256.54,0
255,264.42,256.52,0
254,264.21,256.50,0
255,264.03,256.48,0
253,263.81,256.45,0
254,263.61,256.42,0
253,263.40,256.39,0
252,263.17,256.35,0
252,262.95,256.30,0
252,262.73,256.26,0
252,262.51,256.22,0
251,262.28,256.17,0
251,262.06,256.11,0
251,261.84,256.06,0
250,261.60,256.00,0
250,261.37,255.94,0
250,261.14,255.88,0
249,260.90,255.81,0
249,260.66,255.75,0
249,260.43,255.68,0
249,260.20,255.61,0
249,259.97,255.55,0
248,259.73,255.47,0
248,259.50,255.39,0
249,259.29,255.33,0
247,259.04,255.25,0
247,258.80,255.17,0
247,258.57,255.08,0
247,258.34,255.00,0
247,258.11,254.92,0
247,257.89,254.84,0
246,257.65,254.76,0
245,257.40,254.66,0
246,257.17,254.57,0
245,256.92,254.48,0
245,256.69,254.38,0
245,256.45,254.29,0
245,256.22,254.19,0
243,255.96,254.08,0
244,255.72,253.98,0
244,255.49,253.88,0
245,255.28,253.79,0
243,255.03,253.68,0
243,254.79,253.58,0
243,254.55,253.47,0
242,254.30,253.36,0
245,254.12,253.27,0
241,253.85,253.15,0
241,253.60,253.03,0
241,253.35,252.91,0
241,253.10,252.79,0
240,252.84,252.66,0
241,252.60,252.55,1
240,252.35,252.42,1
239,252.08,252.29,1
239,251.82,252.15,1
239,251.56,252.02,1
239,251.31,251.89,1
239,251.07,251.76,1
237,250.78,251.61,1
238,250.53,251.48,1
238,250.28,251.34,1
238,250.03,251.21,1
237,249.77,251.07,1
237,249.52,250.93,1
237,249.27,250.79,1
235,248.98,250.63,1
237,248.74,250.49,1
235,248.47,250.34,1
236,248.22,250.20,1
236,247.97,250.05,1
235,247.71,249.90,1
235,247.46,249.75,1
237,247.25,249.63,1
235,247.00,249.48,1
234,246.74,249.33,1
236,246.53,249.19,1
235,246.30,249.05,1
235,246.07,248.91,1
235,245.85,248.77,1
234,245.61,248.62,1
234,245.38,248.48,1
235,245.17,248.34,1
233,244.93,248.19,1
234,244.71,248.05,1
233,244.48,247.90,1
233,244.25,247.75,1
232,244.00,247.59,1
233,243.78,247.44,1
231,243.53,247.28,1
232,243.30,247.13,1
231,243.05,246.97,1
231,242.81,246.81,1
229,242.53,246.63,1
230,242.28,246.46,1
230,242.04,246.30,1
230,241.80,246.13,1
229,241.54,245.96,1
229,241.29,245.79,1
230,241.06,245.64,1
229,240.82,245.47,1
229,240.59,245.30,1
228,240.34,245.13,1
228,240.09,244.96,1
227,239.83,244.78,1
227,239.57,244.60,1
227,239.32,244.43,1
228,239.09,244.26,1
227,238.85,244.09,1
227,238.61,243.92,1
228,238.40,243.76,1
227,238.17,243.59,1
226,237.93,243.42,1
226,237.69,243.24,1
225,237.44,243.06,1
225,237.19,242.88,1
225,236.94,242.70,1
225,236.71,242.52,1
225,236.47,242.35,1
224,236.22,242.16,1
225,236.00,241.99,1
223,235.74,241.80,1
224,235.50,241.62,1
224,235.27,241.45,1
224,235.05,241.27,1
224,234.83,241.10,1
224,234.61,240.93,1
223,234.38,240.75,1
223,234.15,240.57,1
223,233.93,240.40,1
222,233.69,240.21,1
221,233.44,240.02,1
221,233.19,239.83,1
222,232.96,239.65,1
221,232.72,239.47,1
221,232.49,239.28,1
220,232.24,239.09,1
221,232.01,238.91,1
220,231.77,238.72,1
221,231.56,238.54,1
220,231.33,238.36,1
219,231.08,238.16,1
220,230.86,237.98,1
220,230.64,237.80,1
218,230.39,237.60,1
218,230.14,237.41,1
218,229.90,237.21,1
218,229.66,237.02,1
218,229.43,236.83,1
216,229.16,236.62,1
217,228.92,236.43,1
216,228.66,236.22,1
216,228.40,236.02,1
216,228.16,235.82,1
216,227.91,235.62,1
215,227.65,235.42,1
213,227.36,235.19,1
216,227.13,235.00,1
216,226.91,234.81,1
215,226.67,234.61,1
216,226.46,234.43,1
215,226.23,234.23,1
215,226.01,234.04,1
215,225.79,233.85,1
215,225.57,233.66,1
215,225.36,233.47,1
214,225.13,233.28,1
214,224.91,233.09,1
213,224.67,232.88,1
214,224.46,232.70,1
213,224.23,232.50,1
214,224.02,232.31,1
212,223.78,232.11,1
211,223.53,231.90,1
213,223.32,231.71,1
213,223.11,231.52,1
211,222.87,231.32,1
211,222.63,231.12,1
211,222.40,230.91,1
211,222.17,230.71,1
211,221.95,230.52,1
210,221.71,230.31,1
210,221.47,230.11,1
210,221.24,229.91,1
211,221.04,229.72,1
209,220.80,229.51,1
209,220.56,229.31,1
209,220.33,229.10,1
209,220.11,228.90,1
209,219.88,228.70,1
208,219.65,228.50,1
207,219.39,228.28,1
207,219.14,228.07,1
208,218.92,227.87,1
208,218.70,227.67,1
211,218.55,227.50,1
207,218.32,227.30,1
207,218.09,227.09,1
207,217.87,226.89,1
207,217.65,226.70,1
207,217.44,226.50,1
207,217.23,226.30,1
207,217.03,226.11,1
209,216.87,225.94,1
207,216.67,225.75,1
207,216.48,225.56,1
207,216.29,225.38,1
207,216.10,225.19,1
206,215.90,225.00,1
206,215.70,224.81,1
205,215.49,224.61,1
206,215.30,224.43,1
205,215.09,224.23,1
205,214.89,224.04,1
205,214.69,223.85,1
205,214.50,223.66,1
205,214.31,223.47,1
205,214.12,223.29,1
205,213.94,223.11,1
203,213.72,222.91,1
205,213.55,222.73,1
205,213.37,222.55,1
204,213.19,222.36,1
203,212.98,222.17,1
205,212.82,222.00,1
203,212.63,221.81,1
204,212.45,221.63,1
204,212.29,221.45,1
203,212.10,221.27,1
204,211.94,221.10,1
203,211.76,220.92,1
203,211.58,220.74,1
202,211.39,220.55,1
203,211.22,220.37,1
206,211.12,220.23,1
201,210.92,220.04,1
201,210.72,219.85,1
201,210.52,219.66,1
201,210.33,219.47,1
201,210.15,219.29,1
201,209.96,219.11,1
201,209.79,218.92,1
201,209.61,218.74,1
201,209.44,218.57,1
201,209.27,218.39,1
201,209.10,218.22,1
202,208.96,218.06,1
200,208.78,217.87,1
201,208.63,217.71,1
201,208.47,217.54,1
201,208.32,217.37,1
200,208.16,217.20,1
201,208.01,217.04,1
200,207.85,216.87,1
201,207.72,216.71,1
200,207.56,216.54,1
201,207.43,216.39,1
199,207.26,216.21,1
200,207.12,216.05,1
199,206.96,215.88,1
199,206.80,215.71,1
199,206.64,215.54,1
199,206.49,215.38,1
198,206.32,215.20,1
198,206.15,215.03,1
197,205.97,214.85,1
197,205.79,214.67,1
197,205.61,214.50,1
198,205.46,214.33,1
198,205.31,214.17,1
198,205.17,214.01,1
199,205.04,213.86,1
197,204.88,213.69,1
197,204.72,213.52,1
197,204.57,213.36,1
197,204.42,213.19,1
196,204.25,213.02,1
195,204.06,212.84,1
195,203.88,212.66,1
195,203.71,212.49,1
195,203.53,212.31,1
195,203.36,212.14,1
195,203.19,211.97,1
193,202.99,211.78,1
193,202.79,211.59,1
193,202.59,211.40,1
193,202.40,211.22,1
193,202.21,211.04,1
193,202.03,210.86,1
193,201.85,210.68,1
193,201.67,210.50,1
192,201.48,210.32,1
191,201.27,210.12,1
192,201.08,209.94,1
191,200.88,209.75,1
192,200.70,209.57,1
191,200.51,209.39,1
191,200.32,209.21,1
191,200.13,209.02,1
192,199.97,208.85,1
191,199.79,208.67,1
191,199.62,208.50,1
191,199.44,208.32,1
190,199.25,208.14,1
190,199.07,207.96,1
188,198.85,207.76,1
189,198.65,207.57,1
190,198.48,207.40,1
189,198.29,207.21,1
189,198.10,207.03,1
189,197.92,206.85,1
190,197.76,206.68,1
189,197.59,206.50,1
189,197.42,206.33,1
189,197.25,206.16,1
189,197.08,205.98,1
189,196.92,205.81,1
189,196.76,205.65,1
189,196.61,205.48,1
189,196.45,205.31,1
189,196.31,205.15,1
187,196.12,204.97,1
189,195.98,204.81,1
188,195.82,204.64,1
188,195.66,204.48,1
189,195.53,204.32,1
187,195.36,204.15,1
188,195.21,203.99,1
187,195.05,203.82,1
187,194.89,203.65,1
187,194.73,203.48,1
187,194.57,203.32,1
186,194.40,203.14,1
187,194.25,202.98,1
187,194.11,202.82,1
186,193.95,202.65,1
186,193.79,202.49,1
187,193.65,202.33,1
185,193.48,202.16,1
187,193.35,202.01,1
185,193.18,201.84,1
185,193.02,201.67,1
185,192.86,201.50,1
186,192.72,201.35,1
189,192.65,201.22,1
185,192.49,201.06,1
185,192.34,200.90,1
185,192.20,200.74,1
185,192.05,200.58,1
184,191.89,200.42,1
185,191.75,200.26,1
184,191.60,200.10,1
185,191.47,199.95,1
183,191.30,199.78,1
185,191.17,199.63,1
184,191.03,199.48,1
185,190.91,199.33,1
185,190.79,199.19,1
184,190.65,199.04,1
184,190.52,198.89,1
184,190.39,198.74,1
184,190.26,198.59,1
184,190.14,198.45,1
185,190.03,198.31,1
184,189.91,198.17,1
184,189.80,198.03,1
184,189.68,197.89,1
184,189.57,197.75,1
183,189.43,197.60,1
184,189.33,197.46,1
183,189.20,197.32,1
185,189.12,197.20,1
183,188.99,197.05,1
182,188.85,196.90,1
182,188.72,196.75,1
182,188.58,196.61,1
181,188.43,196.45,1
181,188.28,196.30,1
181,188.14,196.14,1
182,188.01,196.00,1
183,187.91,195.87,1
182,187.79,195.73,1
182,187.68,195.60,1
182,187.57,195.46,1
183,187.47,195.33,1
183,187.38,195.21,1
183,187.30,195.09,1
182,187.19,194.96,1
183,187.11,194.84,1
183,187.03,194.72,1
183,186.94,194.60,1
181,186.83,194.47,1
182,186.73,194.34,1
181,186.61,194.21,1
181,186.50,194.08,1
181,186.39,193.95,1
181,186.28,193.82,1
181,186.18,193.69,1
180,186.06,193.55,1
180,185.93,193.42,1
179,185.80,193.27,1
180,185.68,193.14,1
179,185.55,193.00,1
179,185.41,192.86,1
179,185.29,192.72,1
179,185.16,192.58,1
178,185.02,192.44,1
179,184.90,192.30,1
178,184.76,192.16,1
178,184.62,192.02,1
177,184.47,191.87,1
177,184.32,191.72,1
177,184.18,191.57,1
177,184.03,191.43,1
176,183.87,191.27,1
176,183.71,191.12,1
176,183.56,190.97,1
176,183.41,190.82,1
175,183.24,190.66,1
175,183.08,190.50,1
175,182.91,190.35,1
175,182.76,190.19,1
175,182.60,190.04,1
174,182.43,189.88,1
176,182.30,189.74,1
174,182.13,189.59,1
175,181.99,189.44,1
175,181.85,189.30,1
174,181.69,189.14,1
174,181.54,188.99,1
175,181.41,188.85,1
174,181.26,188.70,1
174,181.12,188.56,1
173,180.95,188.40,1
173,180.80,188.25,1
175,180.68,188.11,1
173,180.53,187.96,1
173,180.38,187.81,1
173,180.23,187.66,1
174,180.10,187.53,1
173,179.96,187.38,1
174,179.84,187.25,1
173,179.71,187.11,1
174,179.59,186.98,1
173,179.46,186.84,1
174,179.35,186.71,1
175,179.26,186.59,1
173,179.14,186.45,1
173,179.02,186.32,1
173,178.89,186.19,1
173,178.78,186.05,1
173,178.66,185.92,1
174,178.57,185.81,1
173,178.46,185.68,1
171,178.31,185.53,1
173,178.20,185.41,1
174,178.12,185.29,1
172,178.00,185.16,1
172,177.88,185.03,1
172,177.76,184.90,1
171,177.62,184.76,1
171,177.49,184.62,1
171,177.36,184.48,1
171,177.23,184.35,1
171,177.11,184.22,1
172,177.01,184.09,1
171,176.89,183.96,1
172,176.79,183.84,1
171,176.67,183.71,1
172,176.58,183.60,1
171,176.47,183.47,1
171,176.36,183.35,1
171,176.25,183.22,1
171,176.15,183.10,1
169,176.00,182.96,1
169,175.86,182.82,1
169,175.73,182.68,1
170,175.61,182.56,1
170,175.50,182.43,1
169,175.37,182.30,1
169,175.24,182.16,1
169,175.12,182.03,1
169,174.99,181.90,1
169,174.87,181.77,1
169,174.76,181.64,1
168,174.62,181.51,1
168,174.49,181.37,1
168,174.36,181.24,1
169,174.25,181.12,1
167,174.11,180.97,1
169,174.01,180.86,1
167,173.87,180.72,1
168,173.75,180.59,1
170,173.67,180.48,1
167,173.54,180.35,1
167,173.41,180.22,1
166,173.26,180.07,1
167,173.14,179.94,1
167,173.01,179.81,1
167,172.89,179.68,1
166,172.75,179.55,1
166,172.62,179.41,1
166,172.49,179.28,1
166,172.36,179.15,1
165,172.21,179.00,1
167,172.11,178.88,1
166,171.98,178.76,1
167,171.88,178.64,1
165,171.75,178.50,1
166,171.63,178.38,1
166,171.52,178.25,1
166,171.41,178.13,1
166,171.30,178.01,1
165,171.17,177.88,1
167,171.09,177.77,1
166,170.99,177.65,1
166,170.89,177.54,1
165,170.77,177.41,1
165,170.66,177.29,1
165,170.54,177.16,1
166,170.45,177.05,1
165,170.34,176.93,1
166,170.26,176.82,1
165,170.15,176.70,1
165,170.05,176.59,1
165,169.95,176.47,1
166,169.87,176.37,1
164,169.75,176.24,1
165,169.66,176.13,1
165,169.56,176.02,1
165,169.47,175.91,1
165,169.38,175.80,1
165,169.29,175.69,1
165,169.21,175.58,1
165,169.12,175.48,1
164,169.02,175.36,1
163,168.90,175.24,1
165,168.82,175.14,1
163,168.71,175.02,1
164,168.61,174.91,1
163,168.50,174.79,1
163,168.39,174.67,1
163,168.28,174.55,1
164,168.20,174.45,1
164,168.11,174.34,1
162,167.99,174.22,1
163,167.89,174.11,1
161,167.75,173.98,1
162,167.64,173.86,1
161,167.51,173.73,1
161,167.38,173.60,1
161,167.25,173.47,1
161,167.12,173.35,1
160,166.98,173.22,1
161,166.86,173.09,1
160,166.72,172.96,1
160,166.59,172.83,1
160,166.46,172.71,1
160,166.33,172.58,1
159,166.18,172.44,1
160,166.06,172.32,1
160,165.94,172.19,1
160,165.82,172.07,1
161,165.72,171.96,1
160,165.61,171.84,1
160,165.50,171.72,1
161,165.41,171.62,1
161,165.32,171.51,1
161,165.23,171.41,1
161,165.15,171.30,1
161,165.06,171.20,1
161,164.98,171.10,1
161,164.90,171.00,1
161,164.82,170.90,1
161,164.75,170.80,1
163,164.71,170.72,1
161,164.64,170.62,1
162,164.59,170.54,1
161,164.51,170.44,1
161,164.44,170.35,1
162,164.40,170.26,1
162,164.35,170.18,1
162,164.30,170.10,1
162,164.25,170.02,1
163,164.23,169.95,1
161,164.16,169.86,1
161,164.10,169.77,1
162,164.06,169.69,1
161,164.00,169.60,1
161,163.94,169.52,1
162,163.90,169.44,1
161,163.84,169.36,1
162,163.80,169.28,1
159,163.71,169.18,1
160,163.63,169.09,1
161,163.58,169.01,1
161,163.53,168.93,1
162,163.50,168.86,1
161,163.45,168.78,1
161,163.40,168.70,1
161,163.35,168.63,1
161,163.31,168.55,1
161,163.26,168.47,1
161,163.21,168.40,1
161,163.17,168.33,1
161,163.13,168.25,1
161,163.08,168.18,1
162,163.06,168.12,1
161,163.02,168.05,1
160,162.96,167.97,1
160,162.90,167.89,1
160,162.84,167.81,1
160,162.79,167.73,1
159,162.71,167.64,1
159,162.64,167.56,1
159,162.56,167.47,1
160,162.51,167.40,1
159,162.44,167.31,1
160,162.39,167.24,1
159,162.33,167.16,1
160,162.28,167.08,1
159,162.21,167.00,1
159,162.15,166.92,1
158,162.07,166.83,1
158,161.98,166.75,1
157,161.89,166.65,1
157,161.79,166.55,1
157,161.69,166.46,1
157,161.60,166.36,1
158,161.53,166.28,1
158,161.46,166.20,1
157,161.37,166.10,1
157,161.28,166.01,1
156,161.17,165.91,1
157,161.09,165.82,1
157,161.01,165.74,1
157,160.93,165.65,1
157,160.85,165.56,1
157,160.77,165.48,1
158,160.72,165.40,1
157,160.64,165.32,1
157,160.57,165.23,1
160,160.56,165.18,1
157,160.49,165.10,1
157,160.42,165.02,1
157,160.35,164.94,1
157,160.28,164.86,1
157,160.22,164.78,1
157,160.15,164.70,1
157,160.09,164.63,1
157,160.03,164.55,1
157,159.97,164.47,1
159,159.95,164.42,1
157,159.89,164.35,1
157,159.83,164.27,1
157,159.77,164.20,1
157,159.72,164.13,1
157,159.66,164.06,1
158,159.63,164.00,1
157,159.58,163.93,1
157,159.53,163.86,1
157,159.48,163.79,1
157,159.43,163.72,1
157,159.38,163.65,1
157,159.33,163.59,1
157,159.28,163.52,1
157,159.24,163.46,1
157,159.19,163.39,1
157,159.15,163.33,1
157,159.11,163.26,1
159,159.10,163.22,1
159,159.10,163.18,1
159,159.10,163.14,1
160,159.12,163.11,1
159,159.12,163.06,1
160,159.13,163.03,1
161,159.17,163.01,1
161,159.21,162.99,1
159,159.20,162.95,1
160,159.22,162.92,1
160,159.24,162.89,1
160,159.25,162.87,1
160,159.27,162.84,1
159,159.26,162.80,1
160,159.27,162.77,1
159,159.27,162.73,1
160,159.28,162.71,1
159,159.28,162.67,1
160,159.29,162.64,1
159,159.29,162.61,1
160,159.30,162.58,1
159,159.30,162.54,1
160,159.31,162.52,1
160,159.32,162.49,1
160,159.34,162.47,1
160,159.35,162.44,1
160,159.36,162.42,1
160,159.38,162.39,1
160,159.39,162.37,1
161,159.42,162.36,1
160,159.43,162.33,1
161,159.46,162.32,1
160,159.47,162.30,1
160,159.48,162.27,1
160,159.49,162.25,1
161,159.52,162.24,1
159,159.51,162.21,1
160,159.52,162.18,1
160,159.53,162.16,1
159,159.52,162.13,1
159,159.51,162.10,1
159,159.50,162.07,1
159,159.49,162.04,1
159,159.48,162.01,1
161,159.51,162.00,1
159,159.50,161.97,1
160,159.51,161.95,1
159,159.50,161.92,1
160,159.51,161.90,1
159,159.50,161.87,1
159,159.49,161.84,1
159,159.48,161.81,1
159,159.47,161.78,1
159,159.46,161.76,1
159,159.45,161.73,1
160,159.46,161.71,1
160,159.48,161.70,1
161,159.51,161.69,1
160,159.52,161.67,1
160,159.53,161.65,1
160,159.53,161.64,1
161,159.56,161.63,1
159,159.55,161.61,1
159,159.54,161.58,1
161,159.57,161.57,1
161,159.60,161.57,1
159,159.59,161.54,1
163,159.66,161.56,1
161,159.68,161.55,1
161,159.71,161.55,1
161,159.73,161.54,1
163,159.80,161.55,1
161,159.82,161.55,1
161,159.85,161.54,1
159,159.83,161.52,1
161,159.85,161.51,1
161,159.88,161.51,1
161,159.90,161.50,1
161,159.92,161.50,1
161,159.94,161.49,1
161,159.96,161.49,1
161,159.98,161.48,1
160,159.99,161.47,1
162,160.03,161.47,1
163,160.09,161.49,1
162,160.12,161.49,1
161,160.14,161.49,1
161,160.16,161.48,1
162,160.19,161.49,1
162,160.23,161.49,1
162,160.27,161.50,1
161,160.28,161.49,1
161,160.30,161.49,1
161,160.31,161.48,1
161,160.32,161.48,1
162,160.36,161.48,1
160,160.35,161.47,1
161,160.36,161.47,1
161,160.38,161.46,1
161,160.39,161.46,1
161,160.40,161.45,1
161,160.41,161.45,1
161,160.42,161.44,1
161,160.44,161.44,1
162,160.47,161.44,1
163,160.52,161.46,1
163,160.57,161.47,1
163,160.62,161.49,1
164,160.68,161.52,1
165,160.77,161.55,1
165,160.85,161.58,1
166,160.96,161.63,1
165,161.04,161.66,1
165,161.12,161.70,1
165,161.20,161.73,1
166,161.29,161.77,1
168,161.43,161.83,1
167,161.54,161.89,1
167,161.65,161.94,1
166,161.73,161.98,1
167,161.84,162.03,1
167,161.94,162.08,1
167,162.04,162.13,2
167,162.14,162.18,2
167,162.24,162.22,3
167,162.33,162.27,3
167,162.43,162.32,4
167,162.52,162.37,4
168,162.63,162.42,4
167,162.72,162.47,4
167,162.80,162.51,4
168,162.91,162.57,4
167,162.99,162.61,4
167,163.07,162.66,4
167,163.15,162.70,4
167,163.22,162.74,4
167,163.30,162.78,4
169,163.41,162.85,4
167,163.49,162.89,4
167,163.56,162.93,4
167,163.62,162.97,4
167,163.69,163.01,4
168,163.78,163.06,4
167,163.84,163.10,4
167,163.91,163.14,4
167,163.97,163.18,4
167,164.03,163.22,4
166,164.07,163.24,4
169,164.17,163.30,4
168,164.24,163.35,4
168,164.32,163.39,4
169,164.41,163.45,4
169,164.50,163.51,4
168,164.57,163.55,4
169,164.66,163.61,4
167,164.71,163.64,4
167,164.75,163.67,4
168,164.82,163.72,4
168,164.88,163.76,4
169,164.97,163.81,4
168,165.03,163.85,4
168,165.09,163.89,4
168,165.14,163.94,4
169,165.22,163.99,4
168,165.28,164.03,4
169,165.35,164.08,4
168,165.40,164.12,4
168,165.46,164.15,4
168,165.51,164.19,4
169,165.58,164.24,4
168,165.63,164.28,4
168,165.67,164.32,4
168,165.72,164.35,4
168,165.76,164.39,4
168,165.81,164.43,4
169,165.87,164.47,4
168,165.92,164.51,4
169,165.98,164.55,4
169,166.04,164.60,4
169,166.10,164.64,4
171,166.20,164.70,4
171,166.29,164.77,4
171,166.39,164.83,4
171,166.48,164.89,4
171,166.57,164.95,4
169,166.62,164.99,4
172,166.72,165.06,4
172,166.83,165.13,4
172,166.93,165.20,4
172,167.03,165.27,4
173,167.15,165.35,4
175,167.31,165.44,4
175,167.46,165.54,4
174,167.60,165.62,4
174,167.72,165.71,4
175,167.87,165.80,4
174,167.99,165.88,4
173,168.09,165.95,4
174,168.21,166.03,4
174,168.33,166.11,4
173,168.42,166.18,4
175,168.55,166.27,4
174,168.66,166.35,4
175,168.79,166.43,4
175,168.91,166.52,4
175,169.03,166.60,4
175,169.15,166.69,4
175,169.27,166.77,4
175,169.38,166.85,4
176,169.52,166.94,4
176,169.65,167.04,4
176,169.77,167.12,4
177,169.92,167.22,4
176,170.04,167.31,4
175,170.14,167.39,4
178,170.30,167.49,4
176,170.41,167.58,4
177,170.54,167.67,4
179,170.71,167.79,4
177,170.84,167.88,4
179,171.00,167.99,4
178,171.14,168.09,4
178,171.28,168.19,4
177,171.39,168.28,4
179,171.54,168.38,4
179,171.69,168.49,4
179,171.84,168.60,4
179,171.98,168.70,4
179,172.12,168.80,4
180,172.28,168.91,4
181,172.45,169.04,4
177,172.55,169.12,4
181,172.71,169.23,4
182,172.90,169.36,4
181,173.06,169.48,4
182,173.24,169.60,4
181,173.40,169.72,4
181,173.55,169.83,4
181,173.70,169.94,4
181,173.84,170.05,4
182,174.01,170.17,4
181,174.15,170.28,4
183,174.32,170.41,4
184,174.52,170.54,4
184,174.71,170.68,4
184,174.89,170.81,4
185,175.09,170.95,4
185,175.29,171.09,4
187,175.53,171.25,4
187,175.76,171.41,4
189,176.02,171.59,4
187,176.24,171.74,4
187,176.46,171.89,4
187,176.67,172.04,4
187,176.87,172.19,4
187,177.08,172.34,4
187,177.27,172.49,4
187,177.47,172.63,4
187,177.66,172.78,4
188,177.87,172.93,4
189,178.09,173.09,4
189,178.31,173.25,4
189,178.52,173.41,4
189,178.73,173.56,4
191,178.98,173.74,4
192,179.24,173.92,4
191,179.47,174.09,4
193,179.74,174.28,4
191,179.97,174.45,4
192,180.21,174.62,4
191,180.42,174.79,4
191,180.64,174.95,4
193,180.88,175.13,4
191,181.09,175.29,4
193,181.32,175.46,4
194,181.58,175.65,4
195,181.85,175.84,4
195,182.11,176.03,4
196,182.39,176.23,4
198,182.70,176.45,4
200,183.04,176.69,4
198,183.34,176.90,4
198,183.64,177.11,4
199,183.94,177.33,4
200,184.27,177.56,4
199,184.56,177.77,4
198,184.83,177.97,4
199,185.11,178.18,4
199,185.39,178.39,4
199,185.66,178.60,4
200,185.95,178.81,4
200,186.23,179.02,4
200,186.51,179.23,4
202,186.82,179.46,4
203,187.14,179.70,4
202,187.44,179.92,4
204,187.77,180.16,4
206,188.13,180.42,4
207,188.51,180.69,4
209,188.92,180.97,4
208,189.30,181.24,4
209,189.70,181.52,4
209,190.08,181.79,4
209,190.46,182.06,4
211,190.87,182.35,4
211,191.27,182.64,4
209,191.63,182.90,4
209,191.97,183.16,4
211,192.36,183.44,4
211,192.73,183.72,4
209,193.05,183.97,4
210,193.39,184.23,4
211,193.74,184.50,4
211,194.09,184.76,4
213,194.47,185.05,4
214,194.86,185.34,4
214,195.24,185.62,4
215,195.64,185.92,4
217,196.06,186.23,4
219,196.52,186.55,4
222,197.03,186.91,4
221,197.51,187.25,4
221,197.98,187.59,4
221,198.44,187.92,4
221,198.89,188.25,4
221,199.34,188.58,4
221,199.77,188.90,4
223,200.23,189.24,4
223,200.69,189.58,4
223,201.13,189.92,4
224,201.59,190.26,4
224,202.04,190.59,4
223,202.46,190.92,4
223,202.87,191.24,4
221,203.23,191.54,4
222,203.61,191.84,4
222,203.98,192.14,4
224,204.38,192.46,4
223,204.75,192.77,4
225,205.15,193.09,4
223,205.51,193.39,4
225,205.90,193.71,4
228,206.34,194.05,4
229,206.80,194.40,4
228,207.22,194.73,4
228,207.64,195.07,4
229,208.06,195.41,4
232,208.54,195.77,4
234,209.05,196.15,4
234,209.55,196.53,4
234,210.04,196.91,4
233,210.50,197.27,4
235,210.99,197.65,4
237,211.51,198.04,4
239,212.06,198.45,4
239,212.60,198.85,4
239,213.12,199.26,4
239,213.64,199.65,4
239,214.15,200.05,4
239,214.65,200.44,4
238,215.11,200.81,4
239,215.59,201.19,4
240,216.08,201.58,4
243,216.62,202.00,4
247,217.23,202.45,4
243,217.74,202.85,4
243,218.25,203.25,4
243,218.74,203.65,4
245,219.27,204.06,4
249,219.86,204.51,4
249,220.44,204.96,4
249,221.02,205.40,4
249,221.57,205.83,4
249,222.12,206.27,4
249,222.66,206.69,4
248,223.17,207.11,4
248,223.66,207.52,4
248,224.15,207.92,4
247,224.61,208.31,4
248,225.08,208.71,4
247,225.51,209.09,4
248,225.96,209.48,4
249,226.42,209.88,4
249,226.88,210.27,4
250,227.34,210.66,4
250,227.79,211.06,4
253,228.30,211.48,4
251,228.75,211.87,4
251,229.20,212.26,4
252,229.65,212.66,4
252,230.10,213.05,4
254,230.58,213.46,4
252,231.00,213.85,4
253,231.44,214.24,4
254,231.90,214.64,4
256,232.38,215.05,4
255,232.83,215.45,4
256,233.29,215.86,4
256,233.75,216.26,4
255,234.17,216.65,4
256,234.61,217.04,4
257,235.06,217.44,4
255,235.46,217.81,4
257,235.89,218.21,4
260,236.37,218.62,4
261,236.86,219.05,4
261,237.34,219.47,4
263,237.86,219.90,4
265,238.40,220.35,4
267,238.97,220.82,4
267,239.53,221.28,4
267,240.08,221.74,4
268,240.64,222.20,4
266,241.15,222.64,4
267,241.67,223.08,4
267,242.17,223.52,4
267,242.67,223.96,4
268,243.18,224.40,4
272,243.75,224.87,4
271,244.30,225.33,4
271,244.83,225.79,4
271,245.35,226.24,4
271,245.87,226.69,4
273,246.41,227.15,4
271,246.90,227.59,4
271,247.38,228.03,4
271,247.86,228.46,4
272,248.34,228.89,4
273,248.83,229.33,4
275,249.36,229.79,4
274,249.85,230.23,4
273,250.31,230.66,4
273,250.76,231.08,4
273,251.21,231.50,4
275,251.69,231.94,4
277,252.19,232.39,4
275,252.65,232.81,4
275,253.09,233.24,4
275,253.53,233.65,4
276,253.98,234.08,4
275,254.40,234.49,4
275,254.81,234.89,4
274,255.20,235.28,4
274,255.57,235.67,4
275,255.96,236.06,4
273,256.30,236.43,4
273,256.64,236.80,4
275,257.00,237.18,4
276,257.38,237.57,4
277,257.78,237.96,4
276,258.14,238.34,4
276,258.50,238.72,4
277,258.87,239.10,4
277,259.23,239.48,4
276,259.57,239.85,4
276,259.90,240.21,4
276,260.22,240.57,4
275,260.51,240.91,4
275,260.80,241.25,4
275,261.09,241.59,4
274,261.35,241.91,4
275,261.62,242.24,4
274,261.87,242.56,4
274,262.11,242.88,4
275,262.37,243.20,4
274,262.60,243.50,4
274,262.83,243.81,4
275,263.07,244.12,4
273,263.27,244.41,4
273,263.46,244.70,4
272,263.63,244.97,4
272,263.80,245.24,4
271,263.95,245.50,4
272,264.11,245.76,4
271,264.24,246.01,4
272,264.40,246.27,4
271,264.53,246.52,4
271,264.66,246.77,4
271,264.79,247.01,4
271,264.91,247.25,4
270,265.01,247.48,4
270,265.11,247.70,4
270,265.21,247.92,4
269,265.29,248.14,4
269,265.36,248.34,4
269,265.43,248.55,4
268,265.49,248.74,4
268,265.54,248.94,4
267,265.57,249.12,4
267,265.59,249.30,4
267,265.62,249.47,4
267,265.65,249.65,4
266,265.66,249.81,4
267,265.68,249.98,4
265,265.67,250.13,4
266,265.68,250.29,4
264,265.64,250.43,4
264,265.61,250.57,4
264,265.58,250.70,4
265,265.57,250.84,4
263,265.52,250.97,4
263,265.46,251.09,4
261,265.38,251.18,4
263,265.33,251.30,4
262,265.26,251.41,4
261,265.18,251.51,4
261,265.09,251.60,4
260,264.99,251.68,4
260,264.89,251.77,4
259,264.77,251.84,4
260,264.68,251.92,4
260,264.58,252.00,4
259,264.47,252.07,4
262,264.42,252.17,4
259,264.31,252.24,4
258,264.19,252.30,4
259,264.08,252.36,4
257,263.94,252.41,4
257,263.80,252.46,4
257,263.67,252.50,4
256,263.51,252.54,4
256,263.36,252.57,4
256,263.22,252.61,4
255,263.05,252.63,4
255,262.89,252.65,4
256,262.75,252.69,4
255,262.60,252.71,4
255,262.45,252.73,4
254,262.28,252.75,4
252,262.07,252.74,4
253,261.89,252.74,4
254,261.73,252.75,4
253,261.56,252.76,4
253,261.39,252.76,4
252,261.20,252.75,4
251,261.00,252.73,4
252,260.82,252.73,4
252,260.64,252.72,4
250,260.43,252.69,4
250,260.22,252.66,4
250,260.01,252.64,4
249,259.79,252.60,4
250,259.60,252.58,4
249,259.39,252.54,4
249,259.18,252.50,4
248,258.95,252.46,4
249,258.76,252.43,4
247,258.52,252.37,4
248,258.31,252.33,4
248,258.10,252.28,4
247,257.88,252.23,4
247,257.66,252.18,4
247,257.45,252.13,4
247,257.24,252.08,4
247,257.04,252.02,4
246,256.82,251.96,4
245,256.58,251.89,4
245,256.35,251.83,4
245,256.12,251.76,4
245,255.90,251.69,4
245,255.68,251.62,4
244,255.45,251.55,4
243,255.20,251.46,4
243,254.95,251.38,4
243,254.72,251.29,4
243,254.48,251.21,4
243,254.25,251.13,4
242,254.01,251.04,4
239,253.71,250.92,4
242,253.47,250.83,4
241,253.22,250.73,4
240,252.96,250.62,4
240,252.70,250.52,4
240,252.44,250.41,4
239,252.18,250.30,4
239,251.91,250.18,4
239,251.65,250.07,4
239,251.40,249.96,4
239,251.15,249.85,4
238,250.89,249.73,4
237,250.61,249.61,4
237,250.34,249.48,4
237,250.07,249.35,4
237,249.81,249.23,4
237,249.56,249.11,4
235,249.26,248.97,4
237,249.02,248.85,4
235,248.74,248.71,5
235,248.46,248.57,5
233,248.15,248.42,5
234,247.87,248.27,5
233,247.57,248.12,5
235,247.32,247.99,5
233,247.04,247.84,5
233,246.76,247.69,5
233,246.48,247.54,5
233,246.21,247.40,5
233,245.95,247.25,5
233,245.69,247.11,5
232,245.41,246.96,5
232,245.15,246.81,5
233,244.90,246.67,5
231,244.62,246.52,5
231,244.35,246.36,5
230,244.07,246.20,5
230,243.78,246.04,5
230,243.51,245.87,5
230,243.24,245.72,5
230,242.97,245.56,5
229,242.69,245.39,5
228,242.40,245.22,5
227,242.09,245.04,5
227,241.79,244.86,5
227,241.49,244.68,5
228,241.22,244.51,5
227,240.94,244.34,5
227,240.66,244.16,5
226,240.37,243.98,5
228,240.12,243.82,5
225,239.82,243.63,5
225,239.52,243.45,5
225,239.23,243.26,5
225,238.95,243.08,5
224,238.65,242.89,5
224,238.35,242.70,5
223,238.05,242.50,5
224,237.77,242.32,5
224,237.49,242.14,5
223,237.20,241.94,5
223,236.92,241.75,5
223,236.64,241.57,5
221,236.33,241.36,5
222,236.04,241.17,5
223,235.78,240.99,5
221,235.48,240.79,5
221,235.19,240.59,5
221,234.91,240.39,5
220,234.61,240.19,5
220,234.32,239.99,5
220,234.03,239.79,5
220,233.75,239.59,5
219,233.46,239.38,5
220,233.19,239.19,5
220,232.92,239.00,5
220,232.67,238.81,5
219,232.39,238.61,5
219,232.13,238.41,5
219,231.86,238.22,5
219,231.61,238.03,5
218,231.33,237.83,5
219,231.09,237.64,5
218,230.82,237.44,5
217,230.55,237.24,5
217,230.28,237.03,5
217,230.01,236.83,5
217,229.75,236.64,5
217,229.50,236.44,5
216,229.23,236.24,5
215,228.94,236.02,5
215,228.66,235.81,5
215,228.39,235.60,5
215,228.12,235.40,5
217,227.90,235.21,5
213,227.60,234.99,5
213,227.31,234.77,5
214,227.04,234.56,5
213,226.76,234.35,5
213,226.49,234.14,5
212,226.20,233.91,5
212,225.91,233.70,5
212,225.64,233.48,5
211,225.34,233.25,5
212,225.08,233.04,5
211,224.79,232.82,5
211,224.52,232.60,5
210,224.23,232.38,5
210,223.94,232.15,5
210,223.66,231.93,5
209,223.37,231.70,5
209,223.08,231.47,5
209,222.80,231.25,5
209,222.53,231.03,5
209,222.26,230.81,5
208,221.97,230.58,5
209,221.71,230.36,5
208,221.44,230.14,5
208,221.17,229.92,5
207,220.88,229.69,5
208,220.63,229.47,5
207,220.35,229.25,5
207,220.09,229.03,5
207,219.83,228.80,5
207,219.57,228.59,5
207,219.32,228.37,5
207,219.07,228.16,5
207,218.83,227.95,5
206,218.57,227.73,5
206,218.32,227.51,5
206,218.08,227.29,5
206,217.83,227.08,5
205,217.58,226.86,5
206,217.35,226.65,5
205,217.10,226.44,5
205,216.86,226.22,5
205,216.62,226.01,5
205,216.39,225.80,5
205,216.16,225.59,5
205,215.94,225.38,5
204,215.70,225.17,5
203,215.44,224.95,5
204,215.22,224.74,5
204,214.99,224.53,5
204,214.77,224.33,5
204,214.56,224.12,5
205,214.36,223.93,5
203,214.14,223.72,5
204,213.93,223.53,5
203,213.72,223.32,5
203,213.50,223.12,5
203,213.29,222.92,5
203,213.09,222.72,5
202,212.86,222.51,5
202,212.65,222.30,5
201,212.41,222.09,5
201,212.19,221.88,5
201,211.96,221.67,5
201,211.74,221.47,5
202,211.55,221.27,5
201,211.34,221.07,5
201,211.13,220.87,5
200,210.91,220.66,5
201,210.71,220.46,5
200,210.50,220.26,5
200,210.29,220.05,5
200,210.08,219.85,5
199,209.86,219.65,5
199,209.64,219.44,5
200,209.45,219.24,5
200,209.26,219.05,5
199,209.05,218.85,5
199,208.85,218.65,5
198,208.64,218.45,5
199,208.44,218.25,5
199,208.25,218.06,5
198,208.05,217.86,5
198,207.85,217.66,5
197,207.63,217.45,5
197,207.42,217.25,5
198,207.23,217.06,5
197,207.03,216.86,5
197,206.82,216.66,5
197,206.63,216.46,5
196,206.42,216.26,5
196,206.21,216.05,5
196,206.00,215.85,5
196,205.80,215.66,5
196,205.61,215.46,5
196,205.42,215.26,5
195,205.21,215.06,5
196,205.02,214.87,5
195,204.82,214.67,5
194,204.61,214.47,5
194,204.39,214.26,5
194,204.19,214.06,5
194,203.98,213.86,5
194,203.78,213.66,5
193,203.57,213.45,5
193,203.36,213.25,5
193,203.15,213.05,5
194,202.97,212.85,5
193,202.77,212.66,5
192,202.55,212.45,5
192,202.34,212.25,5
191,202.11,212.03,5
192,201.91,211.83,5
192,201.71,211.63,5
192,201.52,211.44,5
192,201.33,211.24,5
193,201.16,211.06,5
192,200.98,210.87,5
192,200.80,210.68,5
191,200.60,210.48,5
191,200.41,210.29,5
191,200.22,210.10,5
191,200.04,209.91,5
191,199.86,209.72,5
191,199.68,209.53,5
191,199.51,209.34,5
191,199.34,209.16,5
191,199.17,208.98,5
191,199.01,208.80,5
191,198.85,208.62,5
191,198.69,208.45,5
189,198.50,208.25,5
190,198.33,208.07,5
189,198.14,207.88,5
189,197.96,207.69,5
189,197.78,207.50,5
190,197.62,207.33,5
188,197.43,207.13,5
187,197.22,206.93,5
190,197.08,206.76,5
189,196.91,206.59,5
189,196.76,206.41,5
189,196.60,206.24,5
189,196.45,206.06,5
190,196.32,205.90,5
189,196.17,205.73,5
189,196.03,205.57,5
189,195.89,205.40,5
189,195.75,205.24,5
193,195.70,205.11,5
189,195.56,204.95,5
187,195.39,204.77,5
188,195.24,204.61,5
188,195.10,204.44,5
187,194.94,204.27,5
187,194.78,204.09,5
187,194.62,203.92,5
187,194.47,203.75,5
187,194.32,203.59,5
185,194.13,203.40,5
186,193.97,203.23,5
185,193.79,203.04,5
187,193.66,202.88,5
185,193.48,202.70,5
185,193.31,202.53,5
184,193.13,202.34,5
185,192.96,202.17,5
185,192.81,202.00,5
185,192.65,201.83,5
185,192.50,201.66,5
185,192.35,201.49,5
186,192.22,201.34,5
184,192.06,201.16,5
184,191.89,200.99,5
184,191.74,200.82,5
184,191.58,200.65,5
185,191.45,200.50,5
184,191.30,200.33,5
184,191.15,200.17,5
184,191.01,200.01,5
184,190.87,199.85,5
184,190.73,199.69,5
185,190.62,199.54,5
183,190.47,199.38,5
183,190.32,199.21,5
183,190.17,199.05,5
183,190.03,198.89,5
183,189.89,198.73,5
183,189.75,198.57,5
183,189.61,198.42,5
183,189.48,198.26,5
181,189.31,198.09,5
182,189.17,197.93,5
181,189.00,197.76,5
182,188.86,197.60,5
181,188.71,197.44,5
181,188.55,197.27,5
181,188.40,197.11,5
181,188.25,196.95,5
181,188.11,196.79,5
181,187.97,196.63,5
182,187.85,196.49,5
180,187.69,196.32,5
181,187.56,196.17,5
181,187.42,196.02,5
182,187.32,195.88,5
180,187.17,195.72,5
180,187.03,195.56,5
180,186.89,195.40,5
181,186.77,195.26,5
180,186.63,195.11,5
180,186.50,194.96,5
179,186.35,194.80,5
179,186.20,194.64,5
180,186.08,194.49,5
179,185.94,194.34,5
179,185.80,194.18,5
179,185.66,194.03,5
180,185.55,193.89,5
178,185.40,193.73,5
178,185.25,193.58,5
178,185.11,193.42,5
178,184.96,193.27,5
177,184.80,193.10,5
178,184.67,192.95,5
179,184.55,192.81,5
177,184.40,192.65,5
177,184.26,192.50,5
177,184.11,192.34,5
177,183.97,192.19,5
177,183.83,192.04,5
177,183.69,191.89,5
177,183.56,191.74,5
175,183.39,191.57,5
177,183.26,191.43,5
177,183.13,191.28,5
175,182.97,191.12,5
177,182.85,190.98,5
175,182.70,190.82,5
175,182.54,190.66,5
175,182.39,190.50,5
175,182.24,190.35,5
175,182.10,190.19,5
175,181.96,190.04,5
175,181.82,189.89,5
174,181.66,189.73,5
175,181.53,189.59,5
175,181.40,189.44,5
173,181.23,189.28,5
175,181.10,189.13,5
174,180.96,188.98,5
174,180.82,188.83,5
175,180.71,188.69,5
173,180.55,188.54,5
174,180.42,188.39,5
173,180.27,188.24,5
173,180.13,188.08,5
173,179.98,187.93,5
173,179.85,187.78,5
171,179.67,187.62,5
172,179.51,187.46,5
172,179.36,187.31,5
171,179.20,187.14,5
173,179.07,187.00,5
172,178.93,186.85,5
172,178.79,186.70,5
172,178.66,186.56,5
173,178.54,186.42,5
171,178.39,186.27,5
173,178.29,186.13,5
172,178.16,185.99,5
172,178.04,185.85,5
173,177.94,185.72,5
172,177.82,185.59,5
173,177.72,185.46,5
173,177.63,185.34,5
172,177.51,185.20,5
173,177.42,185.08,5
173,177.34,184.96,5
173,177.25,184.84,5
173,177.16,184.72,5
172,177.06,184.59,5
172,176.96,184.47,5
172,176.86,184.34,5
173,176.78,184.23,5
171,176.67,184.10,5
172,176.57,183.98,5
171,176.46,183.85,5
171,176.35,183.72,5
172,176.27,183.60,5
172,176.18,183.49,5
171,176.08,183.36,5
170,175.96,183.23,5
169,175.82,183.08,5
169,175.68,182.94,5
169,175.55,182.80,5
169,175.42,182.67,5
169,175.29,182.53,5
173,175.24,182.43,5
169,175.12,182.30,5
169,174.99,182.17,5
169,174.87,182.04,5
169,174.76,181.91,5
169,174.64,181.78,5
169,174.53,181.65,5
169,174.42,181.52,5
169,174.31,181.40,5
170,174.22,181.28,5
168,174.10,181.15,5
167,173.96,181.01,5
167,173.82,180.87,5
167,173.68,180.73,5
167,173.55,180.59,5
167,173.42,180.46,5
167,173.29,180.32,5
167,173.16,180.19,5
167,173.04,180.06,5
167,172.92,179.93,5
167,172.80,179.80,5
166,172.66,179.66,5
165,172.51,179.51,5
166,172.38,179.38,5
166,172.25,179.24,5
165,172.11,179.10,5
166,171.99,178.97,5
165,171.85,178.83,5
165,171.71,178.69,5
165,171.58,178.56,5
165,171.44,178.42,5
166,171.34,178.30,5
165,171.21,178.16,5
166,171.10,178.04,5
163,170.94,177.89,5
164,170.80,177.75,5
163,170.65,177.60,5
164,170.51,177.47,5
163,170.36,177.32,5
164,170.24,177.19,5
163,170.09,177.05,5
165,169.99,176.93,5
164,169.87,176.80,5
163,169.73,176.66,5
163,169.60,176.52,5
163,169.47,176.39,5
164,169.36,176.26,5
163,169.23,176.13,5
164,169.13,176.01,5
163,169.00,175.88,5
163,168.88,175.75,5
163,168.77,175.62,5
163,168.65,175.50,5
161,168.50,175.35,5
161,168.35,175.21,5
161,168.20,175.07,5
162,168.08,174.94,5
161,167.93,174.80,5
161,167.80,174.66,5
161,167.66,174.52,5
161,167.53,174.39,5
160,167.38,174.24,5
161,167.25,174.11,5
161,167.12,173.98,5
159,166.96,173.83,5
159,166.80,173.68,5
159,166.65,173.54,5
160,166.51,173.40,5
159,166.36,173.26,5
160,166.24,173.12,5
159,166.09,172.98,5
157,165.91,172.82,5
157,165.73,172.66,5
159,165.60,172.53,5
157,165.42,172.37,5
158,165.28,172.23,5
157,165.11,172.08,5
157,164.95,171.93,5
157,164.79,171.78,5
157,164.63,171.63,5
157,164.48,171.48,5
156,164.31,171.33,5
157,164.16,171.18,5
156,164.00,171.03,5
157,163.86,170.89,5
157,163.72,170.75,5
156,163.57,170.61,5
157,163.44,170.47,5
155,163.27,170.31,5
155,163.10,170.16,5
157,162.98,170.03,5
156,162.84,169.89,5
156,162.71,169.75,5
157,162.59,169.62,5
156,162.46,169.49,5
157,162.35,169.36,5
157,162.24,169.24,5
157,162.14,169.12,5
157,162.04,169.00,5
157,161.94,168.88,5
157,161.84,168.76,5
156,161.72,168.63,5
157,161.63,168.51,5
156,161.51,168.39,5
155,161.38,168.25,5
156,161.27,168.13,5
156,161.17,168.01,5
157,161.09,167.90,5
156,160.98,167.78,5
155,160.86,167.65,5
153,160.71,167.51,5
155,160.59,167.38,5
156,160.50,167.27,5
155,160.39,167.14,5
155,160.28,167.02,5
155,160.18,166.90,5
156,160.09,166.79,5
156,160.01,166.69,5
155,159.91,166.57,5
155,159.81,166.45,5
154,159.70,166.33,5
155,159.60,166.22,5
156,159.53,166.11,5
155,159.44,166.00,5
155,159.35,165.89,5
153,159.23,165.76,5
154,159.12,165.65,5
154,159.02,165.53,5
154,158.92,165.41,5
153,158.80,165.29,5
154,158.70,165.18,5
153,158.59,165.06,5
153,158.48,164.93,5
154,158.39,164.83,5
153,158.28,164.71,5
153,158.17,164.59,5
153,158.07,164.47,5
154,157.99,164.37,5
154,157.91,164.27,5
154,157.83,164.16,5
153,157.74,164.05,5
153,157.64,163.94,5
153,157.55,163.83,5
153,157.46,163.72,5
154,157.39,163.63,5
152,157.28,163.51,5
153,157.19,163.40,5
153,157.11,163.30,5
153,157.03,163.20,5
156,157.01,163.13,5
153,156.93,163.02,5
153,156.85,162.92,5
152,156.75,162.81,5
152,156.66,162.71,5
153,156.58,162.61,5
152,156.49,162.50,5
151,156.38,162.39,5
151,156.27,162.27,5
152,156.19,162.17,5
152,156.11,162.07,5
152,156.02,161.97,5
151,155.92,161.86,5
151,155.82,161.75,5
151,155.73,161.64,5
151,155.63,161.54,5
149,155.50,161.41,5
150,155.39,161.30,5
151,155.30,161.19,5
152,155.24,161.10,5
151,155.15,161.00,5
151,155.07,160.90,5
152,155.01,160.81,5
152,154.95,160.72,5
152,154.89,160.64,5
152,154.83,160.55,5
152,154.77,160.47,5
153,154.74,160.39,5
152,154.68,160.31,5
152,154.63,160.22,5
151,154.56,160.13,5
152,154.51,160.05,5
151,154.44,159.96,5
152,154.39,159.88,5
151,154.32,159.79,5
150,154.23,159.69,5
151,154.17,159.61,5
151,154.11,159.52,5
151,154.04,159.44,5
151,153.98,159.35,5
151,153.92,159.27,5
152,153.88,159.19,5
153,153.87,159.13,5
154,153.87,159.08,5
152,153.83,159.01,5
153,153.82,158.95,5
153,153.80,158.89,5
153,153.78,158.83,5
153,153.77,158.77,5
153,153.75,158.72,5
153,153.74,158.66,5
154,153.74,158.61,5
153,153.73,158.56,5
153,153.71,158.50,5
154,153.72,158.46,5
151,153.66,158.38,5
153,153.65,158.33,5
153,153.64,158.27,5
153,153.63,158.22,5
153,153.61,158.17,5
155,153.64,158.14,5
153,153.63,158.09,5
153,153.62,158.04,5
153,153.60,157.98,5
153,153.59,157.93,5
154,153.60,157.90,5
153,153.59,157.85,5
153,153.58,157.80,5
153,153.56,157.75,5
153,153.55,157.70,5
153,153.54,157.66,5
153,153.53,157.61,5
153,153.52,157.56,5
153,153.51,157.52,5
153,153.50,157.47,5
153,153.49,157.43,5
153,153.48,157.38,5
153,153.47,157.34,5
153,153.46,157.30,5
153,153.45,157.25,5
153,153.44,157.21,5
153,153.43,157.17,5
153,153.42,157.13,5
152,153.40,157.08,5
153,153.39,157.03,5
153,153.38,156.99,5
153,153.37,156.95,5
153,153.37,156.91,5
153,153.36,156.88,5
153,153.35,156.84,5
153,153.34,156.80,5
153,153.34,156.76,5
152,153.31,156.71,5
153,153.30,156.68,5
157,153.38,156.68,5
152,153.35,156.63,5
152,153.32,156.59,5
152,153.30,156.54,5
152,153.27,156.49,5
152,153.25,156.45,5
152,153.22,156.41,5
152,153.20,156.36,5
151,153.15,156.31,5
152,153.13,156.26,5
151,153.09,156.21,5
151,153.05,156.16,5
152,153.02,156.12,5
152,153.00,156.08,5
152,152.98,156.04,5
152,152.96,156.00,5
151,152.92,155.95,5
152,152.91,155.91,5
153,152.91,155.88,5
153,152.91,155.85,5
154,152.93,155.83,5
153,152.93,155.80,5
153,152.93,155.77,5
153,152.94,155.75,5
153,152.94,155.72,5
153,152.94,155.69,5
153,152.94,155.66,5
153,152.94,155.64,5
153,152.94,155.61,5
153,152.94,155.59,5
153,152.94,155.56,5
153,152.95,155.53,5
154,152.97,155.52,5
153,152.97,155.49,5
154,152.99,155.48,5
155,153.03,155.47,5
155,153.07,155.47,5
156,153.13,155.47,5
155,153.16,155.47,5
156,153.22,155.47,5
157,153.30,155.49,5
156,153.35,155.50,5
156,153.40,155.50,5
156,153.45,155.51,5
157,153.53,155.52,5
156,153.58,155.52,5
157,153.64,155.54,5
157,153.71,155.55,5
156,153.76,155.56,5
156,153.80,155.56,5
157,153.87,155.58,5
157,153.93,155.59,5
158,154.01,155.62,5
157,154.07,155.63,5
157,154.13,155.64,5
157,154.19,155.66,5
157,154.24,155.67,5
158,154.32,155.69,5
160,154.43,155.74,5
159,154.52,155.77,5
157,154.57,155.78,5
159,154.66,155.81,5
159,154.75,155.85,5
159,154.83,155.88,5
160,154.94,155.92,5
159,155.02,155.95,5
159,155.10,155.98,5
159,155.17,156.01,5
160,155.27,156.05,5
161,155.39,156.10,5
160,155.48,156.14,5
160,155.57,156.18,5
160,155.66,156.22,5
160,155.74,156.25,5
160,155.83,156.29,5
159,155.89,156.32,5
159,155.95,156.34,5
159,156.02,156.37,5
159,156.08,156.40,5
160,156.15,156.43,5
159,156.21,156.46,5
160,156.29,156.49,5
159,156.34,156.52,5
159,156.39,156.54,5
160,156.47,156.58,6
159,156.52,156.60,6
159,156.57,156.63,7
159,156.61,156.65,7
160,156.68,156.68,8
159,156.73,156.71,8
161,156.81,156.75,9
159,156.86,156.77,9
160,156.92,156.81,10
159,156.96,156.83,10
160,157.02,156.86,10
158,157.04,156.87,10
159,157.08,156.89,10
159,157.12,156.91,10
159,157.16,156.93,10
159,157.19,156.95,10
159,157.23,156.97,10
159,157.27,156.99,10
159,157.30,157.01,10
158,157.31,157.02,10
158,157.33,157.03,10
158,157.34,157.04,10
158,157.36,157.05,10
157,157.35,157.05,10
160,157.40,157.08,10
160,157.45,157.11,10
160,157.50,157.14,10
159,157.53,157.16,10
160,157.58,157.19,10
161,157.65,157.23,10
162,157.74,157.27,10
161,157.80,157.31,10
162,157.89,157.36,10
161,157.95,157.39,10
162,158.03,157.44,10
161,158.09,157.48,10
161,158.15,157.51,10
161,158.21,157.55,10
162,158.28,157.59,10
161,158.34,157.62,10
161,158.39,157.66,10
161,158.44,157.69,10
161,158.49,157.72,10
161,158.54,157.76,10
161,158.59,157.79,10
161,158.64,157.82,10
161,158.69,157.85,10
161,158.73,157.89,10
161,158.78,157.92,10
162,158.84,157.96,10
161,158.89,157.99,10
162,158.95,158.03,10
161,158.99,158.06,10
163,159.07,158.11,10
163,159.15,158.16,10
162,159.21,158.19,10
163,159.28,158.24,10
163,159.36,158.29,10
162,159.41,158.33,10
162,159.46,158.36,10
163,159.53,158.41,10
163,159.60,158.46,10
162,159.65,158.49,10
163,159.72,158.54,10
163,159.78,158.58,10
165,159.89,158.65,10
165,159.99,158.71,10
165,160.09,158.77,10
165,160.19,158.83,10
164,160.26,158.89,10
164,160.34,158.94,10
165,160.43,159.00,10
164,160.50,159.05,10
164,160.57,159.10,10
166,160.68,159.17,10
166,160.79,159.23,10
165,160.87,159.29,10
165,160.95,159.35,10
166,161.05,159.42,10
166,161.15,159.48,10
166,161.25,159.55,10
166,161.35,159.61,10
166,161.44,159.68,10
166,161.53,159.74,10
165,161.60,159.79,10
165,161.67,159.84,10
167,161.77,159.91,10
166,161.86,159.98,10
166,161.94,160.04,10
167,162.04,160.11,10
166,162.12,160.16,10
167,162.22,160.23,10
168,162.34,160.31,10
165,162.39,160.36,10
169,162.52,160.44,10
168,162.63,160.52,10
168,162.74,160.59,10
168,162.84,160.67,10
168,162.95,160.74,10
168,163.05,160.81,10
169,163.17,160.90,10
168,163.26,160.97,10
168,163.36,161.04,10
168,163.45,161.11,10
168,163.54,161.18,10
168,163.63,161.24,10
168,163.72,161.31,10
168,163.80,161.38,10
169,163.91,161.45,10
169,164.01,161.53,10
169,164.11,161.60,10
170,164.23,161.69,10
170,164.34,161.77,10
170,164.46,161.85,10
171,164.59,161.95,10
172,164.73,162.05,10
172,164.88,162.15,10
172,165.02,162.24,10
172,165.16,162.34,10
172,165.30,162.44,10
172,165.43,162.53,10
173,165.58,162.64,10
173,165.73,162.74,10
173,165.88,162.84,10
173,166.02,162.95,10
174,166.18,163.06,10
175,166.36,163.18,10
174,166.51,163.28,10
174,166.66,163.39,10
174,166.81,163.50,10
175,166.97,163.61,10
175,167.13,163.73,10
175,167.29,163.84,10
177,167.48,163.97,10
176,167.65,164.09,10
178,167.86,164.23,10
178,168.06,164.37,10
177,168.24,164.49,10
180,168.48,164.65,10
178,168.67,164.78,10
177,168.83,164.91,10
180,169.06,165.06,10
180,169.28,165.21,10
180,169.49,165.35,10
179,169.68,165.49,10
179,169.87,165.63,10
179,170.05,165.76,10
179,170.23,165.89,10
180,170.42,166.03,10
181,170.64,166.18,10
181,170.84,166.33,10
183,171.09,166.50,10
179,171.24,166.62,10
179,171.40,166.75,10
181,171.59,166.89,10
182,171.80,167.04,10
182,172.00,167.19,10
182,172.20,167.34,10
184,172.44,167.50,10
183,172.65,167.66,10
180,172.80,167.78,10
181,172.96,167.91,10
181,173.12,168.05,10
182,173.30,168.18,10
183,173.49,168.33,10
183,173.68,168.48,10
185,173.91,168.64,10
185,174.13,168.81,10
184,174.33,168.96,10
183,174.50,169.10,10
183,174.67,169.24,10
186,174.90,169.41,10
185,175.10,169.56,10
187,175.34,169.74,10
191,175.65,169.95,10
189,175.92,170.14,10
187,176.14,170.31,10
187,176.36,170.48,10
189,176.61,170.66,10
189,176.86,170.84,10
189,177.10,171.03,10
189,177.34,171.21,10
192,177.63,171.41,10
190,177.88,171.60,10
189,178.10,171.77,10
188,178.30,171.94,10
189,178.51,172.11,10
189,178.72,172.28,10
189,178.93,172.44,10
190,179.15,172.62,10
193,179.43,172.82,10
191,179.66,173.00,10
189,179.85,173.16,10
189,180.03,173.32,10
189,180.21,173.48,10
189,180.38,173.63,10
187,180.52,173.77,10
190,180.71,173.93,10
195,180.99,174.14,10
193,181.23,174.33,10
191,181.43,174.50,10
193,181.66,174.68,10
194,181.91,174.87,10
196,182.19,175.09,10
194,182.42,175.28,10
194,182.66,175.46,10
198,182.96,175.69,10
195,183.20,175.88,10
194,183.42,176.06,10
191,183.57,176.21,10
195,183.80,176.40,10
196,184.04,176.60,10
194,184.24,176.77,10
194,184.44,176.94,10
198,184.71,177.15,10
196,184.94,177.34,10
195,185.14,177.52,10
194,185.31,177.68,10
196,185.53,177.87,10
195,185.72,178.04,10
193,185.86,178.19,10
195,186.05,178.35,10
198,186.28,178.55,10
196,186.48,178.73,10
194,186.63,178.88,10
193,186.76,179.02,10
195,186.92,179.18,10
196,187.10,179.35,10
194,187.24,179.49,10
196,187.42,179.66,10
197,187.61,179.83,10
199,187.84,180.02,10
197,188.02,180.19,10
197,188.20,180.36,10
198,188.39,180.54,10
200,188.63,180.73,10
201,188.87,180.94,10
203,189.16,181.16,10
204,189.45,181.38,10
203,189.72,181.60,10
203,189.99,181.81,10
204,190.27,182.04,10
204,190.54,182.26,10
204,190.81,182.47,10
207,191.14,182.72,10
208,191.47,182.97,10
206,191.77,183.20,10
206,192.05,183.43,10
206,192.33,183.66,10
207,192.62,183.89,10
207,192.91,184.12,10
208,193.21,184.36,10
212,193.59,184.64,10
210,193.92,184.89,10
210,194.24,185.14,10
214,194.63,185.43,10
210,194.94,185.67,10
209,195.22,185.91,10
212,195.56,186.17,10
213,195.91,186.44,10
214,196.27,186.71,10
213,196.60,186.98,10
216,196.99,187.27,10
217,197.39,187.56,10
219,197.82,187.88,10
217,198.21,188.17,10
218,198.60,188.47,10
220,199.03,188.78,10
219,199.43,189.08,10
218,199.80,189.37,10
219,200.18,189.67,10
221,200.60,189.98,10
221,201.01,190.29,10
221,201.41,190.60,10
221,201.80,190.90,10
221,202.18,191.21,10
221,202.56,191.50,10
222,202.95,191.81,10
222,203.33,192.11,10
222,203.70,192.41,10
221,204.05,192.70,10
225,204.47,193.02,10
228,204.94,193.37,10
231,205.46,193.74,10
230,205.95,194.11,10
232,206.47,194.49,10
235,207.04,194.89,10
238,207.66,195.32,10
239,208.29,195.76,10
241,208.94,196.21,10
240,209.56,196.65,10
242,210.21,197.10,10
244,210.89,197.57,10
246,211.59,198.06,10
246,212.28,198.54,10
248,212.99,199.03,10
251,213.75,199.55,10
252,214.52,200.07,10
254,215.31,200.61,10
254,216.08,201.15,10
253,216.82,201.67,10
255,217.58,202.20,10
258,218.39,202.76,10
259,219.20,203.32,10
259,220.00,203.88,10
259,220.78,204.43,10
258,221.53,204.96,10
259,222.27,205.50,10
259,223.01,206.04,10
258,223.71,206.56,10
259,224.41,207.08,10
258,225.09,207.59,10
258,225.74,208.10,10
259,226.41,208.61,10
260,227.08,209.12,10
263,227.80,209.66,10
263,228.50,210.19,10
262,229.17,210.71,10
262,229.83,211.22,10
262,230.47,211.73,10
263,231.12,212.24,10
265,231.80,212.77,10
268,232.53,213.32,10
270,233.28,213.89,10
270,234.01,214.45,10
270,234.73,215.01,10
272,235.48,215.58,10
274,236.25,216.16,10
277,237.06,216.77,10
277,237.86,217.37,10
278,238.66,217.98,10
279,239.47,218.59,10
280,240.28,219.20,10
280,241.07,219.81,10
280,241.85,220.41,10
282,242.66,221.03,10
281,243.42,221.63,10
281,244.17,222.22,10
283,244.95,222.83,10
284,245.73,223.44,10
282,246.46,224.03,10
283,247.19,224.62,10
284,247.92,225.21,10
285,248.67,225.81,10
285,249.39,226.40,10
285,250.10,226.99,10
286,250.82,227.58,10
286,251.53,228.16,10
285,252.20,228.73,10
285,252.85,229.29,10
285,253.49,229.85,10
285,254.12,230.40,10
285,254.74,230.95,10
286,255.37,231.50,10
286,255.98,232.04,10
287,256.60,232.59,10
285,257.17,233.11,10
285,257.72,233.63,10
286,258.29,234.16,10
287,258.86,234.69,10
289,259.47,235.23,10
288,260.04,235.76,10
291,260.66,236.31,10
293,261.30,236.88,10
291,261.90,237.42,10
294,262.54,237.98,10
298,263.25,238.58,10
296,263.90,239.16,10
296,264.55,239.73,10
297,265.20,240.30,10
301,265.91,240.91,10
300,266.59,241.50,10
299,267.24,242.07,10
298,267.86,242.63,10
299,268.48,243.19,10
299,269.09,243.75,10
299,269.69,244.31,10
299,270.27,244.85,10
301,270.89,245.41,10
299,271.45,245.95,10
297,271.96,246.46,10
298,272.48,246.98,10
299,273.01,247.50,10
299,273.53,248.01,10
298,274.02,248.51,10
299,274.52,249.02,10
302,275.07,249.55,10
301,275.59,250.06,10
298,276.04,250.54,10
298,276.48,251.01,10
299,276.93,251.49,10
301,277.41,251.99,10
298,277.82,252.45,10
299,278.24,252.91,10
299,278.66,253.38,10
303,279.15,253.87,10
299,279.54,254.32,10
299,279.93,254.77,10
299,280.31,255.21,10
300,280.71,255.66,10
300,281.09,256.10,10
300,281.47,256.54,10
300,281.84,256.98,10
299,282.19,257.40,10
298,282.50,257.80,10
298,282.81,258.20,10
299,283.14,258.61,10
297,283.41,259.00,10
297,283.68,259.38,10
296,283.93,259.74,10
298,284.21,260.13,10
297,284.47,260.49,10
294,284.66,260.83,10
294,284.85,261.16,10
294,285.03,261.49,10
294,285.21,261.81,10
293,285.36,262.13,10
292,285.50,262.43,10
294,285.67,262.74,10
294,285.83,263.05,10
290,285.92,263.32,10
290,286.00,263.59,10
290,286.08,263.85,10
290,286.16,264.12,10
290,286.23,264.37,10
289,286.29,264.62,10
291,286.38,264.88,10
290,286.46,265.14,10
287,286.47,265.35,10
287,286.48,265.57,10
287,286.49,265.78,10
287,286.50,266.00,10
286,286.49,266.20,10
286,286.48,266.40,10
287,286.49,266.60,10
286,286.48,266.80,10
283,286.41,266.96,10
283,286.34,267.12,10
283,286.27,267.28,10
283,286.21,267.43,10
282,286.12,267.58,10
282,286.04,267.72,10
284,286.00,267.89,10
283,285.94,268.04,10
280,285.82,268.16,10
280,285.71,268.28,10
280,285.59,268.39,10
280,285.48,268.51,10
279,285.35,268.61,10
279,285.22,268.72,10
280,285.12,268.83,10
278,284.98,268.92,10
278,284.84,269.01,10
277,284.68,269.09,10
277,284.53,269.17,10
276,284.36,269.24,10
276,284.19,269.31,10
276,284.03,269.37,10
275,283.84,269.43,10
274,283.65,269.48,10
273,283.44,269.51,10
274,283.25,269.56,10
273,283.04,269.59,10
272,282.82,269.62,10
271,282.58,269.63,10
271,282.35,269.64,10
271,282.13,269.66,10
271,281.90,269.67,10
271,281.69,269.68,10
271,281.47,269.70,10
270,281.24,269.70,10
269,281.00,269.69,10
269,280.76,269.69,10
269,280.52,269.68,10
268,280.27,269.66,10
268,280.03,269.65,10
268,279.79,269.63,10
267,279.53,269.60,10
267,279.28,269.58,10
267,279.03,269.55,10
268,278.81,269.54,10
267,278.58,269.51,10
266,278.33,269.47,10
266,278.08,269.44,10
265,277.82,269.40,10
265,277.56,269.35,10
264,277.29,269.30,10
264,277.02,269.25,10
264,276.76,269.19,10
262,276.47,269.12,10
262,276.18,269.05,10
262,275.90,268.98,10
261,275.60,268.90,10
263,275.35,268.84,10
262,275.08,268.77,10
262,274.82,268.70,10
263,274.58,268.65,10
261,274.31,268.57,10
261,274.04,268.49,10
261,273.78,268.42,10
259,273.49,268.33,10
259,273.20,268.23,10
259,272.91,268.14,10
259,272.63,268.05,10
258,272.34,267.95,10
259,272.07,267.86,10
257,271.77,267.75,10
256,271.46,267.63,10
257,271.17,267.53,10
256,270.87,267.41,10
255,270.55,267.29,10
255,270.24,267.16,10
256,269.95,267.05,10
256,269.67,266.94,10
254,269.36,266.81,10
254,269.05,266.68,10
254,268.75,266.56,10
253,268.44,266.42,10
253,268.13,266.29,10
252,267.81,266.14,10
251,267.47,265.99,10
253,267.18,265.86,10
252,266.88,265.72,10
251,266.56,265.58,10
251,266.25,265.43,10
251,265.94,265.29,10
250,265.62,265.13,10
250,265.31,264.98,10
250,265.01,264.83,10
250,264.70,264.69,11
248,264.37,264.52,11
248,264.04,264.35,11
248,263.72,264.19,11
248,263.41,264.03,11
248,263.10,263.87,11
248,262.80,263.71,11
248,262.50,263.55,11
247,262.19,263.39,11
246,261.87,263.21,11
246,261.55,263.04,11
246,261.24,262.87,11
245,260.91,262.69,11
245,260.60,262.51,11
245,260.28,262.34,11
244,259.96,262.16,11
244,259.64,261.97,11
243,259.31,261.78,11
242,258.96,261.59,11
243,258.64,261.40,11
243,258.33,261.22,11
242,258.00,261.02,11
241,257.66,260.82,11
243,257.37,260.65,11
241,257.04,260.45,11
241,256.72,260.26,11
240,256.39,260.05,11
241,256.08,259.86,11
240,255.76,259.66,11
240,255.44,259.47,11
239,255.11,259.26,11
239,254.79,259.06,11
238,254.46,258.85,11
239,254.15,258.65,11
238,253.82,258.44,11
237,253.49,258.23,11
237,253.16,258.02,11
236,252.81,257.80,11
237,252.50,257.59,11
235,252.15,257.36,11
236,251.82,257.15,11
234,251.47,256.92,11
234,251.12,256.69,11
233,250.76,256.45,11
234,250.42,256.23,11
235,250.11,256.02,11
235,249.81,255.81,11
233,249.47,255.58,11
232,249.12,255.34,11
232,248.78,255.11,11
234,248.49,254.90,11
232,248.16,254.67,11
234,247.87,254.46,11
232,247.56,254.24,11
232,247.25,254.01,11
230,246.90,253.77,11
230,246.56,253.54,11
230,246.23,253.30,11
230,245.91,253.07,11
229,245.57,252.83,11
230,245.26,252.60,11
229,244.93,252.36,11
229,244.61,252.13,11
229,244.30,251.90,11
229,243.99,251.67,11
228,243.68,251.43,11
228,243.36,251.20,11
228,243.05,250.97,11
228,242.75,250.74,11
228,242.46,250.51,11
228,242.17,250.28,11
226,241.85,250.04,11
226,241.53,249.80,11
226,241.22,249.56,11
225,240.89,249.32,11
225,240.58,249.07,11
225,240.26,248.83,11
226,239.98,248.60,11
225,239.68,248.37,11
224,239.37,248.13,11
223,239.04,247.87,11
223,238.72,247.63,11
223,238.40,247.38,11
223,238.10,247.14,11
223,237.79,246.89,11
222,237.48,246.64,11
223,237.19,246.41,11
219,236.82,246.13,11
221,236.51,245.88,11
221,236.20,245.63,11
220,235.87,245.38,11
220,235.56,245.12,11
220,235.25,244.87,11
220,234.94,244.62,11
221,234.66,244.39,11
218,234.33,244.12,11
218,234.00,243.86,11
219,233.70,243.61,11
219,233.41,243.37,11
219,233.12,243.12,11
219,232.84,242.88,11
219,232.56,242.64,11
219,232.29,242.41,11
218,232.00,242.16,11
218,231.72,241.92,11
218,231.45,241.68,11
218,231.18,241.45,11
217,230.90,241.20,11
219,230.66,240.98,11
218,230.41,240.75,11
217,230.14,240.51,11
217,229.87,240.28,11
216,229.60,240.03,11
216,229.33,239.79,11
216,229.06,239.56,11
216,228.80,239.32,11
216,228.54,239.09,11
216,228.29,238.86,11
215,228.02,238.62,11
214,227.74,238.37,11
215,227.49,238.14,11
218,227.30,237.94,11
214,227.03,237.70,11
215,226.79,237.47,11
215,226.56,237.25,11
215,226.33,237.02,11
214,226.08,236.79,11
214,225.84,236.56,11
214,225.60,236.34,11
215,225.39,236.13,11
214,225.16,235.90,11
213,224.92,235.68,11
214,224.70,235.46,11
212,224.45,235.22,11
213,224.22,235.00,11
210,223.93,234.75,11
211,223.67,234.51,11
211,223.42,234.28,11
211,223.17,234.05,11
212,222.95,233.83,11
212,222.73,233.61,11
211,222.49,233.38,11
210,222.25,233.15,11
209,221.98,232.91,11
210,221.74,232.68,11
210,221.51,232.45,11
209,221.26,232.22,11
210,221.03,231.99,11
209,220.79,231.76,11
209,220.55,231.54,11
210,220.34,231.32,11
209,220.12,231.10,11
208,219.87,230.87,11
208,219.64,230.64,11
207,219.38,230.40,11
207,219.14,230.17,11
207,218.89,229.94,11
207,218.66,229.71,11
207,218.42,229.48,11
206,218.17,229.24,11
206,217.93,229.01,11
206,217.69,228.78,11
206,217.46,228.55,11
205,217.21,228.32,11
205,216.96,228.09,11
205,216.73,227.85,11
206,216.51,227.64,11
206,216.30,227.42,11
204,216.05,227.19,11
204,215.81,226.95,11
203,215.56,226.71,11
204,215.33,226.49,11
204,215.10,226.26,11
203,214.86,226.03,11
204,214.64,225.81,11
202,214.39,225.57,11
202,214.14,225.34,11
201,213.88,225.09,11
201,213.62,224.85,11
201,213.37,224.61,11
201,213.12,224.38,11
202,212.90,224.15,11
202,212.68,223.93,11
200,212.43,223.69,11
200,212.18,223.46,11
199,211.91,223.21,11
199,211.66,222.97,11
199,211.40,222.73,11
199,211.15,222.49,11
202,210.97,222.29,11
199,210.73,222.05,11
198,210.48,221.81,11
195,210.17,221.55,11
198,209.92,221.31,11
198,209.69,221.08,11
198,209.45,220.85,11
198,209.22,220.62,11
197,208.98,220.38,11
199,208.78,220.17,11
196,208.52,219.93,11
195,208.25,219.68,11
197,208.03,219.45,11
197,207.81,219.23,11
196,207.57,218.99,11
196,207.34,218.76,11
199,207.17,218.57,11
198,206.99,218.36,11
195,206.75,218.13,11
195,206.51,217.89,11
195,206.28,217.67,11
195,206.06,217.44,11
194,205.82,217.20,11
194,205.58,216.97,11
193,205.33,216.73,11
194,205.10,216.51,11
194,204.88,216.28,11
193,204.64,216.05,11
193,204.41,215.82,11
193,204.18,215.59,11
193,203.96,215.36,11
193,203.74,215.14,11
194,203.54,214.93,11
195,203.37,214.73,11
192,203.15,214.50,11
192,202.92,214.28,11
193,202.72,214.06,11
193,202.53,213.85,11
192,202.32,213.63,11
193,202.13,213.43,11
195,201.99,213.24,11
194,201.83,213.05,11
191,201.61,212.83,11
191,201.40,212.61,11
191,201.19,212.40,11
192,201.01,212.19,11
190,200.79,211.97,11
191,200.59,211.76,11
193,200.44,211.57,11
190,200.23,211.36,11
190,200.03,211.14,11
189,199.81,210.92,11
189,199.59,210.70,11
189,199.38,210.49,11
188,199.15,210.26,11
190,198.97,210.06,11
189,198.77,209.85,11
190,198.59,209.65,11
188,198.38,209.43,11
187,198.16,209.21,11
190,197.99,209.02,11
189,197.81,208.82,11
188,197.62,208.61,11
189,197.44,208.41,11
192,197.33,208.25,11
190,197.19,208.07,11
187,196.98,207.86,11
187,196.78,207.65,11
187,196.59,207.44,11
187,196.40,207.24,11
186,196.19,207.02,11
186,195.99,206.81,11
190,195.87,206.65,11
188,195.71,206.46,11
186,195.51,206.25,11
186,195.32,206.05,11
186,195.14,205.85,11
186,194.95,205.65,11
186,194.78,205.46,11
186,194.60,205.26,11
189,194.49,205.10,11
186,194.32,204.91,11
185,194.13,204.71,11
186,193.97,204.52,11
187,193.83,204.35,11
186,193.67,204.16,11
186,193.52,203.98,11
186,193.37,203.80,11
188,193.26,203.64,11
186,193.12,203.47,11
184,192.93,203.27,11
184,192.76,203.08,11
184,192.58,202.89,11
185,192.43,202.71,11
186,192.30,202.54,11
184,192.13,202.36,11
184,191.97,202.17,11
184,191.81,201.99,11
183,191.64,201.80,11
182,191.44,201.60,11
184,191.29,201.43,11
184,191.15,201.25,11
181,190.95,201.05,11
184,190.81,200.88,11
184,190.67,200.71,11
185,190.56,200.56,11
184,190.43,200.39,11
183,190.28,200.22,11
184,190.15,200.05,11
184,190.03,199.89,11
185,189.93,199.74,11
184,189.81,199.59,11
184,189.69,199.43,11
184,189.58,199.28,11
183,189.45,199.11,11
182,189.30,198.94,11
182,189.15,198.77,11
183,189.03,198.62,11
183,188.91,198.46,11
183,188.79,198.30,11
183,188.68,198.15,11
182,188.54,197.99,11
181,188.39,197.82,11
181,188.24,197.65,11
181,188.10,197.49,11
181,187.96,197.32,11
182,187.84,197.17,11
182,187.72,197.02,11
183,187.63,196.88,11
182,187.51,196.73,11
181,187.38,196.57,11
181,187.26,196.41,11
183,187.17,196.28,11
182,187.07,196.14,11
182,186.97,196.00,11
182,186.87,195.86,11
182,186.77,195.72,11
182,186.67,195.58,11
181,186.56,195.43,11
180,186.43,195.28,11
181,186.32,195.14,11
181,186.21,195.00,11
180,186.09,194.85,11
179,185.95,194.69,11
180,185.83,194.54,11
180,185.71,194.39,11
179,185.58,194.24,11
180,185.47,194.10,11
181,185.38,193.97,11
179,185.25,193.82,11
181,185.16,193.69,11
179,185.04,193.54,11
180,184.94,193.41,11
179,184.82,193.26,11
179,184.71,193.12,11
179,184.59,192.98,11
179,184.48,192.84,11
179,184.37,192.70,11
178,184.24,192.55,11
178,184.12,192.41,11
178,184.00,192.26,11
178,183.88,192.12,11
176,183.72,191.96,11
177,183.58,191.81,11
177,183.45,191.66,11
177,183.32,191.52,11
176,183.18,191.36,11
176,183.03,191.21,11
176,182.89,191.06,11
176,182.75,190.91,11
175,182.60,190.75,11
175,182.45,190.59,11
176,182.32,190.44,11
175,182.17,190.29,11
175,182.03,190.14,11
175,181.89,189.98,11
174,181.73,189.82,11
175,181.60,189.68,11
175,181.46,189.53,11
175,181.33,189.38,11
174,181.19,189.23,11
175,181.06,189.09,11
174,180.92,188.94,11
174,180.78,188.79,11
174,180.65,188.64,11
174,180.52,188.49,11
173,180.37,188.34,11
172,180.20,188.17,11
172,180.03,188.01,11
173,179.89,187.86,11
173,179.76,187.71,11
173,179.62,187.57,11
172,179.47,187.41,11
172,179.32,187.26,11
172,179.17,187.10,11
173,179.05,186.96,11
172,178.91,186.81,11
172,178.77,186.67,11
171,178.61,186.51,11
171,178.46,186.35,11
171,178.31,186.20,11
171,178.17,186.05,11
171,178.02,185.90,11
172,177.90,185.76,11
172,177.78,185.62,11
171,177.65,185.48,11
171,177.52,185.33,11
171,177.39,185.19,11
171,177.26,185.05,11
171,177.13,184.91,11
171,177.01,184.77,11
171,176.89,184.63,11
171,176.77,184.49,11
171,176.66,184.36,11
171,176.54,184.22,11
171,176.43,184.09,11
171,176.32,183.96,11
171,176.22,183.83,11
172,176.13,183.71,11
172,176.05,183.60,11
171,175.95,183.47,11
172,175.87,183.35,11
171,175.77,183.23,11
171,175.68,183.11,11
168,175.52,182.96,11
171,175.43,182.84,11
171,175.35,182.72,11
171,175.26,182.60,11
170,175.15,182.48,11
170,175.05,182.35,11
170,174.95,182.23,11
170,174.85,182.11,11
169,174.73,181.98,11
169,174.62,181.85,11
170,174.53,181.73,11
169,174.42,181.60,11
169,174.31,181.47,11
169,174.20,181.35,11
169,174.10,181.23,11
169,174.00,181.10,11
169,173.90,180.98,11
169,173.80,180.86,11
169,173.70,180.74,11
169,173.61,180.63,11
169,173.52,180.51,11
168,173.40,180.39,11
168,173.30,180.26,11
168,173.19,180.14,11
168,173.09,180.02,11
168,172.99,179.90,11
168,172.89,179.78,11
168,172.79,179.66,11
168,172.69,179.54,11
167,172.58,179.42,11
166,172.45,179.28,11
166,172.32,179.15,11
166,172.19,179.02,11
166,172.07,178.89,11
165,171.93,178.75,11
164,171.77,178.60,11
165,171.63,178.47,11
166,171.52,178.34,11
164,171.37,178.20,11
165,171.24,178.07,11
165,171.12,177.94,11
165,170.99,177.81,11
163,170.83,177.66,11
164,170.70,177.52,11
163,170.54,177.38,11
165,170.43,177.25,11
165,170.32,177.13,11
165,170.22,177.01,11
165,170.11,176.89,11
164,169.99,176.76,11
164,169.87,176.63,11
164,169.75,176.51,11
164,169.64,176.38,11
164,169.53,176.26,11
163,169.40,176.13,11
164,169.29,176.00,11
163,169.16,175.87,11
163,169.04,175.75,11
164,168.94,175.63,11
164,168.84,175.51,11
163,168.72,175.39,11
162,168.59,175.25,11
162,168.46,175.12,11
162,168.33,174.99,11
161,168.18,174.85,11
161,168.04,174.71,11
161,167.90,174.57,11
162,167.78,174.45,11
161,167.64,174.31,11
160,167.49,174.17,11
160,167.34,174.03,11
160,167.19,173.89,11
160,167.05,173.75,11
159,166.89,173.60,11
161,166.77,173.48,11
161,166.66,173.35,11
161,166.54,173.23,11
161,166.43,173.11,11
161,166.32,172.98,11
161,166.22,172.86,11
160,166.09,172.74,11
161,165.99,172.62,11
162,165.91,172.51,11
161,165.81,172.40,11
160,165.70,172.27,11
159,165.56,172.14,11
159,165.43,172.01,11
159,165.30,171.88,11
159,165.18,171.75,11
159,165.05,171.62,11
160,164.95,171.51,11
160,164.85,171.39,11
159,164.74,171.27,11
159,164.62,171.14,11
159,164.51,171.02,11
159,164.40,170.90,11
159,164.29,170.78,11
159,164.18,170.67,11
159,164.08,170.55,11
159,163.98,170.43,11
159,163.88,170.32,11
158,163.76,170.20,11
158,163.65,170.07,11
158,163.53,169.95,11
158,163.42,169.83,11
157,163.29,169.71,11
158,163.19,169.59,11
158,163.08,169.47,11
158,162.98,169.36,11
157,162.86,169.23,11
157,162.75,169.11,11
157,162.63,168.99,11
156,162.50,168.86,11
156,162.37,168.73,11
155,162.22,168.60,11
157,162.12,168.48,11
157,162.01,168.36,11
156,161.89,168.24,11
155,161.76,168.11,11
156,161.64,167.99,11
155,161.51,167.86,11
155,161.38,167.73,11
156,161.27,167.61,11
156,161.17,167.50,11
154,161.02,167.36,11
156,160.92,167.25,11
155,160.80,167.12,11
156,160.71,167.01,11
155,160.59,166.89,11
155,160.48,166.77,11
156,160.39,166.67,11
158,160.34,166.58,11
156,160.26,166.47,11
155,160.15,166.36,11
155,160.05,166.25,11
155,159.95,166.13,11
154,159.83,166.01,11
155,159.73,165.90,11
156,159.66,165.80,11
156,159.58,165.70,11
154,159.47,165.59,11
154,159.36,165.47,11
154,159.26,165.36,11
154,159.15,165.24,11
153,159.03,165.12,11
153,158.91,165.00,11
154,158.81,164.89,11
153,158.69,164.77,11
153,158.58,164.65,11
152,158.45,164.53,11
153,158.34,164.41,11
152,158.21,164.29,11
152,158.09,164.16,11
152,157.97,164.04,11
153,157.87,163.93,11
153,157.77,163.82,11
153,157.67,163.71,11
153,157.58,163.61,11
153,157.49,163.50,11
153,157.40,163.40,11
153,157.31,163.29,11
153,157.22,163.19,11
153,157.14,163.09,11
155,157.10,163.01,11
153,157.02,162.91,11
153,156.94,162.81,11
153,156.86,162.71,11
153,156.78,162.61,11
153,156.70,162.52,11
153,156.63,162.42,11
154,156.58,162.34,11
153,156.51,162.24,11
154,156.46,162.16,11
154,156.41,162.08,11
155,156.38,162.01,11
154,156.33,161.93,11
156,156.32,161.87,11
155,156.30,161.80,11
155,156.27,161.73,11
156,156.27,161.68,11
155,156.24,161.61,11
155,156.22,161.54,11
155,156.19,161.48,11
155,156.17,161.41,11
155,156.14,161.35,11
154,156.10,161.27,11
152,156.02,161.18,11
154,155.98,161.11,11
154,155.94,161.04,11
154,155.90,160.97,11
155,155.88,160.91,11
154,155.85,160.84,11
154,155.81,160.77,11
154,155.77,160.70,11
154,155.74,160.64,11
154,155.70,160.57,11
154,155.67,160.50,11
154,155.63,160.44,11
155,155.62,160.39,11
154,155.59,160.32,11
154,155.56,160.26,11
154,155.53,160.20,11
154,155.50,160.13,11
154,155.47,160.07,11
154,155.44,160.01,11
153,155.39,159.94,11
154,155.36,159.88,11
153,155.31,159.81,11
154,155.29,159.76,11
153,155.24,159.69,11
154,155.22,159.63,11
152,155.15,159.55,11
153,155.11,159.49,11
152,155.05,159.41,11
153,155.01,159.35,11
153,154.97,159.29,11
153,154.93,159.22,11
152,154.87,159.15,11
153,154.83,159.09,11
153,154.79,159.03,11
152,154.74,158.96,11
150,154.64,158.87,11
153,154.61,158.81,11
153,154.58,158.75,11
153,154.55,158.69,11
153,154.52,158.64,11
153,154.49,158.58,11
154,154.48,158.54,11
153,154.45,158.48,11
153,154.42,158.43,11
154,154.41,158.38,11
153,154.38,158.33,11
153,154.35,158.27,11
153,154.33,158.22,11
153,154.30,158.17,11
153,154.27,158.12,11
153,154.25,158.07,11
153,154.22,158.02,11
153,154.20,157.97,11
153,154.17,157.92,11
153,154.15,157.87,11
153,154.13,157.82,11
153,154.11,157.77,11
153,154.08,157.72,11
153,154.06,157.67,11
152,154.02,157.62,11
153,154.00,157.57,11
153,153.98,157.53,11
153,153.96,157.48,11
153,153.94,157.44,11
153,153.92,157.39,11
153,153.90,157.35,11
153,153.89,157.30,11
152,153.85,157.25,11
152,153.81,157.20,11
152,153.78,157.15,11
152,153.74,157.10,11
152,153.70,157.04,11
152,153.67,156.99,11
152,153.64,156.94,11
153,153.62,156.90,11
152,153.59,156.86,11
153,153.58,156.82,11
153,153.57,156.78,11
152,153.54,156.73,11
152,153.51,156.68,11
151,153.46,156.63,11
152,153.43,156.58,11
152,153.40,156.53,11
153,153.39,156.50,11
153,153.38,156.46,11
153,153.38,156.43,11
153,153.37,156.40,11
154,153.38,156.37,11
153,153.37,156.34,11
154,153.39,156.31,11
154,153.40,156.29,11
154,153.41,156.27,11
155,153.44,156.26,11
154,153.45,156.23,11
155,153.48,156.22,11
154,153.49,156.20,11
155,153.52,156.19,11
155,153.55,156.17,11
155,153.58,156.16,11
155,153.61,156.15,11
155,153.64,156.14,11
154,153.65,156.12,11
154,153.65,156.10,11
154,153.66,156.08,11
154,153.67,156.06,11
155,153.69,156.05,11
155,153.72,156.03,11
155,153.75,156.02,11
155,153.77,156.01,11
154,153.77,155.99,11
156,153.82,155.99,11
155,153.84,155.98,11
154,153.85,155.96,11
155,153.87,155.95,11
156,153.91,155.95,11
155,153.93,155.95,11
158,154.01,155.97,11
157,154.07,155.98,11
157,154.13,155.99,11
157,154.19,156.00,11
155,154.21,155.99,11
155,154.22,155.98,11
156,154.26,155.98,11
157,154.31,155.99,11
157,154.37,156.00,11
157,154.42,156.01,11
155,154.43,156.00,11
158,154.50,156.02,11
158,154.57,156.04,11
158,154.64,156.06,11
158,154.71,156.08,11
157,154.75,156.09,11
159,154.84,156.11,11
158,154.90,156.13,11
157,154.94,156.14,11
158,155.01,156.16,11
158,155.07,156.18,11
157,155.10,156.19,11
157,155.14,156.20,11
157,155.18,156.20,11
157,155.22,156.21,11
157,155.25,156.22,11
157,155.29,156.23,11
158,155.34,156.25,11
157,155.37,156.25,11
157,155.41,156.26,11
157,155.44,156.27,11
156,155.45,156.26,11
157,155.48,156.27,11
156,155.49,156.27,11
157,155.52,156.28,11
156,155.53,156.27,11
156,155.54,156.27,11
155,155.53,156.26,11
157,155.56,156.27,11
157,155.59,156.27,11
158,155.64,156.29,11
158,155.68,156.31,11
159,155.75,156.33,11
158,155.79,156.35,11
159,155.86,156.38,11
158,155.90,156.39,11
158,155.94,156.41,11
158,155.98,156.43,11
159,156.04,156.45,11
158,156.08,156.47,11
157,156.10,156.47,11
158,156.14,156.49,11
158,156.18,156.50,11
158,156.21,156.52,11
158,156.25,156.53,11
159,156.30,156.56,11
159,156.36,156.58,11
159,156.41,156.61,11
160,156.48,156.64,11
159,156.53,156.66,11
159,156.58,156.69,12
158,156.61,156.70,12
158,156.64,156.71,13
158,156.67,156.73,13
158,156.69,156.74,14
159,156.74,156.76,14
158,156.76,156.77,15
158,156.79,156.79,15
158,156.81,156.80,16
159,156.86,156.82,16
159,156.90,156.84,17
159,156.94,156.86,17
160,157.00,156.89,18
160,157.06,156.93,18
160,157.12,156.96,18
159,157.16,156.98,18
159,157.20,157.00,18
161,157.27,157.04,18
159,157.31,157.06,18
159,157.34,157.08,18
161,157.41,157.12,18
162,157.51,157.16,18
162,157.60,157.21,18
163,157.70,157.27,18
163,157.81,157.33,18
165,157.95,157.40,18
165,158.09,157.48,18
165,158.23,157.56,18
166,158.39,157.64,18
166,158.54,157.72,18
166,158.69,157.81,18
166,158.84,157.89,18
166,158.98,157.97,18
166,159.12,158.05,18
167,159.28,158.14,18
166,159.41,158.22,18
168,159.58,158.32,18
167,159.73,158.40,18
166,159.86,158.48,18
166,159.98,158.55,18
167,160.12,158.64,18
167,160.26,158.72,18
167,160.39,158.80,18
166,160.50,158.88,18
167,160.63,158.96,18
164,160.70,159.01,18
166,160.81,159.08,18
166,160.91,159.15,18
166,161.01,159.22,18
165,161.09,159.27,18
165,161.17,159.33,18
165,161.25,159.39,18
166,161.34,159.45,18
166,161.44,159.52,18
165,161.51,159.57,18
166,161.60,159.64,18
166,161.69,159.70,18
166,161.77,159.77,18
166,161.86,159.83,18
165,161.92,159.88,18
166,162.00,159.94,18
165,162.06,159.99,18
166,162.14,160.05,18
165,162.20,160.10,18
165,162.25,160.15,18
167,162.35,160.22,18
167,162.44,160.29,18
167,162.53,160.35,18
168,162.64,160.43,18
169,162.77,160.52,18
170,162.91,160.61,18
169,163.03,160.69,18
169,163.15,160.78,18
169,163.27,160.86,18
171,163.43,160.96,18
171,163.58,161.06,18
170,163.71,161.15,18
172,163.87,161.26,18
170,163.99,161.35,18
171,164.13,161.44,18
169,164.23,161.52,18
171,164.37,161.61,18
171,164.50,161.71,18
172,164.65,161.81,18
174,164.84,161.93,18
171,164.96,162.02,18
171,165.08,162.11,18
171,165.20,162.20,18
171,165.31,162.29,18
172,165.45,162.39,18
171,165.56,162.47,18
171,165.67,162.56,18
171,165.78,162.64,18
171,165.88,162.73,18
171,165.98,162.81,18
171,166.08,162.89,18
171,166.18,162.97,18
171,166.28,163.05,18
170,166.35,163.12,18
171,166.44,163.20,18
171,166.54,163.28,18
172,166.64,163.37,18
171,166.73,163.44,18
172,166.84,163.53,18
173,166.96,163.62,18
174,167.10,163.73,18
175,167.26,163.84,18
173,167.37,163.93,18
174,167.51,164.03,18
174,167.64,164.13,18
176,167.80,164.25,18
177,167.99,164.38,18
177,168.17,164.50,18
178,168.36,164.64,18
178,168.56,164.77,18
177,168.73,164.89,18
180,168.95,165.05,18
180,169.17,165.19,18
181,169.41,165.35,18
182,169.66,165.52,18
181,169.89,165.67,18
182,170.13,165.84,18
183,170.39,166.01,18
183,170.64,166.18,18
183,170.89,166.35,18
183,171.13,166.51,18
183,171.37,166.68,18
185,171.64,166.86,18
184,171.89,167.03,18
185,172.15,167.21,18
186,172.43,167.40,18
187,172.72,167.60,18
186,172.98,167.78,18
186,173.24,167.96,18
187,173.52,168.15,18
188,173.81,168.35,18
188,174.09,168.55,18
188,174.37,168.74,18
189,174.66,168.95,18
189,174.95,169.15,18
190,175.25,169.35,18
191,175.57,169.57,18
191,175.87,169.79,18
190,176.16,169.99,18
190,176.43,170.19,18
191,176.72,170.40,18
192,177.03,170.61,18
193,177.35,170.84,18
194,177.68,171.07,18
196,178.05,171.32,18
197,178.43,171.57,18
199,178.84,171.85,18
201,179.28,172.14,18
203,179.76,172.45,18
205,180.26,172.77,18
204,180.74,173.09,18
203,181.18,173.38,18
203,181.62,173.68,18
202,182.03,173.96,18
205,182.49,174.27,18
205,182.94,174.58,18
209,183.46,174.93,18
205,183.89,175.23,18
205,184.31,175.52,18
203,184.68,175.80,18
205,185.09,176.09,18
205,185.49,176.38,18
205,185.88,176.67,18
205,186.26,176.95,18
206,186.66,177.24,18
206,187.04,177.53,18
208,187.46,177.83,18
212,187.95,178.17,18
209,188.37,178.48,18
210,188.81,178.80,18
210,189.23,179.11,18
211,189.67,179.43,18
213,190.13,179.76,18
212,190.57,180.09,18
213,191.02,180.42,18
214,191.48,180.75,18
215,191.95,181.09,18
216,192.43,181.44,18
217,192.92,181.80,18
217,193.40,182.15,18
217,193.87,182.50,18
217,194.34,182.84,18
217,194.79,183.19,18
218,195.25,183.53,18
219,195.73,183.89,18
219,196.19,184.24,18
219,196.65,184.59,18
219,197.10,184.93,18
220,197.56,185.28,18
223,198.06,185.66,18
223,198.56,186.03,18
223,199.05,186.40,18
226,199.59,186.80,18
228,200.16,187.21,18
228,200.72,187.62,18
228,201.26,188.02,18
230,201.84,188.44,18
233,202.46,188.89,18
233,203.07,189.33,18
232,203.65,189.76,18
233,204.24,190.19,18
233,204.81,190.62,18
233,205.38,191.04,18
233,205.93,191.46,18
235,206.51,191.89,18
237,207.12,192.35,18
239,207.76,192.81,18
239,208.38,193.27,18
239,208.99,193.73,18
239,209.59,194.18,18
239,210.18,194.63,18
241,210.80,195.10,18
242,211.42,195.57,18
245,212.09,196.06,18
243,212.71,196.53,18
245,213.36,197.01,18
246,214.01,197.50,18
246,214.65,197.99,18
246,215.28,198.47,18
245,215.87,198.93,18
245,216.45,199.39,18
249,217.11,199.89,18
250,217.76,200.39,18
249,218.39,200.88,18
249,219.00,201.36,18
248,219.58,201.83,18
250,220.19,202.31,18
251,220.80,202.79,18
252,221.43,203.29,18
253,222.06,203.78,18
255,222.72,204.30,18
257,223.40,204.82,18
256,224.06,205.33,18
256,224.70,205.84,18
256,225.32,206.34,18
257,225.96,206.85,18
259,226.62,207.37,18
258,227.24,207.88,18
258,227.86,208.38,18
259,228.48,208.88,18
259,229.09,209.39,18
260,229.71,209.89,18
259,230.30,210.38,18
260,230.89,210.88,18
260,231.47,211.37,18
260,232.04,211.86,18
260,232.60,212.34,18
260,233.15,212.81,18
260,233.69,213.29,18
259,234.19,213.74,18
259,234.69,214.20,18
261,235.22,214.66,18
264,235.79,215.16,18
263,236.34,215.64,18
264,236.89,216.12,18
266,237.47,216.62,18
267,238.06,217.12,18
268,238.66,217.63,18
267,239.23,218.12,18
268,239.80,218.62,18
270,240.41,219.14,18
267,240.94,219.62,18
268,241.48,220.10,18
268,242.01,220.58,18
267,242.51,221.04,18
267,243.00,221.50,18
268,243.50,221.97,18
270,244.03,222.45,18
270,244.55,222.92,18
269,245.04,223.38,18
269,245.52,223.84,18
269,245.99,224.29,18
269,246.45,224.74,18
270,246.92,225.19,18
270,247.38,225.64,18
270,247.83,226.08,18
271,248.30,226.53,18
272,248.77,226.99,18
274,249.27,227.46,18
273,249.75,227.91,18
275,250.25,228.38,18
278,250.81,228.88,18
280,251.39,229.39,18
279,251.94,229.89,18
279,252.49,230.38,18
282,253.08,230.89,18
280,253.61,231.39,18
279,254.12,231.86,18
279,254.62,232.33,18
279,255.11,232.80,18
278,255.57,233.25,18
278,256.01,233.70,18
280,256.49,234.16,18
283,257.02,234.65,18
282,257.52,235.12,18
282,258.01,235.59,18
283,258.51,236.07,18
287,259.08,236.58,18
289,259.68,237.10,18
288,260.25,237.61,18
289,260.82,238.12,18
288,261.37,238.62,18
290,261.94,239.14,18
287,262.44,239.61,18
287,262.93,240.09,18
288,263.43,240.57,18
287,263.90,241.03,18
286,264.35,241.48,18
287,264.80,241.94,18
288,265.26,242.40,18
287,265.70,242.84,18
283,266.04,243.24,18
283,266.38,243.64,18
283,266.72,244.04,18
284,267.06,244.44,18
284,267.40,244.83,18
282,267.69,245.20,18
285,268.04,245.60,18
282,268.32,245.96,18
281,268.57,246.32,18
281,268.82,246.66,18
281,269.06,247.01,18
280,269.28,247.34,18
280,269.50,247.66,18
280,269.71,247.99,18
282,269.95,248.33,18
279,270.13,248.63,18
277,270.27,248.92,18
277,270.41,249.20,18
276,270.52,249.46,18
276,270.63,249.73,18
274,270.69,249.97,18
276,270.80,250.23,18
275,270.88,250.48,18
274,270.95,250.72,18
273,270.99,250.94,18
273,271.03,251.16,18
272,271.05,251.37,18
272,271.07,251.57,18
271,271.07,251.77,18
273,271.10,251.98,18
271,271.10,252.17,18
271,271.10,252.36,18
270,271.08,252.54,18
270,271.06,252.71,18
270,271.04,252.88,18
269,270.99,253.04,18
269,270.95,253.20,18
269,270.92,253.36,18
267,270.84,253.50,18
268,270.78,253.64,18
267,270.70,253.78,18
267,270.63,253.91,18
267,270.56,254.04,18
266,270.47,254.16,18
267,270.40,254.29,18
267,270.33,254.42,18
267,270.26,254.54,18
267,270.20,254.67,18
267,270.13,254.79,18
267,270.07,254.91,18
267,270.01,255.03,18
267,269.95,255.15,18
267,269.89,255.27,18
266,269.81,255.38,18
268,269.78,255.50,18
266,269.70,255.61,18
265,269.61,255.70,18
265,269.51,255.80,18
264,269.40,255.88,18
264,269.30,255.96,18
262,269.15,256.02,18
262,269.01,256.08,18
263,268.89,256.15,18
263,268.77,256.22,18
262,268.63,256.27,18
262,268.50,256.33,18
265,268.43,256.42,18
261,268.28,256.46,18
261,268.14,256.51,18
260,267.97,256.54,18
261,267.83,256.59,18
260,267.68,256.62,18
260,267.52,256.66,18
259,267.35,256.68,18
259,267.19,256.70,18
258,267.00,256.72,18
258,266.82,256.73,18
257,266.63,256.73,18
257,266.43,256.73,18
256,266.23,256.73,18
257,266.04,256.73,18
257,265.86,256.73,18
256,265.66,256.73,18
256,265.47,256.72,18
255,265.26,256.70,18
256,265.08,256.69,18
254,264.85,256.67,18
254,264.64,256.64,18
253,264.40,256.60,18
253,264.18,256.57,18
253,263.95,256.53,18
253,263.73,256.50,18
253,263.52,256.46,18
253,263.31,256.43,18
251,263.06,256.37,18
251,262.82,256.32,18
251,262.58,256.27,18
251,262.35,256.21,18
250,262.11,256.15,18
251,261.88,256.10,18
251,261.67,256.05,18
251,261.45,256.00,18
250,261.22,255.94,18
250,261.00,255.88,18
249,260.76,255.81,18
249,260.52,255.74,18
249,260.29,255.67,18
249,260.07,255.61,18
249,259.85,255.54,18
248,259.61,255.47,18
248,259.38,255.39,18
248,259.15,255.32,18
248,258.93,255.24,18
247,258.69,255.16,18
247,258.45,255.08,18
247,258.23,255.00,18
246,257.98,254.91,18
246,257.74,254.82,18
246,257.51,254.73,18
245,257.26,254.64,18
245,257.01,254.54,18
245,256.77,254.44,18
244,256.52,254.34,18
243,256.25,254.23,18
243,255.98,254.11,18
242,255.70,253.99,18
243,255.45,253.88,18
243,255.20,253.77,18
243,254.95,253.67,18
242,254.69,253.55,18
242,254.44,253.43,18
241,254.17,253.31,18
241,253.91,253.19,18
241,253.65,253.06,18
241,253.40,252.94,18
240,253.13,252.81,18
239,252.85,252.68,18
239,252.57,252.54,19
239,252.30,252.40,19
240,252.05,252.28,19
238,251.77,252.14,19
238,251.50,252.00,19
238,251.23,251.86,19
238,250.96,251.72,19
237,250.68,251.57,19
238,250.43,251.43,19
237,250.16,251.29,19
236,249.88,251.14,19
236,249.60,250.99,19
235,249.31,250.83,19
235,249.02,250.67,19
235,248.74,250.51,19
235,248.47,250.36,19
234,248.18,250.19,19
235,247.91,250.04,19
235,247.66,249.89,19
234,247.38,249.73,19
234,247.11,249.57,19
234,246.85,249.42,19
233,246.57,249.25,19
233,246.30,249.09,19
233,246.04,248.93,19
233,245.78,248.77,19
233,245.52,248.61,19
231,245.23,248.44,19
231,244.95,248.26,19
231,244.67,248.09,19
231,244.39,247.92,19
230,244.11,247.74,19
231,243.84,247.57,19
230,243.57,247.40,19
229,243.28,247.21,19
229,242.99,247.03,19
228,242.69,246.84,19
228,242.40,246.65,19
227,242.09,246.46,19
228,241.81,246.27,19
228,241.53,246.09,19
228,241.26,245.91,19
227,240.97,245.72,19
225,240.66,245.51,19
226,240.36,245.32,19
224,240.04,245.10,19
225,239.73,244.90,19
225,239.44,244.70,19
225,239.15,244.51,19
225,238.87,244.31,19
225,238.59,244.12,19
223,238.28,243.91,19
223,237.97,243.70,19
223,237.67,243.49,19
223,237.38,243.29,19
223,237.09,243.08,19
223,236.81,242.88,19
221,236.49,242.66,19
222,236.20,242.46,19
221,235.90,242.24,19
221,235.60,242.03,19
221,235.31,241.82,19
220,235.00,241.60,19
220,234.70,241.39,19
221,234.43,241.18,19
219,234.12,240.96,19
219,233.82,240.74,19
219,233.52,240.52,19
219,233.23,240.31,19
216,232.89,240.06,19
218,232.59,239.84,19
219,232.32,239.64,19
218,232.03,239.42,19
217,231.73,239.19,19
218,231.46,238.98,19
216,231.15,238.75,19
217,230.86,238.54,19
216,230.57,238.31,19
216,230.28,238.09,19
217,230.01,237.88,19
218,229.77,237.68,19
217,229.51,237.47,19
216,229.24,237.26,19
214,228.94,237.02,19
214,228.64,236.79,19
214,228.35,236.57,19
214,228.06,236.34,19
214,227.78,236.12,19
214,227.50,235.89,19
213,227.21,235.67,19
215,226.97,235.46,19
214,226.71,235.24,19
212,226.42,235.01,19
212,226.13,234.78,19
211,225.83,234.54,19
213,225.57,234.33,19
212,225.30,234.11,19
212,225.03,233.88,19
213,224.79,233.68,19
211,224.52,233.45,19
211,224.24,233.22,19
212,224.00,233.01,19
210,223.72,232.78,19
210,223.45,232.55,19
209,223.16,232.32,19
211,222.91,232.11,19
211,222.68,231.89,19
209,222.40,231.67,19
209,222.13,231.44,19
209,221.87,231.21,19
209,221.61,230.99,19
209,221.36,230.77,19
209,221.11,230.55,19
210,220.89,230.35,19
209,220.65,230.14,19
207,220.38,229.90,19
207,220.11,229.68,19
206,219.83,229.44,19
206,219.55,229.20,19
206,219.28,228.97,19
205,219.00,228.73,19
207,218.76,228.52,19
206,218.50,228.29,19
203,218.19,228.04,19
204,217.91,227.80,19
203,217.61,227.55,19
204,217.34,227.31,19
204,217.07,227.08,19
204,216.81,226.85,19
204,216.55,226.62,19
205,216.32,226.40,19
202,216.04,226.16,19
202,215.76,225.92,19
202,215.48,225.68,19
201,215.19,225.43,19
201,214.91,225.19,19
201,214.63,224.95,19
202,214.38,224.72,19
203,214.15,224.50,19
201,213.89,224.27,19
201,213.63,224.03,19
200,213.36,223.79,19
200,213.09,223.55,19
201,212.85,223.33,19
201,212.61,223.11,19
201,212.38,222.88,19
202,212.17,222.68,19
201,211.95,222.46,19
202,211.75,222.25,19
200,211.51,222.03,19
204,211.36,221.85,19
201,211.16,221.64,19
203,210.99,221.46,19
203,210.83,221.27,19
202,210.66,221.08,19
201,210.46,220.88,19
201,210.27,220.68,19
201,210.09,220.48,19
201,209.91,220.29,19
202,209.75,220.10,19
202,209.59,219.92,19
199,209.38,219.71,19
199,209.17,219.51,19
200,208.99,219.31,19
199,208.79,219.11,19
199,208.59,218.91,19
199,208.40,218.71,19
198,208.19,218.50,19
198,207.99,218.30,19
200,207.83,218.11,19
198,207.63,217.91,19
198,207.44,217.71,19
197,207.23,217.51,19
197,207.03,217.30,19
198,206.85,217.11,19
197,206.65,216.91,19
197,206.46,216.71,19
199,206.31,216.53,19
198,206.14,216.35,19
196,205.94,216.14,19
195,205.72,215.93,19
195,205.51,215.72,19
196,205.32,215.52,19
194,205.09,215.31,19
194,204.87,215.10,19
198,204.73,214.93,19
196,204.56,214.74,19
194,204.34,214.53,19
194,204.14,214.32,19
194,203.94,214.12,19
194,203.74,213.92,19
192,203.50,213.70,19
194,203.31,213.50,19
195,203.15,213.32,19
195,202.98,213.13,19
194,202.80,212.94,19
194,202.63,212.75,19
194,202.45,212.57,19
194,202.29,212.38,19
193,202.10,212.19,19
194,201.94,212.01,19
193,201.76,211.82,19
194,201.60,211.64,19
192,201.41,211.44,19
192,201.22,211.25,19
193,201.06,211.06,19
193,200.90,210.88,19
192,200.72,210.69,19
192,200.55,210.51,19
194,200.41,210.34,19
193,200.27,210.17,19
192,200.10,209.99,19
192,199.94,209.81,19
193,199.80,209.64,19
193,199.66,209.47,19
192,199.51,209.30,19
192,199.36,209.12,19
193,199.23,208.96,19
191,199.07,208.78,19
192,198.93,208.62,19
191,198.77,208.44,19
192,198.63,208.28,19
192,198.50,208.11,19
190,198.33,207.93,19
191,198.18,207.76,19
190,198.02,207.58,19
190,197.86,207.41,19
190,197.70,207.23,19
189,197.53,207.05,19
190,197.38,206.88,19
191,197.25,206.72,19
190,197.11,206.56,19
190,196.96,206.39,19
191,196.84,206.24,19
190,196.71,206.07,19
189,196.55,205.90,19
189,196.40,205.73,19
191,196.29,205.59,19
189,196.15,205.42,19
190,196.03,205.27,19
187,195.84,205.08,19
189,195.71,204.92,19
189,195.57,204.76,19
187,195.40,204.59,19
187,195.23,204.41,19
188,195.09,204.25,19
188,194.95,204.08,19
188,194.81,203.92,19
187,194.65,203.75,19
188,194.52,203.60,19
188,194.39,203.44,19
187,194.24,203.28,19
187,194.10,203.11,19
188,193.97,202.96,19
187,193.84,202.80,19
186,193.68,202.63,19
188,193.56,202.49,19
188,193.45,202.34,19
188,193.34,202.20,19
187,193.22,202.05,19
187,193.09,201.90,19
187,192.97,201.75,19
187,192.85,201.60,19
186,192.72,201.45,19
186,192.58,201.29,19
187,192.47,201.15,19
185,192.32,200.99,19
185,192.17,200.83,19
185,192.03,200.67,19
184,191.87,200.50,19
185,191.73,200.35,19
184,191.58,200.18,19
184,191.43,200.02,19
184,191.28,199.86,19
184,191.13,199.70,19
184,190.99,199.55,19
183,190.83,199.38,19
188,190.77,199.27,19
184,190.64,199.11,19
183,190.48,198.95,19
182,190.31,198.78,19
182,190.15,198.61,19
183,190.01,198.46,19
183,189.87,198.30,19
181,189.69,198.13,19
183,189.55,197.98,19
183,189.42,197.83,19
182,189.27,197.67,19
182,189.13,197.52,19
183,189.01,197.37,19
180,188.83,197.20,19
181,188.67,197.03,19
181,188.52,196.87,19
181,188.37,196.72,19
181,188.22,196.56,19
181,188.07,196.40,19
179,187.89,196.23,19
181,187.76,196.08,19
180,187.60,195.92,19
179,187.43,195.75,19
178,187.24,195.57,19
180,187.09,195.41,19
179,186.93,195.25,19
179,186.77,195.09,19
178,186.60,194.92,19
179,186.45,194.76,19
178,186.28,194.59,19
177,186.09,194.41,19
179,185.95,194.26,19
179,185.81,194.11,19
178,185.66,193.95,19
177,185.48,193.78,19
177,185.31,193.61,19
176,185.13,193.43,19
177,184.96,193.27,19
177,184.80,193.10,19
177,184.65,192.94,19
176,184.48,192.77,19
175,184.29,192.60,19
175,184.10,192.42,19
175,183.92,192.25,19
174,183.72,192.06,19
175,183.55,191.89,19
175,183.37,191.72,19
175,183.21,191.56,19
174,183.02,191.38,19
174,182.84,191.21,19
174,182.67,191.04,19
174,182.49,190.87,19
174,182.32,190.70,19
173,182.14,190.52,19
173,181.95,190.34,19
174,181.79,190.18,19
173,181.62,190.01,19
172,181.43,189.83,19
172,181.24,189.65,19
176,181.13,189.51,19
173,180.97,189.35,19
171,180.77,189.17,19
172,180.60,188.99,19
173,180.44,188.83,19
172,180.27,188.67,19
172,180.11,188.50,19
171,179.93,188.32,19
171,179.75,188.15,19
171,179.57,187.98,19
170,179.38,187.80,19
171,179.21,187.63,19
171,179.05,187.47,19
169,178.85,187.28,19
170,178.67,187.11,19
170,178.50,186.94,19
170,178.33,186.77,19
169,178.14,186.59,19
169,177.96,186.41,19
170,177.80,186.25,19
169,177.62,186.08,19
169,177.45,185.91,19
169,177.28,185.74,19
169,177.12,185.57,19
169,176.95,185.40,19
169,176.80,185.24,19
169,176.64,185.08,19
169,176.49,184.92,19
169,176.34,184.76,19
169,176.19,184.60,19
168,176.03,184.43,19
169,175.89,184.28,19
168,175.73,184.12,19
168,175.57,183.96,19
168,175.42,183.80,19
172,175.35,183.68,19
168,175.21,183.52,19
168,175.06,183.37,19
169,174.94,183.22,19
168,174.80,183.07,19
168,174.67,182.92,19
168,174.53,182.77,19
168,174.40,182.62,19
168,174.27,182.48,19
169,174.17,182.34,19
168,174.05,182.20,19
168,173.92,182.06,19
167,173.79,181.91,19
167,173.65,181.76,19
167,173.52,181.61,19
167,173.39,181.46,19
167,173.26,181.32,19
167,173.13,181.18,19
167,173.01,181.03,19
166,172.87,180.88,19
166,172.73,180.73,19
166,172.60,180.59,19
166,172.47,180.44,19
166,172.34,180.30,19
166,172.21,180.15,19
165,172.07,180.00,19
165,171.93,179.85,19
165,171.79,179.70,19
163,171.61,179.54,19
165,171.48,179.39,19
165,171.35,179.25,19
165,171.22,179.11,19
164,171.08,178.95,19
164,170.94,178.80,19
164,170.80,178.66,19
164,170.66,178.51,19
163,170.51,178.35,19
162,170.34,178.19,19
162,170.17,178.03,19
163,170.03,177.88,19
164,169.91,177.74,19
164,169.79,177.60,19
163,169.65,177.46,19
162,169.50,177.30,19
162,169.35,177.15,19
162,169.20,177.00,19
162,169.06,176.85,19
161,168.90,176.69,19
162,168.76,176.54,19
162,168.63,176.40,19
160,168.45,176.23,19
160,168.28,176.07,19
160,168.12,175.91,19
159,167.94,175.74,19
159,167.76,175.57,19
160,167.60,175.42,19
160,167.45,175.26,19
160,167.30,175.11,19
162,167.19,174.98,19
159,167.03,174.82,19
159,166.87,174.66,19
159,166.71,174.51,19
159,166.56,174.35,19
159,166.41,174.20,19
158,166.24,174.03,19
160,166.11,173.89,19
160,165.99,173.76,19
158,165.83,173.60,19
157,165.66,173.43,19
159,165.52,173.29,19
159,165.39,173.14,19
159,165.26,173.00,19
160,165.16,172.87,19
160,165.06,172.74,19
160,164.95,172.62,19
160,164.86,172.49,19
160,164.76,172.37,19
159,164.64,172.23,19
159,164.53,172.10,19
159,164.42,171.97,19
161,164.35,171.86,19
160,164.26,171.74,19
160,164.18,171.62,19
159,164.08,171.50,19
159,163.97,171.37,19
159,163.87,171.25,19
159,163.78,171.13,19
159,163.68,171.00,19
160,163.61,170.89,19
160,163.54,170.79,19
159,163.45,170.67,19
158,163.34,170.54,19
158,163.23,170.42,19
159,163.14,170.30,19
159,163.06,170.19,19
158,162.96,170.07,19
160,162.90,169.97,19
160,162.84,169.87,19
159,162.77,169.76,19
158,162.67,169.64,19
159,162.60,169.53,19
159,162.53,169.43,19
159,162.46,169.32,19
158,162.37,169.21,19
159,162.30,169.11,19
157,162.19,168.99,19
158,162.11,168.88,19
158,162.03,168.77,19
159,161.97,168.67,19
158,161.89,168.56,19
157,161.79,168.45,19
158,161.71,168.34,19
158,161.64,168.24,19
159,161.59,168.15,19
158,161.51,168.05,19
156,161.40,167.93,19
157,161.32,167.82,19
157,161.23,167.71,19
157,161.15,167.60,19
156,161.04,167.49,19
156,160.94,167.37,19
157,160.86,167.27,19
155,160.75,167.14,19
156,160.65,167.03,19
155,160.54,166.91,19
155,160.43,166.79,19
156,160.34,166.69,19
156,160.25,166.58,19
156,160.17,166.47,19
157,160.10,166.38,19
156,160.02,166.27,19
156,159.94,166.17,19
155,159.84,166.06,19
156,159.77,165.96,19
156,159.69,165.86,19
156,159.62,165.76,19
156,159.54,165.66,19
156,159.47,165.57,19
155,159.38,165.46,19
155,159.30,165.36,19
152,159.15,165.22,19
154,159.05,165.11,19
154,158.95,165.00,19
154,158.85,164.89,19
154,158.75,164.78,19
154,158.66,164.67,19
154,158.56,164.57,19
154,158.47,164.46,19
153,158.36,164.35,19
152,158.23,164.22,19
153,158.13,164.11,19
155,158.07,164.02,19
153,157.97,163.91,19
153,157.87,163.80,19
152,157.75,163.68,19
153,157.65,163.58,19
153,157.56,163.47,19
153,157.47,163.37,19
153,157.38,163.26,19
153,157.29,163.16,19
154,157.23,163.07,19
154,157.16,162.98,19
153,157.08,162.88,19
152,156.98,162.77,19
153,156.90,162.67,19
153,156.82,162.57,19
153,156.74,162.48,19
152,156.65,162.37,19
152,156.56,162.27,19
152,156.46,162.17,19
151,156.36,162.06,19
151,156.25,161.94,19
151,156.14,161.84,19
151,156.04,161.73,19
150,155.92,161.61,19
151,155.82,161.50,19
151,155.72,161.40,19
152,155.65,161.30,19
151,155.56,161.20,19
151,155.47,161.10,19
152,155.40,161.01,19
152,155.33,160.92,19
153,155.28,160.84,19
153,155.24,160.76,19
153,155.19,160.68,19
153,155.15,160.61,19
156,155.17,160.56,19
154,155.14,160.49,19
154,155.12,160.43,19
153,155.08,160.36,19
154,155.06,160.29,19
153,155.01,160.22,19
154,154.99,160.16,19
154,154.97,160.10,19
154,154.95,160.03,19
153,154.92,159.96,19
153,154.88,159.89,19
152,154.82,159.82,19
153,154.78,159.75,19
153,154.75,159.68,19
153,154.71,159.61,19
153,154.68,159.55,19
153,154.64,159.48,19
153,154.61,159.42,19
154,154.60,159.36,19
155,154.61,159.32,19
154,154.60,159.27,19
153,154.56,159.20,19
154,154.55,159.15,19
154,154.54,159.10,19
155,154.55,159.06,19
155,154.56,159.02,19
156,154.59,158.99,19
156,154.62,158.96,19
156,154.64,158.93,19
155,154.65,158.89,19
156,154.68,158.86,19
157,154.72,158.84,19
155,154.73,158.80,19
156,154.76,158.77,19
156,154.78,158.75,19
158,154.84,158.74,19
157,154.89,158.72,19
158,154.95,158.71,19
158,155.01,158.71,19
158,155.07,158.70,19
158,155.13,158.69,19
158,155.19,158.69,19
159,155.26,158.69,19
159,155.34,158.69,19
159,155.41,158.70,19
159,155.48,158.70,19
160,155.57,158.71,19
159,155.64,158.72,19
159,155.71,158.72,19
158,155.75,158.71,19
159,155.82,158.71,19
160,155.90,158.73,19
159,155.97,158.73,19
159,156.03,158.73,19
158,156.07,158.72,19
159,156.12,158.73,19
158,156.16,158.72,19
159,156.22,158.72,19
161,156.31,158.75,19
161,156.41,158.77,19
160,156.48,158.78,19
160,156.55,158.79,19
160,156.62,158.80,19
160,156.69,158.82,19
160,156.75,158.83,19
159,156.80,158.83,19
159,156.84,158.83,19
160,156.91,158.84,19
160,156.97,158.86,19
159,157.01,158.86,19
159,157.05,158.86,19
159,157.09,158.86,19
159,157.12,158.86,19
159,157.16,158.86,19
161,157.24,158.88,19
161,157.31,158.90,19
161,157.39,158.93,19
161,157.46,158.95,19
161,157.53,158.97,19
160,157.58,158.98,19
161,157.65,159.00,19
161,157.72,159.02,19
161,157.78,159.04,19
162,157.87,159.07,19
161,157.93,159.09,19
162,158.01,159.12,19
161,158.07,159.13,19
161,158.13,159.15,19
161,158.19,159.17,19
162,158.26,159.20,19
162,158.34,159.23,19
162,158.41,159.26,19
162,158.48,159.28,19
161,158.53,159.30,19
161,158.58,159.32,19
161,158.63,159.33,19
161,158.68,159.35,19
161,158.72,159.37,19
161,158.77,159.38,19
161,158.81,159.40,19
162,158.88,159.43,19
162,158.94,159.45,19
162,159.00,159.48,19
161,159.04,159.49,19
162,159.10,159.52,19
159,159.10,159.51,19
162,159.16,159.54,19
161,159.19,159.55,19
162,159.25,159.58,19
161,159.28,159.59,19
161,159.32,159.60,19
161,159.35,159.62,19
161,159.39,159.63,19
161,159.42,159.65,19
161,159.45,159.66,19
161,159.48,159.67,19
161,159.51,159.69,19
160,159.52,159.69,19
160,159.53,159.69,19
160,159.54,159.70,19
161,159.57,159.71,19
161,159.60,159.72,20
161,159.63,159.73,20
160,159.63,159.74,21
161,159.66,159.75,21
161,159.69,159.76,22
162,159.73,159.78,22
162,159.78,159.81,23
161,159.80,159.82,23
161,159.83,159.83,24
161,159.85,159.84,24
162,159.89,159.86,25
162,159.94,159.88,25
161,159.96,159.90,26
161,159.98,159.91,26
161,160.00,159.92,27
161,160.02,159.93,27
161,160.04,159.94,28
161,160.06,159.95,28
162,160.10,159.97,29
160,160.09,159.97,29
161,160.11,159.98,29
161,160.13,159.99,29
161,160.15,160.00,29
161,160.16,160.01,29
161,160.18,160.02,29
161,160.20,160.03,29
161,160.21,160.04,29
160,160.21,160.04,29
159,160.19,160.03,29
160,160.18,160.03,29
160,160.18,160.03,29
159,160.15,160.02,29
159,160.13,160.01,30
161,160.15,160.02,30
162,160.19,160.04,30
161,160.20,160.05,30
160,160.20,160.05,30
160,160.19,160.05,30
160,160.19,160.05,30
160,160.19,160.05,30
159,160.16,160.04,31
161,160.18,160.05,31
161,160.20,160.06,31
161,160.21,160.06,31
160,160.21,160.06,31
159,160.18,160.05,31
160,160.18,160.05,32
159,160.16,160.04,32
159,160.13,160.03,33
160,160.13,160.03,33
160,160.13,160.03,34
160,160.13,160.03,34
159,160.10,160.02,35
159,160.08,160.01,35
159,160.06,160.00,36
159,160.04,159.99,36
159,160.02,159.98,37
160,160.02,159.98,37
160,160.02,159.98,38
160,160.02,159.98,38
158,159.98,159.96,39
159,159.96,159.95,39
159,159.94,159.94,40
159,159.92,159.93,40
159,159.90,159.92,41
161,159.92,159.93,41
160,159.92,159.93,42
160,159.93,159.94,42
158,159.89,159.92,43
159,159.87,159.91,43
161,159.89,159.92,44
159,159.87,159.91,44
159,159.86,159.90,45
160,159.86,159.90,45
159,159.84,159.89,46
160,159.85,159.89,46
159,159.83,159.88,47
160,159.83,159.88,47
159,159.81,159.88,48
159,159.80,159.87,48
159,159.78,159.86,49
160,159.79,159.86,49
162,159.83,159.88,50
160,159.83,159.88,50
160,159.84,159.88,51
162,159.88,159.90,51
161,159.90,159.92,52
160,159.91,159.92,52
159,159.89,159.91,53
162,159.93,159.93,53
161,159.95,159.94,54
161,159.97,159.95,54
161,159.99,159.96,55
162,160.03,159.98,55
163,160.09,160.01,56
162,160.13,160.03,56
162,160.17,160.05,57
163,160.22,160.08,57
162,160.26,160.10,57
161,160.27,160.11,57
161,160.29,160.12,57
161,160.30,160.13,57
161,160.32,160.13,57
162,160.35,160.15,57
159,160.32,160.14,57
162,160.36,160.16,57
161,160.37,160.17,57
162,160.40,160.19,57
161,160.41,160.20,57
161,160.43,160.20,57
161,160.44,160.21,57
161,160.45,160.22,57
159,160.42,160.21,57
160,160.41,160.20,57
160,160.40,160.20,57
161,160.42,160.21,57
160,160.41,160.21,57
161,160.42,160.22,57
161,160.43,160.22,57
159,160.40,160.21,57
159,160.37,160.20,57
160,160.37,160.20,57
160,160.36,160.20,57
160,160.35,160.19,57
160,160.35,160.19,57
160,160.34,160.19,57
159,160.31,160.18,57
159,160.29,160.17,58
159,160.26,160.15,58
162,160.29,160.17,59
161,160.31,160.18,59
160,160.30,160.18,60
161,160.32,160.19,60
161,160.33,160.20,60
159,160.30,160.18,61
163,160.36,160.21,61
159,160.33,160.20,62
162,160.36,160.22,62
161,160.38,160.23,62
161,160.39,160.23,62
161,160.40,160.24,62
161,160.41,160.25,62
161,160.42,160.26,62
159,160.40,160.24,62
160,160.39,160.24,62
160,160.38,160.24,62
162,160.41,160.26,62
160,160.40,160.25,62
160,160.40,160.25,62
161,160.41,160.26,62
161,160.42,160.27,62
161,160.43,160.27,62
162,160.46,160.29,62
162,160.49,160.31,62
163,160.54,160.34,62
162,160.57,160.35,62
163,160.62,160.38,62
163,160.67,160.40,62
165,160.76,160.45,62
164,160.82,160.49,62
165,160.90,160.53,62
166,161.01,160.59,62
166,161.11,160.64,62
166,161.20,160.69,62
167,161.32,160.76,62
168,161.45,160.83,62
168,161.58,160.90,62
169,161.73,160.98,62
168,161.86,161.05,62
168,161.98,161.12,62
167,162.08,161.18,62
170,162.24,161.27,62
170,162.40,161.36,62
173,162.61,161.47,62
174,162.84,161.60,62
175,163.08,161.73,62
174,163.30,161.85,62
174,163.51,161.98,62
174,163.72,162.10,62
175,163.95,162.22,62
174,164.15,162.34,62
173,164.32,162.45,62
174,164.52,162.56,62
174,164.71,162.68,62
173,164.87,162.78,62
172,165.02,162.87,62
172,165.16,162.97,62
173,165.31,163.07,62
173,165.47,163.17,62
173,165.62,163.26,62
171,165.72,163.34,62
173,165.87,163.44,62
172,165.99,163.52,62
171,166.09,163.60,62
171,166.19,163.67,62
171,166.29,163.75,62
171,166.38,163.82,62
172,166.49,163.90,62
172,166.60,163.98,62
172,166.71,164.06,62
172,166.82,164.14,62
171,166.90,164.21,62
172,167.00,164.29,62
172,167.10,164.36,62
171,167.18,164.43,62
169,167.22,164.48,62
172,167.31,164.55,62
172,167.41,164.63,62
171,167.48,164.69,62
171,167.55,164.75,62
172,167.64,164.83,62
172,167.73,164.90,62
172,167.81,164.97,62
173,167.91,165.05,62
173,168.02,165.13,62
173,168.12,165.21,62
173,168.21,165.28,62
171,168.27,165.34,62
174,168.38,165.43,62
174,168.50,165.51,62
173,168.59,165.59,62
173,168.67,165.66,62
174,168.78,165.75,62
173,168.87,165.82,62
173,168.95,165.89,62
173,169.03,165.96,62
174,169.13,166.04,62
175,169.25,166.13,62
175,169.36,166.22,62
175,169.47,166.31,62
176,169.60,166.41,62
175,169.71,166.49,62
175,169.82,166.58,62
175,169.92,166.66,62
175,170.02,166.74,62
175,170.12,166.83,62
174,170.20,166.90,62
175,170.30,166.98,62
175,170.39,167.06,62
176,170.50,167.15,62
173,170.55,167.21,62
176,170.66,167.30,62
177,170.79,167.39,62
177,170.91,167.49,62
176,171.01,167.57,62
177,171.13,167.67,62
177,171.25,167.76,62
175,171.33,167.83,62
176,171.42,167.92,62
176,171.51,168.00,62
176,171.60,168.08,62
177,171.71,168.17,62
179,171.86,168.27,62
181,172.04,168.40,62
182,172.24,168.54,62
184,172.47,168.69,62
188,172.78,168.88,62
189,173.11,169.09,62
191,173.47,169.30,62
190,173.80,169.51,62
191,174.14,169.73,62
190,174.46,169.93,62
191,174.79,170.14,62
191,175.11,170.35,62
191,175.43,170.56,62
190,175.72,170.75,62
191,176.03,170.95,62
190,176.31,171.14,62
190,176.58,171.33,62
190,176.85,171.52,62
190,177.11,171.70,62
193,177.43,171.92,62
190,177.68,172.10,62
189,177.91,172.27,62
189,178.13,172.43,62
189,178.35,172.60,62
189,178.56,172.76,62
188,178.75,172.91,62
188,178.93,173.07,62
190,179.15,173.24,62
189,179.35,173.39,62
188,179.52,173.54,62
189,179.71,173.69,62
190,179.92,173.86,62
190,180.12,174.02,62
190,180.32,174.18,62
190,180.51,174.34,62
192,180.74,174.51,62
192,180.97,174.69,62
190,181.15,174.84,62
190,181.33,174.99,62
191,181.52,175.15,62
191,181.71,175.31,62
190,181.87,175.46,62
192,182.08,175.62,62
195,182.34,175.82,62
194,182.57,176.00,62
192,182.76,176.16,62
193,182.96,176.33,62
193,183.16,176.49,62
193,183.36,176.66,62
