Teste de posicionamento 1.1(EMG ao centro do bíceps (Verde A, Vermelho B) + Ref no pulso) - 16/04/2024 - teste1 - 5 contrações
long frequencia = 1000;                 //frequência de aquisição do sinal, neste caso, 1000 sinais por segundo
float fator1 = 0.02, fator2 = 0.01;
float incerteza = 0.13;
float pico_basal = 130; // Mínimo para ser considerado um pico de contração
int filtro_horizontal=200000; //intervalo de 200ms valores não pode ter mais de 1 contração

Biceps_D,mediaMovel_1,mediaMovel_2,Contracao
85,1.70,0.85,0
86,3.39,1.70,0
84,5.00,2.52,0
85,6.60,3.35,0
86,8.19,4.18,0
85,9.72,4.98,0
86,11.25,5.79,0
83,12.68,6.57,0
86,14.15,7.36,0
86,15.59,8.15,0
85,16.97,8.92,0
87,18.38,9.70,0
85,19.71,10.45,0
85,21.01,11.19,0
85,22.29,11.93,0
85,23.55,12.66,0
85,24.78,13.39,0
86,26.00,14.11,0
84,27.16,14.81,0
86,28.34,15.52,0
87,29.51,16.24,0
85,30.62,16.93,0
84,31.69,17.60,0
84,32.73,18.26,0
86,33.80,18.94,0
86,34.84,19.61,0
84,35.83,20.25,0
84,36.79,20.89,0
85,37.75,21.53,0
83,38.66,22.15,0
84,39.57,22.76,0
85,40.48,23.39,0
84,41.35,23.99,0
84,42.20,24.59,0
86,43.07,25.21,0
86,43.93,25.82,0
84,44.73,26.40,0
83,45.50,26.96,0
84,46.27,27.53,0
86,47.06,28.12,0
85,47.82,28.69,0
88,48.63,29.28,0
84,49.33,29.83,0
86,50.07,30.39,0
84,50.75,30.93,0
84,51.41,31.46,0
84,52.06,31.98,0
84,52.70,32.50,0
85,53.35,33.03,0
83,53.94,33.53,0
84,54.54,34.03,0
86,55.17,34.55,0
84,55.75,35.05,0
86,56.35,35.55,0
84,56.91,36.04,0
85,57.47,36.53,0
84,58.00,37.00,0
83,58.50,37.46,0
84,59.01,37.93,0
84,59.51,38.39,0
84,60.00,38.85,0
86,60.52,39.32,0
86,61.03,39.78,0
85,61.51,40.24,0
84,61.96,40.67,0
84,62.40,41.11,0
86,62.87,41.56,0
85,63.31,41.99,0
84,63.73,42.41,0
84,64.13,42.83,0
86,64.57,43.26,0
85,64.98,43.68,0
85,65.38,44.09,0
84,65.75,44.49,0
85,66.14,44.89,0
85,66.51,45.29,0
85,66.88,45.69,0
84,67.22,46.07,0
83,67.54,46.44,0
85,67.89,46.83,0
86,68.25,47.22,0
84,68.57,47.59,0
84,68.88,47.95,0
84,69.18,48.31,0
84,69.47,48.67,0
85,69.78,49.03,0
86,70.11,49.40,0
84,70.39,49.75,0
84,70.66,50.09,0
86,70.97,50.45,0
84,71.23,50.79,0
84,71.48,51.12,0
83,71.71,51.44,0
85,71.98,51.77,0
84,72.22,52.09,0
85,72.47,52.42,0
85,72.72,52.75,0
84,72.95,53.06,0
84,73.17,53.37,0
84,73.39,53.68,0
85,73.62,53.99,0
84,73.83,54.29,0
86,74.07,54.61,0
84,74.27,54.90,0
85,74.48,55.20,0
84,74.67,55.49,0
84,74.86,55.78,0
84,75.04,56.06,0
85,75.24,56.35,0
84,75.42,56.62,0
84,75.59,56.90,0
86,75.80,57.19,0
84,75.96,57.46,0
83,76.10,57.71,0
83,76.24,57.97,0
86,76.44,58.25,0
83,76.57,58.49,0
84,76.72,58.75,0
84,76.86,59.00,0
84,77.00,59.25,0
85,77.16,59.51,0
83,77.28,59.74,0
84,77.42,59.99,0
86,77.59,60.25,0
84,77.72,60.48,0
84,77.84,60.72,0
84,77.96,60.95,0
84,78.09,61.18,0
85,78.22,61.42,0
84,78.34,61.65,0
84,78.45,61.87,0
85,78.58,62.10,0
86,78.73,62.34,0
84,78.84,62.56,0
86,78.98,62.79,0
84,79.08,63.00,0
83,79.16,63.20,0
84,79.26,63.41,0
85,79.37,63.63,0
85,79.48,63.84,0
85,79.59,64.05,0
84,79.68,64.25,0
84,79.77,64.45,0
85,79.87,64.65,0
84,79.96,64.85,0
86,80.08,65.06,0
84,80.15,65.25,0
84,80.23,65.44,0
84,80.31,65.62,0
87,80.44,65.84,0
84,80.51,66.02,0
82,80.54,66.18,0
84,80.61,66.36,0
84,80.68,66.53,0
84,80.75,66.71,0
84,80.81,66.88,0
87,80.93,67.08,0
85,81.02,67.26,0
84,81.07,67.43,0
84,81.13,67.59,0
85,81.21,67.77,0
84,81.27,67.93,0
84,81.32,68.09,0
84,81.37,68.25,0
83,81.41,68.40,0
82,81.42,68.53,0
84,81.47,68.69,0
83,81.50,68.83,0
84,81.55,68.98,0
84,81.60,69.13,0
84,81.65,69.28,0
84,81.70,69.43,0
81,81.68,69.54,0
84,81.73,69.69,0
83,81.75,69.82,0
84,81.80,69.96,0
84,81.84,70.10,0
84,81.89,70.24,0
84,81.93,70.38,0
82,81.93,70.50,0
83,81.95,70.62,0
84,81.99,70.76,0
83,82.01,70.88,0
82,82.01,70.99,0
83,82.03,71.11,0
83,82.05,71.23,0
82,82.05,71.34,0
82,82.05,71.44,0
85,82.11,71.58,0
83,82.13,71.69,0
82,82.12,71.80,0
84,82.16,71.92,0
84,82.20,72.04,0
83,82.21,72.15,0
82,82.21,72.25,0
83,82.22,72.35,0
82,82.22,72.45,0
84,82.26,72.57,0
82,82.25,72.66,0
82,82.25,72.75,0
82,82.24,72.85,0
82,82.24,72.94,0
82,82.23,73.03,0
84,82.27,73.14,0
83,82.28,73.24,0
82,82.28,73.32,0
84,82.31,73.43,0
82,82.30,73.52,0
83,82.32,73.61,0
84,82.35,73.72,0
84,82.38,73.82,0
84,82.42,73.92,0
83,82.43,74.01,0
82,82.42,74.09,0
85,82.47,74.20,0
84,82.50,74.30,0
83,82.51,74.38,0
83,82.52,74.47,0
84,82.55,74.57,0
83,82.56,74.65,0
85,82.61,74.75,0
83,82.62,74.84,0
84,82.64,74.93,0
84,82.67,75.02,0
83,82.68,75.10,0
83,82.68,75.18,0
84,82.71,75.27,0
84,82.74,75.35,0
84,82.76,75.44,0
86,82.83,75.55,0
84,82.85,75.63,0
84,82.87,75.71,0
83,82.88,75.79,0
82,82.86,75.85,0
84,82.88,75.93,0
84,82.90,76.01,0
86,82.97,76.11,0
84,82.99,76.19,0
84,83.01,76.27,0
84,83.03,76.35,0
83,83.03,76.41,0
85,83.07,76.50,0
82,83.04,76.55,0
84,83.06,76.63,0
83,83.06,76.69,0
83,83.06,76.75,0
83,83.06,76.82,0
82,83.04,76.87,0
84,83.06,76.94,0
83,83.06,77.00,0
82,83.04,77.05,0
82,83.01,77.10,0
84,83.03,77.17,0
83,83.03,77.23,0
82,83.01,77.27,0
82,82.99,77.32,0
84,83.01,77.39,0
84,83.03,77.45,0
83,83.03,77.51,0
82,83.01,77.56,0
83,83.01,77.61,0
84,83.03,77.67,0
82,83.01,77.72,0
83,83.01,77.77,0
83,83.01,77.82,0
84,83.03,77.88,0
82,83.01,77.92,0
83,83.01,77.98,0
83,83.01,78.03,0
83,83.01,78.08,0
82,82.99,78.11,0
86,83.05,78.19,0
83,83.05,78.24,0
82,83.03,78.28,0
84,83.05,78.34,0
82,83.03,78.37,0
82,83.00,78.41,0
82,82.98,78.45,0
82,82.96,78.48,0
79,82.89,78.49,0
83,82.89,78.53,0
83,82.89,78.58,0
82,82.87,78.61,0
82,82.85,78.64,0
83,82.86,78.69,0
84,82.88,78.74,0
82,82.86,78.77,0
80,82.81,78.79,0
83,82.81,78.83,0
84,82.83,78.88,0
82,82.82,78.91,0
82,82.80,78.94,0
83,82.80,78.98,0
82,82.79,79.01,0
82,82.77,79.04,0
82,82.76,79.07,0
82,82.74,79.10,0
84,82.77,79.15,0
82,82.75,79.18,0
81,82.72,79.20,0
82,82.70,79.22,0
82,82.69,79.25,0
82,82.67,79.28,0
81,82.64,79.30,0
82,82.63,79.32,0
84,82.66,79.37,0
84,82.68,79.42,0
81,82.65,79.43,0
82,82.64,79.46,0
82,82.62,79.48,0
82,82.61,79.51,0
82,82.60,79.53,0
82,82.59,79.56,0
81,82.55,79.57,0
80,82.50,79.58,0
83,82.51,79.61,0
84,82.54,79.66,0
81,82.51,79.67,0
82,82.50,79.69,0
82,82.49,79.72,0
81,82.46,79.73,0
82,82.45,79.75,0
82,82.44,79.77,0
81,82.42,79.79,0
81,82.39,79.80,0
82,82.38,79.82,0
81,82.35,79.83,0
80,82.30,79.83,0
81,82.28,79.85,0
83,82.29,79.88,0
82,82.29,79.90,0
82,82.28,79.92,0
81,82.26,79.93,0
81,82.23,79.94,0
81,82.21,79.95,0
80,82.16,79.95,0
81,82.14,79.96,0
81,82.12,79.97,0
80,82.07,79.97,0
80,82.03,79.97,0
80,81.99,79.97,0
80,81.95,79.97,0
80,81.91,79.97,0
82,81.91,79.99,0
83,81.94,80.02,0
82,81.94,80.04,0
82,81.94,80.06,0
82,81.94,80.08,0
81,81.92,80.09,0
81,81.90,80.10,0
82,81.90,80.12,0
82,81.91,80.14,0
84,81.95,80.18,0
82,81.95,80.20,0
82,81.95,80.21,0
81,81.93,80.22,0
81,81.91,80.23,0
83,81.93,80.26,0
84,81.98,80.29,0
84,82.02,80.33,0
84,82.06,80.37,0
82,82.05,80.38,0
82,82.05,80.40,0
82,82.05,80.42,0
82,82.05,80.43,0
83,82.07,80.46,0
82,82.07,80.47,0
84,82.11,80.51,0
82,82.11,80.52,0
82,82.10,80.54,0
86,82.18,80.59,0
82,82.18,80.61,0
83,82.19,80.63,0
84,82.23,80.66,0
82,82.23,80.68,0
84,82.26,80.71,0
86,82.34,80.76,0
84,82.37,80.80,0
84,82.40,80.83,0
84,82.43,80.86,0
83,82.45,80.88,0
84,82.48,80.91,0
84,82.51,80.94,0
85,82.56,80.98,0
84,82.59,81.01,0
86,82.65,81.06,0
88,82.76,81.13,0
84,82.79,81.16,0
86,82.85,81.21,0
84,82.87,81.24,0
84,82.90,81.27,0
85,82.94,81.30,0
84,82.96,81.33,0
84,82.98,81.36,0
84,83.00,81.38,0
84,83.02,81.41,0
84,83.04,81.44,0
84,83.06,81.46,0
84,83.08,81.49,0
83,83.08,81.50,0
84,83.09,81.53,0
86,83.15,81.57,0
81,83.11,81.57,0
83,83.11,81.58,0
85,83.15,81.61,0
84,83.16,81.64,0
84,83.18,81.66,0
83,83.18,81.68,0
84,83.19,81.70,0
83,83.19,81.71,0
83,83.18,81.72,0
83,83.18,81.74,0
85,83.22,81.77,0
84,83.23,81.79,0
83,83.23,81.80,0
86,83.28,81.85,0
84,83.30,81.87,0
84,83.31,81.89,0
83,83.31,81.90,0
84,83.32,81.92,0
85,83.35,81.95,0
84,83.37,81.97,0
84,83.38,81.99,0
82,83.35,81.99,0
85,83.38,82.02,0
84,83.40,82.04,0
86,83.45,82.08,0
86,83.50,82.12,0
85,83.53,82.15,0
84,83.54,82.17,0
86,83.59,82.21,0
86,83.64,82.24,0
86,83.68,82.28,0
84,83.69,82.30,0
84,83.70,82.32,0
86,83.74,82.35,0
86,83.79,82.39,0
88,83.87,82.45,0
84,83.87,82.46,0
86,83.92,82.50,0
86,83.96,82.53,0
85,83.98,82.56,0
86,84.02,82.59,0
86,84.06,82.63,0
86,84.10,82.66,0
87,84.16,82.70,0
86,84.19,82.74,0
87,84.25,82.78,0
85,84.26,82.80,0
84,84.26,82.81,0
86,84.29,82.84,0
88,84.37,82.90,0
86,84.40,82.93,0
86,84.43,82.96,0
85,84.44,82.98,0
87,84.50,83.02,0
86,84.53,83.05,0
86,84.55,83.08,0
88,84.62,83.13,0
87,84.67,83.17,0
88,84.74,83.21,0
86,84.76,83.24,0
86,84.79,83.27,0
87,84.83,83.31,0
86,84.86,83.33,0
86,84.88,83.36,0
88,84.94,83.41,0
87,84.98,83.44,0
86,85.00,83.47,0
90,85.10,83.53,0
86,85.12,83.56,0
89,85.20,83.61,0
89,85.27,83.67,0
88,85.33,83.71,0
88,85.38,83.75,0
88,85.43,83.79,0
90,85.53,83.86,0
90,85.61,83.92,0
90,85.70,83.98,0
90,85.79,84.04,0
91,85.89,84.11,0
88,85.93,84.15,0
89,86.00,84.20,0
91,86.10,84.26,0
90,86.17,84.32,0
88,86.21,84.36,0
88,86.25,84.40,0
88,86.28,84.43,0
89,86.34,84.48,0
90,86.41,84.53,0
90,86.48,84.59,0
91,86.57,84.65,0
91,86.66,84.71,0
90,86.73,84.77,0
90,86.79,84.82,0
90,86.86,84.87,0
91,86.94,84.93,0
89,86.98,84.97,0
91,87.06,85.03,0
90,87.12,85.08,0
90,87.18,85.13,0
94,87.31,85.22,0
90,87.37,85.27,0
90,87.42,85.32,0
90,87.47,85.36,0
91,87.54,85.42,0
92,87.63,85.49,0
90,87.68,85.53,0
90,87.73,85.58,0
90,87.77,85.62,0
90,87.82,85.66,0
92,87.90,85.73,0
93,88.00,85.80,0
92,88.08,85.86,0
90,88.12,85.90,0
92,88.20,85.96,0
91,88.25,86.01,0
87,88.23,86.02,0
90,88.26,86.06,0
92,88.34,86.12,0
90,88.37,86.16,0
90,88.40,86.20,0
90,88.44,86.24,0
92,88.51,86.30,0
91,88.56,86.34,0
88,88.55,86.36,0
90,88.58,86.40,0
90,88.60,86.43,0
90,88.63,86.47,0
90,88.66,86.50,0
92,88.73,86.56,0
90,88.75,86.59,0
90,88.78,86.63,0
94,88.88,86.70,0
92,88.94,86.75,0
92,89.00,86.81,0
92,89.06,86.86,0
94,89.16,86.93,0
92,89.22,86.98,0
92,89.28,87.03,0
90,89.29,87.06,0
91,89.32,87.10,0
92,89.38,87.15,0
91,89.41,87.19,0
92,89.46,87.23,0
92,89.51,87.28,0
92,89.56,87.33,0
93,89.63,87.39,0
91,89.66,87.42,0
92,89.71,87.47,0
94,89.79,87.53,0
92,89.84,87.58,0
94,89.92,87.64,0
95,90.02,87.72,0
92,90.06,87.76,0
95,90.16,87.83,0
94,90.24,87.89,0
93,90.29,87.94,0
96,90.40,88.02,0
96,90.52,88.10,0
94,90.59,88.16,0
95,90.67,88.23,0
94,90.74,88.29,0
95,90.83,88.36,0
97,90.95,88.44,0
93,90.99,88.49,0
95,91.07,88.55,0
94,91.13,88.61,0
95,91.21,88.67,0
96,91.30,88.75,0
95,91.38,88.81,0
95,91.45,88.87,0
93,91.48,88.91,0
95,91.55,88.97,0
94,91.60,89.02,0
94,91.65,89.07,0
96,91.73,89.14,0
93,91.76,89.18,0
97,91.86,89.26,0
94,91.91,89.31,0
97,92.01,89.38,0
95,92.07,89.44,0
96,92.15,89.50,0
96,92.22,89.57,0
95,92.28,89.62,0
95,92.33,89.68,0
95,92.39,89.73,0
96,92.46,89.79,0
95,92.51,89.85,0
96,92.58,89.91,0
96,92.65,89.97,0
94,92.68,90.01,0
96,92.74,90.07,0
95,92.79,90.12,0
94,92.81,90.16,0
96,92.88,90.21,0
95,92.92,90.26,0
96,92.98,90.32,0
94,93.00,90.36,0
96,93.06,90.41,0
95,93.10,90.46,0
98,93.20,90.53,0
96,93.25,90.59,0
94,93.27,90.62,0
96,93.32,90.68,0
95,93.36,90.72,0
96,93.41,90.77,0
97,93.48,90.84,0
97,93.55,90.90,0
96,93.60,90.95,0
98,93.69,91.02,0
98,93.77,91.09,0
96,93.82,91.14,0
96,93.86,91.19,0
96,93.91,91.23,0
96,93.95,91.28,0
97,94.01,91.34,0
96,94.05,91.39,0
96,94.09,91.43,0
98,94.17,91.50,0
95,94.18,91.53,0
96,94.22,91.58,0
96,94.25,91.62,0
97,94.31,91.67,0
95,94.32,91.71,0
96,94.36,91.75,0
100,94.47,91.83,0
99,94.56,91.91,0
98,94.63,91.97,0
98,94.70,92.03,0
98,94.76,92.09,0
100,94.87,92.17,0
98,94.93,92.22,0
98,94.99,92.28,0
98,95.05,92.34,0
97,95.09,92.39,0
98,95.15,92.44,0
96,95.17,92.48,0
98,95.22,92.53,0
99,95.30,92.60,0
97,95.33,92.64,0
100,95.43,92.71,0
99,95.50,92.78,0
99,95.57,92.84,0
97,95.60,92.88,0
98,95.64,92.93,0
100,95.73,93.00,0
100,95.82,93.07,0
102,95.94,93.16,0
98,95.98,93.21,0
103,96.12,93.31,0
99,96.18,93.37,0
98,96.22,93.41,0
96,96.21,93.44,0
97,96.23,93.47,0
98,96.26,93.52,0
98,96.30,93.56,0
98,96.33,93.61,0
97,96.34,93.64,0
98,96.38,93.69,0
100,96.45,93.75,0
104,96.60,93.85,0
101,96.69,93.92,0
98,96.72,93.96,0
100,96.78,94.02,0
101,96.87,94.09,0
101,96.95,94.16,0
99,96.99,94.21,0
99,97.03,94.26,0
98,97.05,94.30,0
98,97.07,94.33,0
98,97.09,94.37,0
98,97.10,94.41,0
98,97.12,94.44,0
98,97.14,94.48,0
98,97.16,94.51,0
98,97.17,94.55,0
102,97.27,94.62,0
99,97.31,94.67,0
101,97.38,94.73,0
98,97.39,94.76,0
99,97.42,94.80,0
103,97.54,94.89,0
101,97.60,94.95,0
100,97.65,95.00,0
100,97.70,95.05,0
98,97.71,95.08,0
98,97.71,95.11,0
100,97.76,95.16,0
99,97.78,95.19,0
99,97.81,95.23,0
100,97.85,95.28,0
102,97.93,95.35,0
104,98.05,95.43,0
101,98.11,95.49,0
103,98.21,95.56,0
101,98.27,95.62,0
101,98.32,95.67,0
102,98.40,95.74,0
101,98.45,95.79,0
101,98.50,95.84,0
101,98.55,95.89,0
106,98.70,95.99,0
104,98.80,96.07,0
102,98.87,96.13,0
103,98.95,96.20,0
105,99.07,96.29,0
102,99.13,96.35,0
107,99.29,96.45,0
105,99.40,96.54,0
104,99.49,96.61,0
105,99.60,96.70,0
105,99.71,96.78,0
103,99.78,96.84,0
103,99.84,96.90,0
104,99.92,96.97,0
111,100.15,97.12,0
105,100.24,97.19,0
108,100.40,97.30,0
108,100.55,97.41,0
111,100.76,97.54,0
110,100.94,97.67,0
106,101.05,97.75,0
108,101.18,97.86,0
106,101.28,97.94,0
106,101.38,98.02,0
110,101.55,98.14,0
110,101.72,98.26,0
107,101.82,98.34,0
108,101.95,98.44,0
110,102.11,98.56,0
108,102.22,98.65,0
108,102.34,98.74,0
110,102.49,98.86,0
109,102.62,98.96,0
110,102.77,99.07,0
112,102.96,99.20,0
113,103.16,99.34,0
112,103.33,99.46,0
111,103.49,99.58,0
114,103.70,99.72,0
115,103.92,99.87,0
112,104.08,100.00,0
117,104.34,100.17,0
118,104.62,100.34,0
116,104.84,100.50,0
117,105.09,100.67,0
114,105.27,100.80,0
117,105.50,100.96,0
114,105.67,101.09,0
114,105.84,101.22,0
115,106.02,101.36,0
115,106.20,101.49,0
118,106.44,101.66,0
117,106.65,101.81,0
116,106.83,101.95,0
117,107.04,102.11,0
117,107.24,102.25,0
117,107.43,102.40,0
117,107.62,102.55,0
119,107.85,102.71,0
117,108.03,102.86,0
117,108.21,103.00,0
119,108.43,103.16,0
121,108.68,103.33,0
123,108.97,103.53,0
121,109.21,103.71,0
123,109.48,103.90,0
120,109.69,104.06,0
122,109.94,104.24,0
129,110.32,104.49,0
125,110.61,104.69,0
124,110.88,104.89,0
126,111.18,105.10,0
125,111.46,105.30,0
126,111.75,105.50,0
129,112.10,105.74,0
125,112.35,105.93,0
125,112.61,106.12,0
127,112.90,106.33,0
125,113.14,106.52,0
125,113.37,106.70,0
127,113.65,106.90,0
127,113.91,107.11,0
125,114.14,107.28,0
127,114.39,107.48,0
127,114.65,107.68,0
125,114.85,107.85,0
125,115.06,108.02,0
125,115.25,108.19,0
125,115.45,108.36,0
133,115.80,108.61,0
133,116.14,108.85,0
133,116.48,109.09,0
131,116.77,109.31,0
129,117.02,109.51,0
133,117.34,109.74,0
137,117.73,110.01,0
139,118.15,110.30,0
134,118.47,110.54,0
133,118.76,110.77,0
132,119.03,110.98,0
133,119.31,111.20,0
137,119.66,111.46,0
135,119.97,111.69,0
133,120.23,111.91,0
135,120.52,112.14,0
141,120.93,112.42,0
143,121.37,112.73,0
136,121.67,112.96,0
135,121.93,113.18,0
139,122.27,113.44,0
140,122.63,113.71,0
139,122.96,113.96,0
141,123.32,114.23,0
139,123.63,114.48,0
137,123.90,114.70,0
137,124.16,114.93,0
139,124.46,115.17,0
138,124.73,115.40,0
139,125.01,115.63,0
138,125.27,115.86,0
138,125.53,116.08,0
137,125.76,116.29,0
137,125.98,116.49,0
140,126.26,116.73,0
137,126.48,116.93,0
136,126.67,117.12,0
136,126.85,117.31,0
137,127.06,117.51,0
138,127.28,117.71,0
138,127.49,117.91,0
139,127.72,118.13,0
137,127.91,118.31,0
138,128.11,118.51,0
139,128.33,118.72,0
139,128.54,118.92,0
141,128.79,119.14,0
141,129.03,119.36,0
142,129.29,119.58,0
143,129.57,119.82,0
143,129.84,120.05,0
141,130.06,120.26,0
142,130.30,120.48,0
145,130.59,120.72,0
150,130.98,121.02,0
149,131.34,121.30,0
149,131.69,121.57,0
145,131.96,121.81,0
147,132.26,122.06,0
150,132.61,122.34,0
145,132.86,122.56,0
146,133.13,122.80,0
157,133.60,123.14,0
155,134.03,123.46,0
149,134.33,123.72,0
153,134.70,124.01,0
153,135.07,124.30,0
149,135.35,124.55,0
152,135.68,124.82,0
151,135.99,125.08,0
157,136.41,125.40,0
157,136.82,125.72,0
153,137.14,125.99,0
151,137.42,126.24,0
153,137.73,126.51,0
153,138.04,126.77,0
157,138.42,127.07,0
165,138.95,127.45,0
161,139.39,127.79,0
156,139.72,128.07,0
163,140.19,128.42,0
157,140.52,128.71,0
166,141.03,129.08,0
160,141.41,129.39,0
160,141.78,129.69,0
169,142.33,130.09,0
167,142.82,130.46,0
167,143.31,130.82,0
166,143.76,131.17,0
165,144.18,131.51,0
167,144.64,131.87,0
171,145.17,132.26,0
166,145.58,132.60,0
164,145.95,132.91,0
163,146.29,133.21,0
166,146.69,133.54,0
167,147.09,133.87,0
164,147.43,134.17,0
164,147.76,134.47,0
166,148.13,134.79,0
168,148.53,135.12,0
165,148.85,135.42,0
169,149.26,135.75,0
166,149.59,136.06,0
172,150.04,136.42,0
171,150.46,136.76,0
167,150.79,137.06,0
169,151.16,137.38,0
167,151.47,137.68,0
167,151.78,137.97,0
169,152.13,138.28,0
175,152.58,138.65,0
174,153.01,139.00,0
176,153.47,139.37,0
172,153.84,139.70,0
177,154.31,140.07,0
176,154.74,140.43,0
174,155.13,140.77,0
176,155.54,141.12,0
175,155.93,141.46,0
175,156.31,141.80,0
177,156.73,142.15,0
178,157.15,142.51,0
173,157.47,142.81,0
187,158.06,143.25,0
190,158.70,143.72,0
185,159.22,144.13,0
184,159.72,144.53,0
193,160.39,145.02,0
196,161.10,145.53,0
197,161.82,146.04,0
193,162.44,146.51,0
199,163.17,147.04,0
201,163.93,147.57,0
193,164.51,148.03,0
197,165.16,148.52,0
203,165.92,149.06,0
202,166.64,149.59,0
201,167.32,150.11,0
199,167.96,150.60,0
198,168.56,151.07,0
206,169.31,151.62,0
207,170.06,152.17,0
207,170.80,152.72,0
202,171.42,153.21,0
200,172.00,153.68,0
208,172.72,154.23,0
207,173.40,154.75,0
203,173.99,155.24,0
217,174.85,155.85,0
219,175.74,156.48,0
211,176.44,157.03,0
217,177.25,157.63,0
215,178.01,158.20,0
212,178.69,158.74,0
213,179.37,159.28,0
217,180.13,159.86,0
225,181.02,160.51,0
226,181.92,161.17,0
221,182.71,161.77,0
222,183.49,162.37,0
231,184.44,163.05,0
229,185.33,163.71,0
225,186.13,164.33,0
221,186.82,164.89,0
224,187.57,165.48,0
229,188.40,166.12,0
225,189.13,166.71,0
237,190.09,167.41,0
239,191.06,168.13,0
229,191.82,168.74,0
241,192.81,169.46,0
244,193.83,170.20,0
245,194.85,170.95,0
248,195.92,171.72,0
240,196.80,172.41,0
243,197.72,173.11,0
244,198.65,173.82,0
241,199.49,174.49,0
239,200.28,175.14,0
238,201.04,175.77,0
239,201.80,176.40,0
237,202.50,177.00,0
239,203.23,177.62,0
237,203.91,178.22,0
237,204.57,178.81,0
237,205.22,179.39,0
242,205.95,180.01,0
243,206.69,180.64,0
251,207.58,181.35,0
253,208.49,182.06,0
251,209.34,182.75,0
256,210.27,183.49,0
258,211.23,184.23,0
261,212.22,185.00,0
263,213.24,185.78,0
256,214.09,186.48,0
251,214.83,187.13,0
252,215.57,187.77,0
253,216.32,188.43,0
252,217.04,189.06,0
257,217.84,189.74,0
265,218.78,190.49,0
267,219.74,191.26,0
260,220.55,191.95,0
262,221.38,192.65,0
266,222.27,193.38,0
272,223.26,194.17,0
271,224.22,194.94,0
263,225.00,195.62,0
269,225.88,196.35,0
276,226.88,197.15,0
280,227.94,197.97,0
280,228.98,198.80,0
277,229.94,199.58,0
273,230.80,200.31,0
284,231.87,201.15,0
285,232.93,201.99,0
288,234.03,202.85,0
288,235.11,203.70,0
280,236.01,204.46,0
283,236.95,205.25,0
293,238.07,206.12,0
285,239.01,206.91,0
287,239.97,207.71,0
293,241.03,208.57,0
295,242.11,209.43,0
292,243.11,210.26,0
287,243.98,211.02,0
299,245.08,211.90,0
301,246.20,212.80,0
289,247.06,213.56,0
298,248.08,214.40,0
301,249.14,215.27,0
294,250.03,216.05,0
305,251.13,216.94,0
307,252.25,217.84,0
309,253.38,218.76,0
311,254.54,219.68,0
311,255.67,220.59,0
313,256.81,221.52,0
316,258.00,222.46,0
318,259.20,223.42,0
318,260.37,224.36,0
310,261.37,225.22,0
316,262.46,226.13,0
322,263.65,227.09,0
324,264.86,228.05,0
326,266.08,229.03,0
322,267.20,229.96,0
325,268.35,230.91,0
330,269.59,231.90,0
332,270.83,232.91,0
329,272.00,233.87,0
322,273.00,234.75,0
335,274.24,235.75,0
336,275.47,236.75,0
339,276.74,237.78,0
328,277.77,238.68,0
341,279.03,239.70,0
343,280.31,240.73,0
345,281.61,241.78,0
348,282.93,242.84,0
341,284.10,243.82,0
336,285.13,244.74,0
341,286.25,245.70,0
342,287.37,246.67,0
347,288.56,247.67,0
351,289.81,248.70,0
351,291.03,249.73,0
348,292.17,250.71,0
352,293.37,251.72,0
343,294.36,252.64,0
357,295.61,253.68,0
358,296.86,254.72,0
360,298.12,255.78,0
349,299.14,256.71,0
352,300.20,257.66,0
353,301.25,258.61,0
351,302.25,259.54,0
347,303.14,260.41,0
348,304.04,261.29,0
350,304.96,262.18,0
351,305.88,263.06,0
357,306.90,264.00,0
357,307.91,264.93,0
351,308.77,265.79,0
349,309.57,266.63,0
353,310.44,267.49,0
351,311.25,268.32,0
351,312.05,269.15,0
358,312.97,270.04,0
358,313.87,270.92,0
351,314.61,271.72,0
352,315.36,272.52,0
354,316.13,273.34,0
358,316.97,274.18,0
356,317.75,275.00,0
351,318.41,275.76,0
361,319.26,276.61,0
359,320.06,277.44,0
357,320.80,278.23,0
365,321.68,279.10,0
363,322.51,279.94,0
364,323.34,280.78,0
361,324.09,281.58,0
362,324.85,282.39,0
370,325.75,283.26,0
372,326.68,284.15,0
369,327.52,285.00,0
369,328.35,285.84,0
377,329.33,286.75,0
378,330.30,287.66,0
380,331.29,288.59,0
373,332.13,289.43,0
379,333.07,290.33,0
375,333.90,291.17,0
375,334.73,292.01,0
372,335.47,292.81,0
370,336.16,293.58,0
373,336.90,294.38,0
373,337.62,295.16,0
371,338.29,295.92,0
378,339.08,296.74,0
376,339.82,297.54,0
378,340.58,298.34,0
385,341.47,299.21,0
379,342.22,300.01,0
381,343.00,300.82,0
388,343.90,301.69,0
391,344.84,302.58,0
390,345.74,303.45,0
384,346.51,304.26,0
380,347.18,305.02,0
380,347.84,305.77,0
383,348.54,306.54,0
387,349.31,307.34,0
393,350.18,308.20,0
394,351.06,309.06,0
396,351.96,309.93,0
387,352.66,310.70,0
397,353.55,311.56,0
399,354.45,312.44,0
397,355.31,313.28,0
392,356.04,314.07,0
397,356.86,314.90,0
397,357.66,315.72,0
391,358.33,316.47,0
396,359.08,317.27,0
390,359.70,317.99,0
401,360.53,318.82,0
400,361.32,319.64,0
398,362.05,320.42,0
395,362.71,321.17,0
392,363.29,321.87,0
403,364.09,322.69,0
407,364.95,323.53,0
402,365.69,324.31,0
398,366.33,325.05,0
400,367.01,325.80,0
398,367.63,326.52,0
402,368.31,327.28,0
397,368.89,327.97,0
404,369.59,328.73,0
410,370.40,329.55,0
401,371.01,330.26,0
399,371.57,330.95,0
405,372.24,331.69,0
405,372.89,332.42,0
404,373.52,333.14,0
402,374.09,333.83,0
400,374.60,334.49,0
402,375.15,335.16,0
403,375.71,335.84,0
401,376.21,336.49,0
401,376.71,337.14,0
404,377.26,337.81,0
401,377.73,338.44,0
401,378.20,339.06,0
401,378.65,339.68,0
399,379.06,340.28,0
405,379.58,340.92,0
410,380.19,341.62,0
407,380.72,342.27,0
403,381.17,342.88,0
405,381.65,343.50,0
411,382.23,344.17,0
409,382.77,344.82,0
403,383.17,345.40,0
409,383.69,346.04,0
406,384.14,346.64,0
402,384.49,347.19,0
401,384.82,347.73,0
404,385.21,348.29,0
400,385.50,348.81,0
404,385.87,349.36,0
401,386.17,349.88,0
412,386.69,350.50,0
412,387.20,351.11,0
402,387.49,351.62,0
410,387.94,352.21,0
416,388.50,352.84,0
420,389.13,353.52,0
415,389.65,354.13,0
408,390.02,354.67,0
416,390.54,355.28,0
422,391.17,355.95,0
422,391.78,356.61,0
414,392.23,357.18,0
419,392.76,357.80,0
424,393.39,358.46,0
428,394.08,359.16,0
422,394.64,359.79,0
417,395.09,360.36,0
420,395.58,360.96,0
424,396.15,361.59,0
429,396.81,362.26,0
426,397.39,362.90,0
419,397.83,363.46,0
423,398.33,364.06,0
429,398.94,364.71,0
431,399.58,365.37,0
424,400.07,365.95,0
421,400.49,366.50,0
427,401.02,367.11,0
429,401.58,367.73,0
427,402.09,368.32,0
421,402.47,368.85,0
422,402.86,369.38,0
420,403.20,369.89,0
420,403.54,370.39,0
419,403.85,370.87,0
420,404.17,371.36,0
420,404.49,371.85,0
422,404.84,372.35,0
424,405.22,372.87,0
422,405.56,373.36,0
422,405.88,373.85,0
418,406.13,374.29,0
419,406.38,374.74,0
420,406.66,375.19,0
417,406.86,375.61,0
418,407.09,376.03,0
416,407.26,376.43,0
417,407.46,376.84,0
415,407.61,377.22,0
416,407.78,377.60,0
415,407.92,377.98,0
414,408.04,378.34,0
415,408.18,378.71,0
412,408.26,379.04,0
412,408.33,379.37,0
413,408.43,379.70,0
412,408.50,380.03,0
410,408.53,380.33,0
410,408.56,380.62,0
408,408.55,380.90,0
412,408.62,381.21,0
409,408.62,381.49,0
409,408.63,381.76,0
407,408.60,382.01,0
406,408.55,382.25,0
406,408.50,382.49,0
405,408.43,382.72,0
404,408.34,382.93,0
403,408.23,383.13,0
402,408.11,383.32,0
402,407.98,383.51,0
403,407.88,383.70,0
401,407.75,383.87,0
400,407.59,384.03,0
400,407.44,384.19,0
400,407.29,384.35,0
398,407.11,384.49,0
399,406.94,384.63,0
397,406.74,384.76,0
396,406.53,384.87,0
395,406.30,384.97,0
398,406.13,385.10,0
395,405.91,385.20,0
395,405.69,385.30,0
395,405.48,385.40,0
394,405.25,385.48,0
396,405.06,385.59,0
395,404.86,385.68,0
392,404.61,385.74,0
392,404.35,385.81,0
392,404.11,385.87,0
391,403.84,385.92,0
390,403.57,385.96,0
390,403.30,386.00,0
389,403.01,386.03,0
388,402.71,386.05,0
389,402.44,386.08,0
387,402.13,386.09,0
386,401.80,386.09,0
385,401.47,386.08,0
385,401.14,386.07,0
385,400.82,386.06,0
385,400.50,386.05,0
385,400.19,386.04,0
385,399.89,386.03,0
384,399.57,386.01,0
382,399.22,385.97,0
383,398.89,385.94,0
383,398.57,385.91,0
381,398.22,385.86,0
380,397.86,385.80,0
380,397.50,385.74,0
379,397.13,385.67,0
382,396.83,385.64,0
379,396.47,385.57,0
379,396.12,385.50,0
377,395.74,385.42,0
376,395.35,385.33,0
376,394.96,385.23,0
377,394.60,385.15,0
377,394.25,385.07,0
375,393.86,384.97,0
374,393.47,384.86,0
375,393.10,384.76,0
374,392.71,384.65,0
375,392.36,384.55,0
374,391.99,384.45,0
373,391.61,384.33,0
373,391.24,384.22,0
371,390.84,384.09,0
371,390.44,383.96,0
369,390.01,383.81,0
370,389.61,383.67,0
369,389.20,383.52,0
368,388.77,383.37,0
368,388.36,383.22,0
367,387.93,383.05,0
366,387.49,382.88,0
367,387.08,382.72,0
365,386.64,382.55,0
365,386.21,382.37,0
363,385.74,382.18,0
363,385.29,381.99,0
363,384.84,381.80,0
363,384.41,381.61,0
361,383.94,381.40,0
361,383.48,381.20,0
360,383.01,380.99,0
359,382.53,380.77,0
359,382.06,380.55,0
359,381.60,380.33,0
359,381.15,380.12,0
358,380.68,379.90,0
357,380.21,379.67,0
355,379.71,379.42,0
357,379.25,379.20,1
355,378.77,378.96,1
355,378.29,378.72,1
355,377.83,378.48,1
355,377.37,378.24,1
354,376.90,378.00,1
353,376.42,377.75,1
352,375.94,377.49,1
352,375.46,377.24,1
351,374.97,376.98,1
350,374.47,376.71,1
351,374.00,376.45,1
350,373.52,376.19,1
351,373.07,375.93,1
349,372.59,375.66,1
349,372.12,375.40,1
348,371.63,375.12,1
348,371.16,374.85,1
346,370.66,374.56,1
347,370.18,374.29,1
346,369.70,374.01,1
345,369.21,373.72,1
344,368.70,373.42,1
343,368.19,373.11,1
343,367.68,372.81,1
343,367.19,372.52,1
342,366.69,372.21,1
341,366.17,371.90,1
341,365.67,371.59,1
340,365.16,371.27,1
340,364.65,370.96,1
340,364.16,370.65,1
339,363.66,370.33,1
339,363.16,370.02,1
339,362.68,369.71,1
337,362.17,369.38,1
337,361.66,369.06,1
336,361.15,368.73,1
336,360.65,368.40,1
336,360.15,368.08,1
335,359.65,367.75,1
333,359.12,367.40,1
333,358.60,367.06,1
334,358.10,366.73,1
333,357.60,366.39,1
332,357.09,366.04,1
332,356.59,365.70,1
331,356.08,365.36,1
330,355.55,365.00,1
331,355.06,364.66,1
329,354.54,364.31,1
330,354.05,363.96,1
329,353.55,363.61,1
328,353.04,363.26,1
327,352.52,362.89,1
329,352.05,362.56,1
327,351.55,362.20,1
326,351.04,361.84,1
325,350.52,361.47,1
326,350.03,361.12,1
324,349.50,360.74,1
325,349.01,360.39,1
324,348.51,360.02,1
323,348.00,359.65,1
323,347.50,359.29,1
322,346.99,358.91,1
323,346.51,358.55,1
321,346.00,358.18,1
319,345.46,357.79,1
321,344.97,357.42,1
320,344.48,357.04,1
319,343.97,356.66,1
319,343.47,356.29,1
317,342.94,355.89,1
318,342.44,355.52,1
317,341.93,355.13,1
316,341.41,354.74,1
316,340.90,354.35,1
318,340.44,353.99,1
315,339.94,353.60,1
315,339.44,353.21,1
314,338.93,352.82,1
315,338.45,352.44,1
313,337.94,352.05,1
313,337.44,351.66,1
312,336.93,351.26,1
312,336.43,350.87,1
312,335.95,350.48,1
312,335.47,350.09,1
312,335.00,349.71,1
311,334.52,349.33,1
310,334.03,348.93,1
309,333.53,348.53,1
308,333.02,348.13,1
310,332.56,347.75,1
309,332.08,347.36,1
307,331.58,346.96,1
308,331.11,346.57,1
307,330.63,346.17,1
306,330.14,345.77,1
306,329.65,345.37,1
305,329.16,344.97,1
305,328.68,344.57,1
305,328.20,344.17,1
304,327.72,343.77,1
305,327.27,343.38,1
304,326.80,342.99,1
305,326.36,342.61,1
302,325.88,342.20,1
302,325.40,341.80,1
303,324.95,341.41,1
302,324.49,341.02,1
301,324.02,340.62,1
301,323.56,340.22,1
299,323.07,339.81,1
300,322.61,339.41,1
300,322.16,339.02,1
300,321.71,338.63,1
298,321.24,338.22,1
297,320.76,337.81,1
297,320.28,337.40,1
297,319.81,337.00,1
296,319.34,336.59,1
295,318.85,336.17,1
295,318.37,335.76,1
295,317.91,335.35,1
295,317.45,334.95,1
295,317.00,334.55,1
294,316.54,334.14,1
295,316.11,333.75,1
293,315.65,333.35,1
292,315.17,332.93,1
293,314.73,332.53,1
292,314.28,332.13,1
291,313.81,331.72,1
290,313.33,331.30,1
291,312.89,330.90,1
289,312.41,330.48,1
290,311.96,330.07,1
289,311.50,329.66,1
289,311.05,329.25,1
288,310.59,328.84,1
287,310.12,328.42,1
287,309.66,328.01,1
288,309.22,327.61,1
286,308.76,327.19,1
286,308.30,326.78,1
285,307.84,326.36,1
286,307.40,325.96,1
285,306.95,325.55,1
285,306.51,325.14,1
284,306.06,324.73,1
285,305.64,324.34,1
283,305.19,323.92,1
283,304.75,323.51,1
284,304.33,323.12,1
283,303.90,322.72,1
281,303.45,322.30,1
282,303.02,321.90,1
281,302.58,321.49,1
281,302.15,321.08,1
281,301.72,320.68,1
284,301.37,320.32,1
281,300.96,319.92,1
281,300.56,319.53,1
280,300.15,319.14,1
278,299.71,318.73,1
280,299.31,318.34,1
277,298.87,317.93,1
277,298.43,317.52,1
277,298.00,317.11,1
277,297.58,316.71,1
276,297.15,316.30,1
276,296.73,315.90,1
275,296.29,315.49,1
276,295.89,315.10,1
275,295.47,314.70,1
274,295.04,314.29,1
274,294.62,313.89,1
273,294.19,313.48,1
273,293.76,313.07,1
273,293.35,312.67,1
273,292.94,312.27,1
272,292.52,311.87,1
273,292.13,311.48,1
271,291.71,311.08,1
271,291.29,310.68,1
272,290.91,310.29,1
270,290.49,309.89,1
271,290.10,309.50,1
270,289.70,309.10,1
269,289.28,308.70,1
269,288.88,308.31,1
270,288.50,307.92,1
270,288.13,307.54,1
268,287.73,307.15,1
268,287.33,306.76,1
267,286.93,306.36,1
267,286.53,305.97,1
267,286.14,305.58,1
266,285.74,305.18,1
266,285.34,304.79,1
265,284.93,304.39,1
265,284.54,304.00,1
265,284.14,303.61,1
264,283.74,303.21,1
265,283.37,302.83,1
265,283.00,302.45,1
264,282.62,302.07,1
264,282.25,301.68,1
264,281.88,301.31,1
262,281.48,300.91,1
264,281.13,300.55,1
263,280.77,300.17,1
262,280.40,299.79,1
263,280.05,299.42,1
261,279.67,299.04,1
261,279.29,298.66,1
264,278.99,298.31,1
261,278.63,297.94,1
260,278.26,297.56,1
259,277.87,297.17,1
259,277.49,296.79,1
259,277.12,296.41,1
258,276.74,296.03,1
258,276.37,295.65,1
258,276.00,295.27,1
257,275.62,294.89,1
257,275.25,294.51,1
258,274.90,294.14,1
257,274.54,293.77,1
257,274.19,293.41,1
257,273.85,293.04,1
256,273.49,292.67,1
255,273.12,292.29,1
256,272.78,291.93,1
256,272.44,291.57,1
256,272.12,291.22,1
254,271.75,290.84,1
255,271.42,290.49,1
254,271.07,290.12,1
253,270.71,289.75,1
253,270.35,289.38,1
252,269.99,289.01,1
253,269.65,288.65,1
254,269.33,288.30,1
252,268.99,287.94,1
252,268.65,287.58,1
251,268.29,287.21,1
251,267.95,286.85,1
250,267.59,286.48,1
249,267.22,286.11,1
249,266.85,285.74,1
250,266.52,285.38,1
249,266.17,285.02,1
248,265.80,284.65,1
248,265.45,284.28,1
247,265.08,283.91,1
247,264.72,283.54,1
247,264.36,283.17,1
246,264.00,282.80,1
247,263.66,282.44,1
245,263.28,282.07,1
245,262.92,281.70,1
244,262.54,281.32,1
245,262.19,280.96,1
245,261.84,280.60,1
245,261.51,280.24,1
244,261.16,279.88,1
245,260.83,279.53,1
245,260.52,279.18,1
244,260.19,278.83,1
243,259.84,278.47,1
244,259.53,278.13,1
242,259.18,277.77,1
243,258.85,277.42,1
241,258.49,277.06,1
242,258.16,276.71,1
241,257.82,276.35,1
241,257.49,276.00,1
241,257.16,275.65,1
240,256.81,275.29,1
240,256.48,274.94,1
240,256.15,274.59,1
239,255.80,274.23,1
240,255.49,273.89,1
240,255.18,273.55,1
239,254.85,273.20,1
239,254.54,272.86,1
237,254.19,272.50,1
239,253.88,272.17,1
240,253.61,271.85,1
241,253.35,271.54,1
239,253.07,271.21,1
237,252.74,270.87,1
238,252.45,270.54,1
240,252.20,270.24,1
239,251.94,269.92,1
237,251.64,269.60,1
238,251.37,269.28,1
239,251.12,268.98,1
239,250.88,268.68,1
238,250.62,268.37,1
238,250.37,268.07,1
236,250.08,267.75,1
237,249.82,267.44,1
237,249.56,267.13,1
237,249.31,266.83,1
236,249.04,266.52,1
236,248.78,266.22,1
235,248.51,265.91,1
239,248.32,265.64,1
235,248.05,265.33,1
237,247.83,265.05,1
236,247.59,264.76,1
235,247.34,264.46,1
236,247.11,264.18,1
234,246.85,263.87,1
233,246.57,263.56,1
234,246.32,263.27,1
233,246.06,262.97,1
233,245.80,262.67,1
234,245.56,262.38,1
233,245.31,262.09,1
233,245.06,261.80,1
231,244.78,261.49,1
232,244.53,261.19,1
232,244.28,260.90,1
232,244.03,260.61,1
231,243.77,260.32,1
232,243.53,260.03,1
230,243.26,259.73,1
229,242.98,259.42,1
231,242.74,259.14,1
230,242.48,258.85,1
231,242.25,258.57,1
229,241.99,258.27,1
228,241.71,257.97,1
231,241.49,257.70,1
231,241.28,257.44,1
231,241.08,257.17,1
230,240.86,256.90,1
229,240.62,256.62,1
229,240.39,256.34,1
229,240.16,256.07,1
229,239.94,255.80,1
227,239.68,255.51,1
230,239.48,255.26,1
230,239.30,255.00,1
229,239.09,254.74,1
228,238.87,254.48,1
229,238.67,254.22,1
229,238.48,253.97,1
227,238.25,253.70,1
228,238.04,253.44,1
226,237.80,253.17,1
225,237.55,252.89,1
228,237.35,252.64,1
227,237.15,252.38,1
225,236.90,252.11,1
225,236.67,251.84,1
225,236.43,251.57,1
225,236.20,251.30,1
224,235.96,251.03,1
223,235.70,250.75,1
223,235.45,250.47,1
227,235.28,250.24,1
224,235.05,249.97,1
225,234.85,249.73,1
223,234.61,249.46,1
224,234.40,249.20,1
223,234.17,248.94,1
222,233.93,248.67,1
224,233.73,248.43,1
222,233.50,248.16,1
223,233.29,247.91,1
224,233.10,247.67,1
224,232.92,247.43,1
222,232.70,247.18,1
224,232.53,246.95,1
225,232.38,246.73,1
222,232.17,246.48,1
224,232.01,246.26,1
223,231.83,246.02,1
221,231.61,245.77,1
225,231.48,245.57,1
223,231.31,245.34,1
223,231.14,245.12,1
221,230.94,244.88,1
222,230.76,244.65,1
220,230.54,244.40,1
222,230.37,244.18,1
221,230.19,243.94,1
220,229.98,243.70,1
219,229.76,243.46,1
219,229.55,243.21,1
220,229.36,242.98,1
219,229.15,242.74,1
221,228.99,242.52,1
219,228.79,242.29,1
219,228.59,242.06,1
218,228.38,241.82,1
220,228.21,241.60,1
219,228.03,241.37,1
220,227.87,241.16,1
219,227.69,240.94,1
219,227.52,240.72,1
218,227.33,240.49,1
218,227.14,240.26,1
217,226.94,240.03,1
216,226.72,239.79,1
217,226.52,239.56,1
219,226.37,239.36,1
217,226.19,239.13,1
215,225.96,238.89,1
216,225.76,238.66,1
216,225.57,238.44,1
216,225.38,238.21,1
215,225.17,237.98,1
214,224.94,237.74,1
215,224.75,237.51,1
214,224.53,237.28,1
213,224.30,237.04,1
214,224.09,236.81,1
213,223.87,236.57,1
216,223.72,236.36,1
215,223.54,236.15,1
214,223.35,235.93,1
213,223.14,235.70,1
212,222.92,235.46,1
212,222.70,235.23,1
213,222.51,235.00,1
213,222.32,234.78,1
211,222.09,234.55,1
212,221.89,234.32,1
211,221.67,234.09,1
212,221.48,233.87,1
211,221.27,233.64,1
210,221.04,233.40,1
210,220.82,233.17,1
212,220.65,232.96,1
209,220.41,232.72,1
211,220.22,232.50,1
211,220.04,232.28,1
209,219.82,232.05,1
209,219.60,231.82,1
210,219.41,231.60,1
209,219.20,231.38,1
209,219.00,231.15,1
209,218.80,230.93,1
207,218.56,230.69,1
209,218.37,230.47,1
207,218.14,230.24,1
207,217.92,230.01,1
207,217.70,229.78,1
207,217.49,229.55,1
206,217.26,229.31,1
207,217.05,229.09,1
207,216.85,228.87,1
207,216.66,228.65,1
206,216.44,228.42,1
205,216.21,228.19,1
206,216.01,227.97,1
207,215.83,227.76,1
206,215.63,227.54,1
205,215.42,227.32,1
205,215.21,227.09,1
205,215.01,226.87,1
205,214.81,226.65,1
204,214.59,226.43,1
205,214.40,226.21,1
204,214.19,225.99,1
204,213.99,225.77,1
203,213.77,225.54,1
203,213.55,225.32,1
203,213.34,225.09,1
201,213.09,224.85,1
203,212.89,224.63,1
203,212.69,224.42,1
202,212.48,224.19,1
203,212.29,223.98,1
201,212.07,223.75,1
200,211.82,223.51,1
202,211.63,223.30,1
200,211.40,223.07,1
201,211.19,222.85,1
202,211.00,222.64,1
201,210.80,222.42,1
201,210.61,222.21,1
200,210.40,221.98,1
199,210.17,221.76,1
201,209.98,221.55,1
201,209.80,221.34,1
200,209.61,221.13,1
199,209.40,220.91,1
199,209.19,220.69,1
200,209.00,220.48,1
200,208.82,220.28,1
201,208.67,220.08,1
199,208.47,219.87,1
199,208.29,219.66,1
198,208.08,219.45,1
198,207.88,219.23,1
199,207.70,219.03,1
199,207.53,218.83,1
198,207.34,218.62,1
197,207.13,218.41,1
197,206.93,218.19,1
197,206.73,217.98,1
197,206.53,217.77,1
197,206.34,217.56,1
199,206.20,217.38,1
197,206.01,217.17,1
197,205.83,216.97,1
197,205.66,216.77,1
198,205.50,216.58,1
195,205.29,216.37,1
195,205.09,216.15,1
196,204.90,215.95,1
195,204.71,215.74,1
195,204.51,215.54,1
195,204.32,215.33,1
194,204.12,215.12,1
194,203.91,214.91,1
194,203.71,214.70,1
195,203.54,214.50,1
193,203.33,214.29,1
193,203.12,214.07,1
192,202.90,213.85,1
193,202.70,213.64,1
192,202.49,213.43,1
192,202.28,213.21,1
192,202.07,213.00,1
192,201.87,212.79,1
191,201.65,212.57,1
191,201.44,212.36,1
191,201.23,212.14,1
192,201.05,211.94,1
191,200.85,211.73,1
190,200.63,211.51,1
191,200.44,211.31,1
191,200.25,211.11,1
189,200.02,210.89,1
189,199.80,210.67,1
191,199.63,210.47,1
189,199.41,210.26,1
189,199.21,210.04,1
188,198.98,209.82,1
189,198.78,209.61,1
190,198.61,209.42,1
189,198.41,209.21,1
188,198.21,209.00,1
189,198.02,208.80,1
187,197.80,208.58,1
188,197.61,208.38,1
187,197.39,208.16,1
188,197.21,207.96,1
188,197.02,207.76,1
187,196.82,207.56,1
186,196.60,207.34,1
188,196.43,207.15,1
187,196.24,206.94,1
185,196.02,206.73,1
187,195.84,206.53,1
186,195.64,206.32,1
185,195.43,206.11,1
185,195.22,205.90,1
185,195.02,205.69,1
185,194.82,205.48,1
185,194.62,205.28,1
184,194.41,205.07,1
185,194.22,204.86,1
185,194.03,204.67,1
184,193.83,204.46,1
184,193.64,204.25,1
184,193.44,204.05,1
184,193.26,203.85,1
184,193.07,203.65,1
184,192.89,203.46,1
184,192.71,203.26,1
183,192.52,203.06,1
183,192.33,202.86,1
181,192.10,202.64,1
183,191.92,202.44,1
181,191.70,202.23,1
181,191.49,202.02,1
182,191.30,201.82,1
181,191.09,201.61,1
181,190.89,201.40,1
181,190.69,201.20,1
181,190.50,201.00,1
181,190.31,200.80,1
181,190.12,200.60,1
180,189.92,200.39,1
181,189.74,200.20,1
180,189.55,200.00,1
179,189.33,199.79,1
180,189.15,199.59,1
180,188.96,199.39,1
181,188.81,199.21,1
179,188.61,199.01,1
180,188.44,198.82,1
179,188.25,198.62,1
179,188.06,198.42,1
180,187.90,198.24,1
179,187.72,198.05,1
179,187.55,197.86,1
178,187.36,197.66,1
178,187.17,197.46,1
180,187.03,197.29,1
177,186.83,197.08,1
178,186.65,196.89,1
177,186.46,196.69,1
178,186.29,196.51,1
177,186.10,196.31,1
177,185.92,196.12,1
177,185.74,195.93,1
176,185.55,195.73,1
179,185.42,195.56,1
176,185.23,195.36,1
176,185.04,195.17,1
176,184.86,194.98,1
175,184.67,194.78,1
176,184.49,194.59,1
176,184.32,194.41,1
174,184.12,194.20,1
176,183.95,194.02,1
173,183.73,193.81,1
175,183.56,193.62,1
175,183.39,193.44,1
174,183.20,193.24,1
174,183.02,193.05,1
175,182.86,192.87,1
174,182.68,192.68,1
175,182.53,192.50,1
174,182.36,192.32,1
174,182.19,192.13,1
173,182.00,191.94,1
175,181.86,191.77,1
173,181.69,191.59,1
173,181.51,191.40,1
173,181.34,191.22,1
173,181.18,191.03,1
172,180.99,190.84,1
172,180.81,190.66,1
172,180.64,190.47,1
171,180.44,190.27,1
173,180.30,190.10,1
172,180.13,189.92,1
172,179.97,189.74,1
171,179.79,189.55,1
171,179.61,189.37,1
171,179.44,189.18,1
172,179.29,189.01,1
170,179.10,188.82,1
171,178.94,188.64,1
169,178.74,188.45,1
171,178.59,188.27,1
171,178.44,188.10,1
170,178.27,187.92,1
169,178.08,187.73,1
171,177.94,187.56,1
169,177.76,187.38,1
169,177.59,187.19,1
173,177.50,187.05,1
170,177.35,186.88,1
169,177.18,186.70,1
168,177.00,186.52,1
168,176.82,186.33,1
168,176.64,186.15,1
169,176.49,185.98,1
167,176.30,185.79,1
167,176.11,185.60,1
168,175.95,185.42,1
167,175.77,185.24,1
165,175.55,185.04,1
166,175.36,184.84,1
166,175.18,184.66,1
166,174.99,184.47,1
165,174.79,184.28,1
166,174.62,184.09,1
167,174.46,183.92,1
165,174.27,183.73,1
165,174.09,183.54,1
165,173.91,183.36,1
165,173.73,183.18,1
165,173.55,182.99,1
165,173.38,182.81,1
164,173.20,182.63,1
165,173.03,182.45,1
164,172.85,182.27,1
165,172.69,182.09,1
166,172.56,181.93,1
163,172.37,181.74,1
163,172.18,181.55,1
163,172.00,181.37,1
164,171.84,181.20,1
163,171.66,181.01,1
164,171.51,180.84,1
163,171.34,180.67,1
164,171.19,180.50,1
163,171.03,180.32,1
164,170.89,180.16,1
163,170.73,179.99,1
164,170.59,179.83,1
164,170.46,179.67,1
163,170.31,179.50,1
164,170.19,179.35,1
162,170.02,179.18,1
162,169.86,179.00,1
163,169.73,178.84,1
165,169.63,178.71,1
162,169.48,178.54,1
161,169.31,178.36,1
161,169.14,178.19,1
161,168.98,178.02,1
162,168.84,177.86,1
161,168.68,177.69,1
161,168.53,177.52,1
167,168.50,177.42,1
161,168.35,177.25,1
161,168.20,177.09,1
161,168.06,176.93,1
161,167.92,176.77,1
161,167.78,176.61,1
163,167.68,176.48,1
162,167.57,176.33,1
161,167.44,176.18,1
161,167.31,176.03,1
160,167.16,175.87,1
161,167.04,175.72,1
161,166.92,175.57,1
160,166.78,175.41,1
159,166.63,175.25,1
160,166.49,175.10,1
159,166.34,174.94,1
159,166.20,174.78,1
159,166.05,174.62,1
159,165.91,174.46,1
160,165.79,174.32,1
159,165.66,174.17,1
158,165.50,174.00,1
159,165.37,173.85,1
158,165.23,173.70,1
160,165.12,173.56,1
159,165.00,173.41,1
159,164.88,173.27,1
159,164.76,173.13,1
158,164.63,172.97,1
159,164.51,172.83,1
160,164.42,172.71,1
157,164.28,172.55,1
157,164.13,172.39,1
158,164.01,172.25,1
157,163.87,172.10,1
158,163.75,171.96,1
157,163.61,171.81,1
157,163.48,171.66,1
160,163.41,171.54,1
159,163.32,171.42,1
157,163.20,171.27,1
157,163.07,171.13,1
157,162.95,170.99,1
156,162.81,170.84,1
156,162.68,170.69,1
158,162.58,170.56,1
157,162.47,170.43,1
155,162.32,170.27,1
156,162.20,170.13,1
156,162.07,169.99,1
157,161.97,169.86,1
157,161.87,169.73,1
157,161.77,169.60,1
155,161.64,169.46,1
154,161.49,169.30,1
155,161.36,169.16,1
157,161.27,169.04,1
155,161.14,168.90,1
155,161.02,168.76,1
155,160.90,168.62,1
155,160.78,168.49,1
156,160.69,168.36,1
157,160.61,168.25,1
157,160.54,168.13,1
154,160.41,167.99,1
157,160.34,167.88,1
157,160.27,167.77,1
156,160.19,167.66,1
155,160.09,167.53,1
155,159.98,167.40,1
156,159.90,167.29,1
157,159.85,167.19,1
155,159.75,167.07,1
156,159.67,166.96,1
156,159.60,166.85,1
155,159.51,166.73,1
155,159.42,166.61,1
157,159.37,166.51,1
155,159.28,166.40,1
154,159.18,166.27,1
153,159.05,166.14,1
154,158.95,166.02,1
155,158.87,165.91,1
153,158.76,165.78,1
156,158.70,165.68,1
156,158.65,165.59,1
153,158.53,165.46,1
154,158.44,165.35,1
155,158.37,165.24,1
153,158.27,165.12,1
154,158.18,165.01,1
153,158.08,164.89,1
152,157.96,164.76,1
156,157.92,164.67,1
154,157.84,164.57,1
152,157.72,164.44,1
152,157.61,164.32,1
152,157.50,164.19,1
153,157.41,164.08,1
153,157.32,163.97,1
152,157.21,163.85,1
153,157.13,163.74,1
153,157.04,163.63,1
152,156.94,163.52,1
153,156.86,163.41,1
151,156.75,163.29,1
151,156.63,163.17,1
152,156.54,163.05,1
151,156.43,162.93,1
149,156.28,162.79,1
151,156.17,162.68,1
152,156.09,162.57,1
153,156.03,162.47,1
151,155.93,162.36,1
151,155.83,162.25,1
149,155.69,162.11,1
151,155.60,162.00,1
152,155.53,161.90,1
152,155.46,161.80,1
151,155.37,161.69,1
151,155.28,161.59,1
150,155.18,161.47,1
151,155.09,161.37,1
150,154.99,161.25,1
151,154.91,161.15,1
150,154.81,161.04,1
151,154.74,160.94,1
151,154.66,160.84,1
150,154.57,160.73,1
149,154.46,160.61,1
149,154.35,160.50,1
152,154.30,160.41,1
152,154.25,160.33,1
151,154.19,160.24,1
151,154.13,160.14,1
150,154.04,160.04,1
151,153.98,159.95,1
151,153.92,159.86,1
151,153.86,159.77,1
151,153.81,159.69,1
149,153.71,159.58,1
150,153.64,159.48,1
151,153.58,159.40,1
151,153.53,159.31,1
150,153.46,159.22,1
151,153.41,159.14,1
151,153.36,159.06,1
149,153.28,158.96,1
149,153.19,158.86,1
148,153.09,158.75,1
150,153.03,158.66,1
151,152.99,158.58,1
149,152.91,158.49,1
149,152.83,158.39,1
149,152.75,158.30,1
149,152.68,158.21,1
149,152.60,158.11,1
148,152.51,158.01,1
148,152.42,157.91,1
151,152.39,157.84,1
149,152.32,157.76,1
147,152.22,157.65,1
149,152.15,157.56,1
148,152.07,157.47,1
149,152.01,157.38,1
148,151.93,157.29,1
147,151.83,157.18,1
147,151.73,157.08,1
148,151.66,156.99,1
149,151.61,156.91,1
149,151.55,156.83,1
147,151.46,156.73,1
149,151.41,156.66,1
151,151.40,156.60,1
149,151.36,156.52,1
149,151.31,156.45,1
149,151.26,156.38,1
149,151.22,156.30,1
149,151.17,156.23,1
149,151.13,156.16,1
151,151.13,156.10,1
148,151.06,156.02,1
149,151.02,155.95,1
149,150.98,155.88,1
149,150.94,155.81,1
150,150.92,155.76,1
148,150.87,155.68,1
147,150.79,155.59,1
148,150.73,155.52,1
148,150.68,155.44,1
148,150.62,155.37,1
148,150.57,155.29,1
149,150.54,155.23,1
147,150.47,155.15,1
149,150.44,155.09,1
149,150.41,155.03,1
150,150.40,154.98,1
150,150.40,154.93,1
151,150.41,154.89,1
149,150.38,154.83,1
150,150.37,154.78,1
149,150.34,154.72,1
148,150.30,154.65,1
145,150.19,154.56,1
148,150.15,154.49,1
150,150.14,154.45,1
148,150.10,154.38,1
148,150.06,154.32,1
148,150.02,154.26,1
149,150.00,154.20,1
152,150.04,154.18,1
149,150.02,154.13,1
147,149.96,154.06,1
148,149.92,154.00,1
147,149.86,153.93,1
149,149.84,153.88,1
150,149.85,153.84,1
153,149.91,153.83,1
149,149.89,153.78,1
149,149.87,153.73,1
152,149.92,153.72,1
150,149.92,153.68,1
150,149.92,153.64,1
151,149.94,153.62,1
151,149.96,153.59,1
149,149.94,153.55,1
155,150.04,153.56,1
153,150.10,153.55,1
154,150.18,153.56,1
155,150.28,153.57,1
155,150.37,153.59,1
152,150.40,153.57,1
153,150.46,153.57,1
156,150.57,153.59,1
156,150.68,153.61,1
153,150.72,153.61,1
155,150.81,153.62,1
153,150.85,153.62,1
157,150.97,153.65,1
154,151.03,153.65,1
154,151.09,153.66,1
153,151.13,153.65,1
156,151.23,153.67,1
153,151.27,153.67,1
153,151.30,153.66,1
152,151.31,153.64,1
153,151.35,153.64,1
153,151.38,153.63,1
152,151.39,153.61,1
152,151.41,153.60,1
151,151.40,153.57,1
153,151.43,153.57,1
153,151.46,153.56,1
153,151.49,153.56,1
153,151.52,153.55,1
152,151.53,153.53,1
151,151.52,153.51,1
152,151.53,153.49,1
152,151.54,153.48,1
151,151.53,153.45,1
153,151.56,153.45,1
151,151.55,153.42,1
151,151.54,153.40,1
151,151.53,153.38,1
152,151.53,153.36,1
152,151.54,153.35,1
152,151.55,153.34,1
151,151.54,153.31,1
151,151.53,153.29,1
151,151.52,153.27,1
150,151.49,153.23,1
151,151.48,153.21,1
151,151.47,153.19,1
150,151.44,153.16,1
151,151.43,153.14,1
149,151.38,153.09,1
149,151.34,153.05,1
152,151.35,153.04,1
151,151.34,153.02,1
151,151.34,153.00,1
149,151.29,152.96,1
151,151.28,152.94,1
150,151.26,152.91,1
151,151.25,152.89,1
152,151.27,152.89,1
153,151.30,152.89,1
151,151.30,152.87,1
152,151.31,152.86,1
151,151.30,152.84,1
153,151.34,152.84,1
153,151.37,152.84,1
156,151.46,152.87,1
152,151.47,152.87,1
155,151.54,152.89,1
153,151.57,152.89,1
157,151.68,152.93,1
152,151.69,152.92,1
153,151.72,152.92,1
156,151.80,152.95,1
155,151.86,152.97,1
156,151.95,153.00,1
156,152.03,153.03,1
155,152.09,153.05,1
154,152.13,153.06,1
153,152.14,153.06,1
153,152.16,153.06,1
153,152.18,153.06,1
153,152.19,153.06,1
153,152.21,153.06,1
152,152.21,153.05,1
153,152.22,153.05,1
152,152.22,153.04,1
153,152.23,153.04,1
153,152.25,153.04,1
152,152.24,153.03,1
152,152.24,153.02,1
151,152.21,153.00,1
151,152.19,152.98,1
155,152.25,153.00,1
153,152.26,153.00,1
151,152.24,152.98,1
152,152.23,152.97,1
152,152.23,152.96,1
154,152.26,152.97,1
153,152.28,152.97,1
152,152.27,152.96,1
153,152.29,152.96,1
151,152.26,152.94,1
153,152.27,152.94,1
151,152.25,152.92,1
151,152.22,152.90,1
154,152.26,152.91,1
153,152.27,152.91,1
153,152.29,152.91,1
153,152.30,152.91,1
152,152.30,152.91,1
151,152.27,152.89,1
152,152.27,152.88,1
153,152.28,152.88,1
151,152.25,152.86,1
152,152.25,152.85,1
151,152.22,152.83,1
151,152.20,152.81,1
153,152.22,152.82,1
151,152.19,152.80,1
151,152.17,152.78,1
150,152.12,152.75,1
151,152.10,152.73,1
150,152.06,152.71,1
151,152.04,152.69,1
150,152.00,152.66,1
149,151.94,152.63,1
147,151.84,152.57,1
149,151.78,152.53,1
149,151.73,152.50,1
149,151.67,152.46,1
151,151.66,152.45,1
151,151.65,152.44,1
149,151.59,152.40,1
149,151.54,152.37,1
149,151.49,152.33,1
153,151.52,152.34,1
151,151.51,152.33,1
152,151.52,152.32,1
152,151.53,152.32,1
150,151.50,152.30,1
153,151.53,152.30,1
150,151.50,152.28,1
151,151.49,152.27,1
149,151.44,152.24,1
149,151.39,152.20,1
152,151.40,152.20,1
149,151.35,152.17,1
150,151.33,152.15,1
149,151.28,152.12,1
149,151.23,152.08,1
153,151.27,152.09,1
150,151.24,152.07,1
149,151.20,152.04,1
152,151.22,152.04,1
153,151.25,152.05,1
151,151.25,152.04,1
150,151.22,152.02,1
150,151.20,152.00,1
153,151.23,152.01,1
152,151.25,152.01,1
150,151.22,151.99,1
152,151.24,151.99,1
151,151.23,151.98,1
150,151.21,151.96,1
149,151.17,151.93,1
152,151.18,151.93,1
153,151.22,151.94,1
152,151.23,151.94,1
152,151.25,151.94,1
156,151.34,151.98,1
153,151.38,151.99,1
150,151.35,151.97,1
151,151.34,151.96,1
151,151.34,151.95,1
152,151.35,151.96,1
152,151.36,151.96,1
152,151.38,151.96,1
153,151.41,151.97,1
151,151.40,151.96,1
153,151.43,151.97,1
153,151.46,151.98,1
150,151.43,151.96,1
151,151.42,151.95,1
155,151.50,151.98,1
153,151.53,151.99,1
153,151.56,152.00,1
157,151.66,152.05,1
156,151.75,152.09,1
154,151.80,152.11,1
153,151.82,152.12,1
153,151.84,152.13,1
153,151.87,152.13,1
153,151.89,152.14,1
155,151.95,152.17,1
155,152.01,152.20,1
160,152.17,152.28,2
156,152.25,152.32,2
155,152.30,152.34,3
160,152.46,152.42,3
161,152.63,152.50,4
159,152.76,152.57,4
157,152.84,152.61,4
159,152.96,152.68,4
159,153.09,152.74,4
157,153.16,152.78,4
165,153.40,152.91,4
163,153.59,153.01,4
161,153.74,153.09,4
160,153.87,153.16,4
163,154.05,153.25,4
171,154.39,153.43,4
171,154.72,153.61,4
167,154.97,153.74,4
165,155.17,153.85,4
163,155.32,153.95,4
167,155.56,154.08,4
168,155.81,154.21,4
164,155.97,154.31,4
164,156.13,154.41,4
166,156.33,154.53,4
172,156.64,154.70,4
165,156.81,154.80,4
165,156.97,154.91,4
165,157.13,155.01,4
168,157.35,155.14,4
166,157.52,155.24,4
166,157.69,155.35,4
169,157.92,155.49,4
171,158.18,155.64,4
167,158.36,155.76,4
168,158.55,155.88,4
168,158.74,156.00,4
169,158.94,156.13,4
168,159.12,156.25,4
167,159.28,156.36,4
168,159.46,156.47,4
168,159.63,156.59,4
169,159.81,156.71,4
168,159.98,156.83,4
169,160.16,156.95,4
166,160.28,157.04,4
167,160.41,157.14,4
167,160.54,157.24,4
166,160.65,157.32,4
169,160.82,157.44,4
168,160.96,157.55,4
167,161.08,157.64,4
165,161.16,157.71,4
168,161.30,157.82,4
167,161.41,157.91,4
167,161.52,158.00,4
166,161.61,158.08,4
173,161.84,158.23,4
171,162.02,158.36,4
167,162.12,158.44,4
171,162.30,158.57,4
171,162.48,158.69,4
171,162.65,158.82,4
174,162.87,158.97,4
175,163.12,159.13,4
181,163.47,159.35,4
179,163.78,159.54,4
177,164.05,159.72,4
175,164.27,159.87,4
177,164.52,160.04,4
178,164.79,160.22,4
176,165.02,160.38,4
179,165.29,160.57,4
185,165.69,160.81,4
190,166.18,161.10,4
186,166.57,161.35,4
183,166.90,161.57,4
189,167.34,161.84,4
195,167.90,162.17,4
197,168.48,162.52,4
191,168.93,162.81,4
188,169.31,163.06,4
187,169.66,163.30,4
193,170.13,163.60,4
192,170.57,163.88,4
189,170.94,164.13,4
188,171.28,164.37,4
189,171.63,164.62,4
188,171.96,164.85,4
189,172.30,165.09,4
189,172.63,165.33,4
187,172.92,165.55,4
191,173.28,165.80,4
188,173.58,166.02,4
189,173.89,166.25,4
192,174.25,166.51,4
189,174.54,166.74,4
189,174.83,166.96,4
189,175.12,167.18,4
189,175.39,167.40,4
187,175.63,167.59,4
191,175.93,167.83,4
190,176.21,168.05,4
198,176.65,168.35,4
198,177.08,168.64,4
192,177.38,168.88,4
193,177.69,169.12,4
197,178.07,169.40,4
201,178.53,169.71,4
201,178.98,170.03,4
200,179.40,170.33,4
195,179.71,170.57,4
195,180.02,170.82,4
195,180.32,171.06,4
196,180.63,171.31,4
204,181.10,171.64,4
203,181.54,171.95,4
200,181.91,172.23,4
197,182.21,172.48,4
200,182.57,172.75,4
201,182.93,173.04,4
201,183.30,173.31,4
199,183.61,173.57,4
197,183.88,173.81,4
197,184.14,174.04,4
197,184.40,174.27,4
198,184.67,174.50,4
197,184.92,174.73,4
197,185.16,174.95,4
198,185.41,175.18,4
204,185.79,175.47,4
199,186.05,175.71,4
201,186.35,175.96,4
199,186.60,176.19,4
199,186.85,176.42,4
201,187.13,176.66,4
203,187.45,176.93,4
201,187.72,177.17,4
201,187.99,177.41,4
199,188.21,177.62,4
201,188.46,177.86,4
199,188.67,178.07,4
200,188.90,178.29,4
198,189.08,178.48,4
201,189.32,178.71,4
207,189.67,178.99,4
203,189.94,179.23,4
200,190.14,179.44,4
201,190.36,179.66,4
204,190.63,179.90,4
203,190.88,180.13,4
201,191.08,180.34,4
201,191.28,180.54,4
203,191.51,180.77,4
204,191.76,181.00,4
201,191.95,181.20,4
203,192.17,181.42,4
202,192.37,181.63,4
202,192.56,181.83,4
202,192.75,182.03,4
202,192.93,182.23,4
202,193.11,182.43,4
204,193.33,182.64,4
201,193.49,182.83,4
201,193.64,183.01,4
201,193.78,183.19,4
201,193.93,183.37,4
200,194.05,183.53,4
200,194.17,183.70,4
201,194.30,183.87,4
204,194.50,184.07,4
200,194.61,184.23,4
201,194.74,184.40,4
201,194.86,184.57,4
202,195.00,184.74,4
200,195.10,184.89,4
201,195.22,185.05,4
201,195.34,185.21,4
206,195.55,185.42,4
205,195.74,185.62,4
203,195.89,185.79,4
201,195.99,185.94,4
203,196.13,186.11,4
202,196.25,186.27,4
206,196.44,186.47,4
209,196.69,186.69,4
208,196.92,186.91,4
213,197.24,187.17,4
205,197.39,187.35,4
208,197.61,187.55,4
205,197.75,187.73,4
207,197.94,187.92,4
207,198.12,188.11,4
207,198.30,188.30,4
218,198.69,188.60,4
218,199.08,188.89,4
215,199.40,189.15,4
217,199.75,189.43,4
214,200.03,189.68,4
219,200.41,189.97,4
216,200.73,190.23,4
215,201.01,190.48,4
219,201.37,190.76,4
213,201.60,190.99,4
213,201.83,191.21,4
213,202.05,191.42,4
213,202.27,191.64,4
213,202.49,191.85,4
214,202.72,192.07,4
215,202.96,192.30,4
225,203.40,192.63,4
223,203.80,192.93,4
216,204.04,193.17,4
217,204.30,193.40,4
220,204.61,193.67,4
218,204.88,193.91,4
223,205.24,194.20,4
217,205.48,194.43,4
218,205.73,194.67,4
218,205.97,194.90,4
219,206.24,195.14,4
221,206.53,195.40,4
217,206.74,195.62,4
216,206.93,195.82,4
223,207.25,196.09,4
224,207.58,196.37,4
227,207.97,196.68,4
224,208.29,196.95,4
226,208.64,197.24,4
227,209.01,197.54,4
230,209.43,197.86,4
227,209.78,198.15,4
227,210.13,198.44,4
226,210.44,198.72,4
225,210.74,198.98,4
224,211.00,199.23,4
223,211.24,199.47,4
224,211.50,199.71,4
224,211.75,199.96,4
223,211.97,200.19,4
224,212.21,200.43,4
226,212.49,200.68,4
237,212.98,201.04,4
239,213.50,201.42,4
234,213.91,201.75,4
233,214.29,202.06,4
240,214.80,202.44,4
241,215.33,202.83,4
237,215.76,203.17,4
234,216.13,203.48,4
235,216.50,203.79,4
236,216.89,204.11,4
235,217.26,204.42,4
236,217.63,204.74,4
238,218.04,205.07,4
239,218.46,205.41,4
240,218.89,205.76,4
239,219.29,206.09,4
239,219.69,206.42,4
237,220.03,206.72,4
249,220.61,207.15,4
251,221.22,207.59,4
245,221.69,207.96,4
251,222.28,208.39,4
256,222.95,208.87,4
256,223.62,209.34,4
257,224.28,209.81,4
254,224.88,210.26,4
249,225.36,210.64,4
251,225.87,211.05,4
254,226.44,211.48,4
252,226.95,211.88,4
249,227.39,212.25,4
249,227.82,212.62,4
252,228.30,213.01,4
248,228.70,213.36,4
252,229.16,213.75,4
257,229.72,214.18,4
253,230.19,214.57,4
263,230.84,215.06,4
265,231.53,215.56,4
255,231.99,215.95,4
258,232.52,216.37,4
267,233.20,216.88,4
269,233.92,217.40,4
265,234.54,217.87,4
265,235.15,218.35,4
260,235.65,218.76,4
261,236.16,219.18,4
259,236.61,219.58,4
262,237.12,220.01,4
260,237.58,220.41,4
266,238.15,220.86,4
263,238.64,221.28,4
260,239.07,221.67,4
260,239.49,222.05,4
265,240.00,222.48,4
267,240.54,222.93,4
263,240.99,223.33,4
271,241.59,223.81,4
264,242.04,224.21,4
265,242.50,224.62,4
269,243.03,225.06,4
267,243.51,225.48,4
268,244.00,225.90,4
273,244.58,226.38,4
274,245.16,226.85,4
268,245.62,227.26,4
273,246.17,227.72,4
267,246.59,228.11,4
269,247.03,228.52,4
267,247.43,228.91,4
269,247.86,229.31,4
273,248.37,229.74,4
274,248.88,230.19,4
273,249.36,230.62,4
269,249.75,231.00,4
275,250.26,231.44,4
280,250.85,231.92,4
281,251.46,232.42,4
274,251.91,232.83,4
274,252.35,233.24,4
275,252.80,233.66,4
279,253.33,234.11,4
277,253.80,234.54,4
284,254.40,235.04,4
287,255.06,235.56,4
282,255.60,236.02,4
280,256.08,236.46,4
284,256.64,236.94,4
283,257.17,237.40,4
288,257.79,237.90,4
289,258.41,238.41,4
289,259.02,238.92,4
285,259.54,239.38,4
285,260.05,239.84,4
285,260.55,240.29,4
287,261.08,240.76,4
284,261.54,241.19,4
291,262.13,241.69,4
297,262.82,242.24,4
296,263.49,242.78,4
293,264.08,243.28,4
292,264.64,243.77,4
295,265.24,244.28,4
296,265.86,244.80,4
299,266.52,245.34,4
294,267.07,245.83,4
293,267.59,246.30,4
291,268.06,246.74,4
295,268.60,247.23,4
299,269.20,247.74,4
299,269.80,248.26,4
293,270.26,248.70,4
296,270.78,249.18,4
296,271.28,249.65,4
296,271.78,250.11,4
297,272.28,250.58,4
302,272.88,251.09,4
299,273.40,251.57,4
297,273.87,252.03,4
309,274.57,252.60,4
310,275.28,253.17,4
311,276.00,253.75,4
307,276.62,254.28,4
302,277.12,254.76,4
307,277.72,255.28,4
312,278.41,255.85,4
304,278.92,256.33,4
305,279.44,256.82,4
305,279.95,257.30,4
318,280.71,257.90,4
317,281.44,258.49,4
307,281.95,258.98,4
320,282.71,259.59,4
321,283.48,260.20,4
316,284.13,260.76,4
314,284.72,261.29,4
319,285.41,261.87,4
319,286.08,262.44,4
319,286.74,263.01,4
319,287.39,263.57,4
320,288.04,264.13,4
327,288.82,264.76,4
330,289.64,265.41,4
328,290.41,266.04,4
320,291.00,266.58,4
322,291.62,267.13,4
320,292.19,267.66,4
320,292.74,268.19,4
329,293.47,268.79,4
333,294.26,269.44,4
333,295.03,270.07,4
324,295.61,270.61,4
332,296.34,271.22,4
335,297.11,271.86,4
328,297.73,272.42,4
329,298.36,272.99,4
331,299.01,273.57,4
326,299.55,274.09,4
329,300.14,274.64,4
330,300.74,275.20,4
331,301.34,275.75,4
327,301.85,276.27,4
329,302.40,276.79,4
329,302.93,277.32,4
332,303.51,277.86,4
329,304.02,278.37,4
333,304.60,278.92,4
333,305.17,279.46,4
329,305.65,279.96,4
333,306.19,280.49,4
340,306.87,281.08,4
343,307.59,281.70,4
332,308.08,282.20,4
338,308.68,282.76,4
341,309.32,283.35,4
346,310.06,283.97,4
343,310.72,284.56,4
341,311.32,285.13,4
349,312.08,285.77,4
351,312.85,286.42,4
352,313.64,287.07,4
344,314.24,287.64,4
346,314.88,288.23,4
351,315.60,288.85,4
354,316.37,289.51,4
349,317.02,290.10,4
349,317.66,290.69,4
345,318.21,291.23,4
347,318.78,291.79,4
348,319.37,292.35,4
350,319.98,292.93,4
349,320.56,293.49,4
353,321.21,294.08,4
359,321.97,294.73,4
361,322.75,295.40,4
362,323.53,296.06,4
357,324.20,296.67,4
365,325.02,297.35,4
368,325.88,298.06,4
370,326.76,298.78,4
370,327.62,299.49,4
360,328.27,300.10,4
369,329.09,300.79,4
374,329.98,301.52,4
373,330.85,302.23,4
367,331.57,302.88,4
371,332.36,303.56,4
370,333.11,304.23,4
365,333.75,304.84,4
368,334.43,305.47,4
369,335.12,306.10,4
365,335.72,306.69,4
367,336.35,307.29,4
375,337.12,307.97,4
373,337.84,308.62,4
368,338.44,309.22,4
368,339.03,309.80,4
378,339.81,310.49,4
381,340.64,311.19,4
381,341.44,311.89,4
372,342.05,312.49,4
383,342.87,313.19,4
387,343.76,313.93,4
388,344.64,314.67,4
385,345.45,315.38,4
377,346.08,315.99,4
384,346.84,316.67,4
382,347.54,317.33,4
388,348.35,318.03,4
393,349.24,318.78,4
388,350.02,319.47,4
381,350.64,320.09,4
383,351.28,320.72,4
382,351.90,321.33,4
383,352.52,321.95,4
384,353.15,322.57,4
381,353.71,323.15,4
381,354.25,323.73,4
390,354.97,324.39,4
391,355.69,325.06,4
383,356.24,325.64,4
390,356.91,326.28,4
396,357.69,326.98,4
395,358.44,327.66,4
399,359.25,328.37,4
397,360.00,329.06,4
388,360.56,329.65,4
391,361.17,330.26,4
395,361.85,330.91,4
392,362.45,331.52,4
393,363.06,332.14,4
388,363.56,332.70,4
390,364.09,333.27,4
388,364.57,333.82,4
387,365.02,334.35,4
387,365.46,334.87,4
388,365.91,335.41,4
388,366.35,335.93,4
387,366.76,336.44,4
388,367.19,336.96,4
388,367.60,337.47,4
385,367.95,337.94,4
386,368.31,338.42,4
389,368.73,338.93,4
394,369.23,339.48,4
395,369.75,340.04,4
387,370.09,340.51,4
393,370.55,341.03,4
396,371.06,341.58,4
392,371.48,342.08,4
388,371.81,342.54,4
388,372.13,343.00,4
389,372.47,343.46,4
389,372.80,343.91,4
388,373.10,344.35,4
386,373.36,344.77,4
387,373.64,345.19,4
384,373.84,345.58,4
384,374.05,345.97,4
385,374.27,346.36,4
383,374.44,346.72,4
384,374.63,347.09,4
381,374.76,347.43,4
381,374.88,347.77,4
381,375.01,348.10,4
381,375.13,348.43,4
379,375.20,348.74,4
381,375.32,349.06,4
382,375.45,349.39,4
382,375.58,349.71,4
379,375.65,350.01,4
377,375.68,350.28,4
379,375.75,350.56,4
377,375.77,350.83,4
376,375.77,351.08,4
376,375.78,351.33,4
379,375.84,351.61,4
375,375.83,351.84,4
374,375.79,352.06,4
373,375.73,352.27,4
373,375.68,352.48,4
372,375.61,352.67,4
372,375.53,352.87,4
372,375.46,353.06,4
372,375.39,353.25,4
369,375.27,353.41,4
371,375.18,353.58,4
369,375.06,353.74,4
369,374.94,353.89,4
369,374.82,354.04,4
369,374.70,354.19,4
367,374.55,354.32,4
367,374.40,354.44,4
367,374.25,354.57,4
365,374.06,354.67,4
365,373.88,354.78,4
367,373.74,354.90,4
364,373.55,354.99,4
364,373.36,355.08,4
365,373.19,355.18,4
364,373.01,355.27,4
363,372.81,355.35,4
365,372.65,355.44,4
364,372.48,355.53,4
362,372.27,355.59,4
362,372.06,355.66,4
363,371.88,355.73,4
362,371.68,355.79,4
361,371.47,355.84,4
361,371.26,355.90,4
362,371.08,355.96,4
360,370.85,356.00,4
361,370.66,356.05,4
359,370.42,356.08,4
358,370.18,356.10,4
358,369.93,356.12,4
358,369.69,356.13,4
357,369.44,356.14,4
356,369.17,356.14,4
357,368.93,356.15,4
355,368.65,356.14,4
354,368.36,356.12,4
354,368.07,356.10,4
353,367.77,356.06,4
352,367.45,356.02,4
352,367.14,355.98,4
351,366.82,355.93,4
352,366.52,355.89,4
351,366.21,355.85,4
350,365.89,355.79,4
348,365.53,355.71,4
350,365.22,355.65,4
348,364.88,355.58,4
348,364.54,355.50,4
347,364.19,355.42,4
346,363.82,355.32,4
346,363.47,355.23,4
345,363.10,355.13,4
345,362.74,355.02,4
345,362.38,354.92,4
344,362.01,354.82,4
343,361.63,354.70,4
346,361.32,354.61,4
342,360.93,354.48,4
342,360.56,354.36,4
341,360.17,354.23,4
343,359.82,354.11,4
340,359.43,353.97,4
340,359.04,353.83,4
341,358.68,353.70,4
340,358.30,353.57,4
341,357.96,353.44,4
339,357.58,353.30,4
338,357.19,353.14,4
338,356.80,352.99,4
337,356.41,352.83,4
337,356.02,352.67,4
336,355.62,352.51,4
336,355.23,352.34,4
337,354.86,352.19,4
334,354.44,352.01,4
334,354.03,351.83,4
335,353.65,351.66,4
334,353.26,351.48,4
332,352.84,351.29,4
332,352.42,351.09,4
331,351.99,350.89,4
332,351.59,350.70,4
331,351.18,350.51,4
330,350.76,350.30,4
329,350.32,350.09,4
329,349.89,349.88,5
328,349.46,349.66,5
328,349.03,349.44,5
328,348.61,349.23,5
326,348.15,349.00,5
326,347.71,348.77,5
327,347.30,348.55,5
325,346.85,348.31,5
324,346.39,348.07,5
323,345.93,347.82,5
324,345.49,347.58,5
323,345.04,347.34,5
322,344.58,347.08,5
321,344.11,346.82,5
321,343.64,346.56,5
321,343.19,346.31,5
320,342.73,346.04,5
320,342.27,345.78,5
320,341.83,345.53,5
319,341.37,345.26,5
319,340.92,345.00,5
317,340.44,344.72,5
318,340.00,344.45,5
317,339.54,344.18,5
317,339.09,343.90,5
315,338.60,343.62,5
317,338.17,343.35,5
315,337.71,343.07,5
315,337.25,342.79,5
314,336.79,342.50,5
313,336.31,342.20,5
312,335.83,341.90,5
313,335.37,341.61,5
312,334.90,341.32,5
312,334.44,341.02,5
310,333.96,340.71,5
310,333.48,340.41,5
311,333.03,340.11,5
309,332.55,339.80,5
309,332.08,339.49,5
308,331.59,339.18,5
308,331.12,338.87,5
307,330.64,338.55,5
311,330.25,338.27,5
307,329.78,337.96,5
307,329.33,337.65,5
306,328.86,337.33,5
305,328.38,337.01,5
305,327.92,336.69,5
306,327.48,336.38,5
304,327.01,336.06,5
304,326.55,335.74,5
303,326.08,335.41,5
303,325.61,335.09,5
302,325.14,334.76,5
301,324.66,334.42,5
301,324.19,334.08,5
301,323.72,333.75,5
300,323.25,333.42,5
298,322.74,333.06,5
300,322.29,332.73,5
299,321.82,332.39,5
298,321.35,332.05,5
299,320.90,331.72,5
297,320.42,331.37,5
297,319.95,331.03,5
296,319.47,330.68,5
295,318.98,330.32,5
295,318.50,329.97,5
295,318.03,329.62,5
294,317.55,329.26,5
294,317.08,328.91,5
296,316.66,328.58,5
293,316.19,328.22,5
292,315.70,327.86,5
292,315.23,327.50,5
292,314.77,327.15,5
291,314.29,326.79,5
290,313.80,326.42,5
289,313.31,326.04,5
290,312.84,325.68,5
289,312.37,325.32,5
289,311.90,324.95,5
288,311.42,324.58,5
289,310.97,324.23,5
287,310.49,323.86,5
287,310.02,323.49,5
287,309.56,323.12,5
287,309.11,322.76,5
286,308.65,322.39,5
285,308.18,322.02,5
284,307.69,321.64,5
284,307.22,321.26,5
285,306.77,320.90,5
284,306.32,320.53,5
282,305.83,320.15,5
283,305.38,319.78,5
283,304.93,319.41,5
282,304.47,319.03,5
281,304.00,318.65,5
281,303.54,318.28,5
280,303.07,317.89,5
280,302.61,317.52,5
279,302.14,317.13,5
279,301.67,316.75,5
279,301.22,316.37,5
279,300.77,316.00,5
278,300.32,315.62,5
278,299.87,315.24,5
277,299.42,314.86,5
276,298.95,314.47,5
278,298.53,314.11,5
275,298.06,313.71,5
275,297.60,313.33,5
275,297.14,312.94,5
275,296.70,312.56,5
274,296.25,312.18,5
274,295.80,311.80,5
274,295.37,311.42,5
273,294.92,311.04,5
272,294.46,310.64,5
273,294.03,310.27,5
273,293.61,309.90,5
273,293.20,309.53,5
271,292.76,309.14,5
272,292.34,308.77,5
271,291.91,308.39,5
272,291.51,308.03,5
270,291.08,307.65,5
270,290.66,307.27,5
270,290.25,306.90,5
271,289.86,306.54,5
269,289.45,306.16,5
268,289.02,305.78,5
270,288.64,305.43,5
269,288.25,305.06,5
268,287.84,304.69,5
268,287.44,304.32,5
268,287.05,303.96,5
269,286.69,303.61,5
268,286.32,303.25,5
267,285.93,302.89,5
266,285.53,302.52,5
265,285.12,302.15,5
265,284.72,301.78,5
264,284.31,301.40,5
265,283.92,301.03,5
264,283.52,300.66,5
263,283.11,300.29,5
264,282.73,299.92,5
265,282.38,299.58,5
263,281.99,299.21,5
263,281.61,298.85,5
261,281.20,298.47,5
261,280.79,298.09,5
263,280.44,297.74,5
262,280.07,297.39,5
261,279.69,297.02,5
261,279.31,296.66,5
260,278.93,296.30,5
260,278.55,295.93,5
260,278.18,295.57,5
259,277.79,295.21,5
259,277.42,294.85,5
259,277.05,294.49,5
259,276.69,294.13,5
261,276.37,293.80,5
259,276.03,293.45,5
257,275.65,293.09,5
257,275.27,292.73,5
257,274.91,292.37,5
257,274.55,292.02,5
258,274.22,291.68,5
257,273.87,291.33,5
257,273.54,290.99,5
255,273.17,290.63,5
256,272.82,290.28,5
257,272.51,289.95,5
256,272.18,289.61,5
256,271.85,289.27,5
257,271.56,288.95,5
257,271.26,288.63,5
254,270.92,288.28,5
255,270.60,287.95,5
255,270.29,287.62,5
253,269.94,287.27,5
254,269.62,286.94,5
253,269.29,286.60,5
252,268.95,286.26,5
253,268.63,285.92,5
253,268.31,285.59,5
253,268.01,285.27,5
257,267.79,284.99,5
252,267.47,284.66,5
251,267.14,284.32,5
253,266.86,284.01,5
253,266.58,283.70,5
253,266.31,283.39,5
252,266.02,283.08,5
251,265.72,282.75,5
251,265.43,282.44,5
252,265.16,282.13,5
251,264.88,281.82,5
251,264.60,281.51,5
251,264.33,281.21,5
249,264.02,280.89,5
251,263.76,280.59,5
250,263.49,280.28,5
251,263.24,279.99,5
249,262.95,279.68,5
249,262.67,279.37,5
248,262.38,279.06,5
248,262.09,278.75,5
248,261.81,278.44,5
247,261.51,278.13,5
247,261.22,277.81,5
248,260.96,277.52,5
247,260.68,277.21,5
247,260.41,276.91,5
247,260.14,276.61,5
245,259.84,276.29,5
247,259.58,276.00,5
247,259.33,275.71,5
246,259.06,275.41,5
245,258.78,275.11,5
245,258.50,274.81,5
246,258.25,274.52,5
245,257.99,274.23,5
246,257.75,273.94,5
244,257.47,273.64,5
244,257.20,273.35,5
243,256.92,273.04,5
243,256.64,272.74,5
243,256.37,272.45,5
242,256.08,272.14,5
243,255.82,271.85,5
241,255.52,271.54,5
242,255.25,271.25,5
243,255.01,270.96,5
243,254.77,270.68,5
242,254.51,270.40,5
241,254.24,270.10,5
241,253.98,269.81,5
244,253.78,269.55,5
241,253.52,269.27,5
241,253.27,268.99,5
242,253.05,268.72,5
240,252.79,268.43,5
242,252.57,268.16,5
241,252.34,267.89,5
241,252.11,267.62,5
239,251.85,267.34,5
239,251.59,267.05,5
237,251.30,266.75,5
238,251.03,266.47,5
238,250.77,266.18,5
238,250.52,265.90,5
238,250.27,265.62,5
239,250.04,265.35,5
241,249.86,265.11,5
237,249.60,264.83,5
237,249.35,264.55,5
237,249.11,264.28,5
237,248.86,264.00,5
240,248.69,263.76,5
239,248.49,263.52,5
239,248.30,263.27,5
237,248.08,263.01,5
237,247.86,262.75,5
236,247.62,262.48,5
236,247.39,262.22,5
236,247.16,261.95,5
236,246.93,261.69,5
236,246.72,261.44,5
235,246.48,261.17,5
235,246.25,260.91,5
233,245.99,260.63,5
234,245.75,260.37,5
233,245.49,260.09,5
233,245.24,259.82,5
233,245.00,259.55,5
232,244.74,259.28,5
233,244.50,259.01,5
233,244.27,258.75,5
233,244.05,258.50,5
232,243.81,258.23,5
233,243.59,257.98,5
231,243.34,257.71,5
233,243.13,257.46,5
233,242.93,257.22,5
235,242.77,257.00,5
231,242.54,256.74,5
231,242.30,256.48,5
233,242.12,256.24,5
233,241.94,256.01,5
235,241.80,255.80,5
235,241.66,255.59,5
233,241.49,255.37,5
231,241.28,255.12,5
232,241.09,254.89,5
232,240.91,254.66,5
230,240.69,254.42,5
231,240.50,254.18,5
231,240.31,253.95,5
231,240.12,253.72,5
231,239.94,253.49,5
229,239.72,253.25,5
229,239.51,253.01,5
229,239.30,252.77,5
229,239.09,252.53,5
228,238.87,252.28,5
227,238.63,252.03,5
227,238.40,251.78,5
228,238.19,251.54,5
228,237.99,251.31,5
226,237.75,251.05,5
226,237.51,250.80,5
227,237.30,250.57,5
227,237.10,250.33,5
225,236.85,250.08,5
225,236.62,249.83,5
225,236.39,249.58,5
225,236.16,249.33,5
224,235.91,249.08,5
224,235.68,248.83,5
224,235.44,248.58,5
224,235.21,248.33,5
224,234.99,248.09,5
223,234.75,247.84,5
222,234.49,247.58,5
224,234.28,247.35,5
222,234.04,247.09,5
223,233.82,246.85,5
224,233.62,246.62,5
222,233.39,246.38,5
222,233.16,246.13,5
221,232.92,245.88,5
222,232.70,245.64,5
220,232.45,245.39,5
223,232.26,245.16,5
222,232.05,244.93,5
221,231.83,244.69,5
222,231.63,244.46,5
221,231.42,244.23,5
220,231.19,243.99,5
221,230.99,243.76,5
221,230.79,243.53,5
221,230.59,243.30,5
221,230.40,243.08,5
219,230.17,242.84,5
219,229.95,242.60,5
219,229.73,242.37,5
219,229.52,242.13,5
218,229.29,241.89,5
219,229.08,241.66,5
219,228.88,241.44,5
221,228.72,241.23,5
217,228.49,240.99,5
219,228.30,240.77,5
219,228.11,240.55,5
218,227.91,240.33,5
219,227.73,240.11,5
217,227.52,239.88,5
217,227.31,239.65,5
219,227.14,239.45,5
217,226.94,239.22,5
216,226.72,238.99,5
216,226.50,238.76,5
218,226.33,238.55,5
215,226.11,238.32,5
215,225.89,238.08,5
215,225.67,237.85,5
215,225.45,237.62,5
214,225.23,237.39,5
214,225.00,237.15,5
214,224.78,236.92,5
214,224.56,236.69,5
216,224.39,236.49,5
214,224.19,236.26,5
213,223.96,236.03,5
213,223.74,235.80,5
212,223.51,235.56,5
213,223.30,235.33,5
215,223.13,235.13,5
213,222.93,234.91,5
213,222.73,234.69,5
212,222.52,234.46,5
211,222.29,234.23,5
212,222.08,234.01,5
212,221.88,233.79,5
212,221.68,233.57,5
212,221.49,233.35,5
211,221.28,233.13,5
211,221.07,232.91,5
212,220.89,232.70,5
212,220.71,232.49,5
214,220.58,232.31,5
211,220.39,232.09,5
211,220.20,231.88,5
209,219.98,231.65,5
210,219.78,231.44,5
209,219.56,231.21,5
209,219.35,230.99,5
209,219.14,230.77,5
209,218.94,230.55,5
207,218.70,230.32,5
209,218.51,230.11,5
208,218.30,229.88,5
207,218.07,229.66,5
208,217.87,229.44,5
207,217.65,229.21,5
207,217.44,228.99,5
207,217.23,228.77,5
207,217.03,228.55,5
208,216.84,228.35,5
206,216.63,228.13,5
205,216.40,227.89,5
205,216.17,227.67,5
207,215.98,227.46,5
205,215.76,227.23,5
205,215.55,227.01,5
205,215.34,226.79,5
205,215.13,226.57,5
204,214.91,226.35,5
204,214.69,226.12,5
205,214.50,225.91,5
204,214.29,225.69,5
205,214.10,225.49,5
204,213.90,225.27,5
204,213.70,225.06,5
206,213.55,224.87,5
203,213.34,224.65,5
203,213.13,224.43,5
203,212.93,224.22,5
203,212.73,224.01,5
203,212.53,223.80,5
203,212.34,223.59,5
201,212.12,223.36,5
203,211.93,223.16,5
204,211.78,222.97,5
204,211.62,222.78,5
203,211.45,222.58,5
203,211.28,222.39,5
201,211.07,222.17,5
202,210.89,221.97,5
204,210.75,221.79,5
204,210.62,221.61,5
203,210.47,221.43,5
201,210.28,221.22,5
203,210.13,221.04,5
201,209.95,220.84,5
201,209.77,220.64,5
201,209.59,220.44,5
201,209.42,220.25,5
201,209.25,220.06,5
201,209.09,219.87,5
199,208.89,219.66,5
203,208.77,219.49,5
200,208.59,219.30,5
200,208.42,219.10,5
199,208.23,218.90,5
200,208.07,218.71,5
200,207.91,218.53,5
200,207.75,218.34,5
200,207.59,218.16,5
200,207.44,217.98,5
200,207.29,217.80,5
199,207.13,217.61,5
200,206.99,217.43,5
198,206.81,217.24,5
199,206.65,217.06,5
201,206.54,216.90,5
201,206.43,216.74,5
200,206.30,216.57,5
199,206.15,216.39,5
200,206.03,216.23,5
201,205.93,216.08,5
202,205.85,215.94,5
201,205.75,215.79,5
200,205.64,215.63,5
199,205.50,215.46,5
201,205.41,215.32,5
202,205.35,215.18,5
203,205.30,215.06,5
200,205.19,214.91,5
200,205.09,214.76,5
200,204.99,214.62,5
204,204.97,214.51,5
204,204.95,214.40,5
203,204.91,214.29,5
204,204.89,214.19,5
200,204.79,214.05,5
200,204.70,213.90,5
204,204.68,213.81,5
205,204.69,213.72,5
203,204.66,213.61,5
201,204.58,213.48,5
201,204.51,213.36,5
201,204.44,213.24,5
200,204.35,213.10,5
200,204.27,212.97,5
200,204.18,212.84,5
200,204.10,212.71,5
200,204.01,212.59,5
200,203.93,212.46,5
198,203.82,212.32,5
198,203.70,212.17,5
199,203.61,212.04,5
200,203.53,211.92,5
197,203.40,211.77,5
198,203.29,211.63,5
197,203.17,211.49,5
199,203.09,211.36,5
197,202.96,211.22,5
197,202.84,211.08,5
196,202.71,210.93,5
196,202.57,210.78,5
196,202.44,210.63,5
195,202.29,210.47,5
197,202.19,210.34,5
195,202.04,210.19,5
197,201.94,210.05,5
198,201.86,209.93,5
201,201.85,209.84,5
198,201.77,209.73,5
196,201.65,209.59,5
197,201.56,209.46,5
198,201.49,209.35,5
198,201.42,209.23,5
200,201.39,209.14,5
199,201.34,209.04,5
197,201.26,208.92,5
197,201.17,208.80,5
196,201.07,208.67,5
197,200.99,208.56,5
195,200.87,208.42,5
196,200.77,208.30,5
195,200.65,208.16,5
194,200.52,208.02,5
196,200.43,207.90,5
195,200.32,207.77,5
194,200.20,207.63,5
194,200.07,207.50,5
194,199.95,207.36,5
195,199.85,207.24,5
197,199.79,207.14,5
193,199.66,207.00,5
193,199.53,206.86,5
193,199.39,206.72,5
193,199.27,206.58,5
192,199.12,206.43,5
192,198.98,206.29,5
191,198.82,206.14,5
193,198.70,206.01,5
195,198.63,205.90,5
193,198.52,205.77,5
191,198.37,205.62,5
191,198.22,205.47,5
192,198.09,205.34,5
193,197.99,205.21,5
193,197.89,205.09,5
192,197.78,204.96,5
193,197.68,204.84,5
193,197.59,204.72,5
192,197.47,204.60,5
191,197.34,204.46,5
191,197.22,204.33,5
191,197.09,204.19,5
191,196.97,204.06,5
191,196.85,203.93,5
195,196.82,203.84,5
194,196.76,203.74,5
193,196.68,203.63,5
192,196.59,203.52,5
192,196.50,203.40,5
193,196.43,203.30,5
191,196.32,203.18,5
193,196.25,203.07,5
191,196.15,202.95,5
191,196.05,202.83,5
191,195.94,202.72,5
191,195.85,202.60,5
189,195.71,202.46,5
190,195.59,202.34,5
190,195.48,202.21,5
190,195.37,202.09,5
191,195.29,201.98,5
189,195.16,201.85,5
189,195.04,201.72,5
189,194.92,201.60,5
188,194.78,201.46,5
188,194.64,201.33,5
190,194.55,201.21,5
190,194.46,201.10,5
188,194.33,200.97,5
188,194.20,200.84,5
187,194.06,200.70,5
188,193.94,200.57,5
187,193.80,200.44,5
187,193.66,200.30,5
188,193.55,200.18,5
188,193.44,200.06,5
187,193.31,199.93,5
187,193.18,199.80,5
186,193.04,199.66,5
185,192.88,199.51,5
187,192.76,199.39,5
186,192.63,199.26,5
185,192.47,199.11,5
185,192.32,198.97,5
187,192.22,198.85,5
185,192.07,198.71,5
185,191.93,198.58,5
185,191.79,198.44,5
185,191.66,198.31,5
184,191.50,198.16,5
185,191.37,198.03,5
185,191.25,197.90,5
185,191.12,197.77,5
185,191.00,197.64,5
185,190.88,197.52,5
183,190.72,197.37,5
184,190.59,197.24,5
185,190.48,197.12,5
183,190.33,196.98,5
183,190.18,196.84,5
183,190.04,196.70,5
181,189.86,196.54,5
183,189.72,196.41,5
181,189.54,196.25,5
183,189.41,196.12,5
183,189.28,195.99,5
182,189.14,195.85,5
181,188.98,195.70,5
181,188.82,195.55,5
183,188.70,195.43,5
183,188.59,195.30,5
181,188.43,195.16,5
182,188.31,195.03,5
181,188.16,194.89,5
181,188.02,194.75,5
183,187.92,194.63,5
181,187.78,194.49,5
182,187.66,194.37,5
187,187.65,194.30,5
184,187.58,194.19,5
181,187.44,194.06,5
186,187.42,193.98,5
186,187.39,193.90,5
186,187.36,193.82,5
185,187.31,193.73,5
183,187.23,193.63,5
183,187.14,193.52,5
183,187.06,193.42,5
183,186.98,193.31,5
183,186.90,193.21,5
183,186.82,193.11,5
183,186.74,193.00,5
182,186.65,192.89,5
183,186.58,192.80,5
181,186.46,192.68,5
181,186.36,192.56,5
181,186.25,192.45,5
182,186.16,192.34,5
181,186.06,192.23,5
181,185.96,192.12,5
181,185.86,192.00,5
181,185.76,191.89,5
180,185.65,191.78,5
180,185.53,191.66,5
180,185.42,191.54,5
180,185.31,191.43,5
181,185.23,191.32,5
183,185.18,191.24,5
184,185.16,191.17,5
183,185.12,191.08,5
181,185.03,190.98,5
179,184.91,190.86,5
184,184.90,190.79,5
181,184.82,190.70,5
183,184.78,190.62,5
181,184.71,190.52,5
179,184.59,190.41,5
180,184.50,190.30,5
181,184.43,190.21,5
181,184.36,190.12,5
181,184.29,190.03,5
180,184.21,189.93,5
181,184.14,189.84,5
181,184.08,189.75,5
183,184.06,189.68,5
179,183.96,189.58,5
181,183.90,189.49,5
181,183.84,189.40,5
185,183.86,189.36,5
179,183.77,189.26,5
180,183.69,189.16,5
179,183.60,189.06,5
179,183.51,188.96,5
181,183.46,188.88,5
179,183.37,188.78,5
180,183.30,188.70,5
179,183.21,188.60,5
180,183.15,188.51,5
181,183.11,188.44,5
180,183.04,188.35,5
179,182.96,188.26,5
177,182.84,188.15,5
178,182.75,188.05,5
180,182.69,187.97,5
180,182.64,187.89,5
179,182.57,187.80,5
179,182.49,187.71,5
179,182.42,187.62,5
177,182.32,187.52,5
179,182.25,187.43,5
177,182.14,187.33,5
177,182.04,187.22,5
179,181.98,187.14,5
177,181.88,187.04,5
178,181.80,186.95,5
178,181.73,186.86,5
177,181.63,186.76,5
176,181.52,186.65,5
177,181.43,186.56,5
177,181.34,186.46,5
177,181.25,186.37,5
176,181.15,186.26,5
178,181.09,186.18,5
178,181.02,186.10,5
178,180.96,186.02,5
177,180.88,185.93,5
178,180.83,185.85,5
177,180.75,185.76,5
177,180.68,185.67,5
176,180.58,185.58,5
177,180.51,185.49,5
176,180.42,185.39,5
176,180.33,185.30,5
175,180.23,185.20,5
177,180.16,185.12,5
175,180.06,185.01,5
175,179.96,184.91,5
176,179.88,184.83,5
176,179.80,184.74,5
180,179.80,184.69,5
177,179.75,184.61,5
177,179.69,184.54,5
175,179.60,184.44,5
175,179.51,184.35,5
175,179.42,184.25,5
177,179.37,184.18,5
176,179.30,184.10,5
178,179.28,184.04,5
176,179.21,183.96,5
175,179.13,183.87,5
175,179.04,183.78,5
175,178.96,183.69,5
175,178.88,183.60,5
175,178.81,183.52,5
180,178.83,183.48,5
177,178.79,183.42,5
176,178.74,183.34,5
179,178.74,183.30,5
177,178.71,183.24,5
177,178.67,183.18,5
176,178.62,183.10,5
177,178.59,183.04,5
175,178.52,182.96,5
175,178.45,182.88,5
177,178.42,182.82,5
175,178.35,182.75,5
176,178.30,182.68,5
175,178.23,182.60,5
175,178.17,182.53,5
175,178.11,182.45,5
179,178.12,182.42,5
175,178.06,182.34,5
175,178.00,182.27,5
175,177.94,182.20,5
175,177.88,182.12,5
174,177.80,182.04,5
173,177.71,181.95,5
177,177.69,181.90,5
174,177.62,181.82,5
174,177.55,181.75,5
177,177.54,181.70,5
179,177.57,181.67,5
183,177.67,181.68,5
179,177.70,181.66,5
177,177.69,181.61,5
179,177.71,181.58,5
178,177.72,181.55,5
180,177.76,181.53,5
181,177.83,181.53,5
177,177.81,181.48,5
181,177.88,181.48,5
181,177.94,181.47,5
182,178.02,181.48,5
180,178.06,181.46,5
179,178.08,181.44,5
181,178.14,181.43,5
179,178.15,181.41,5
180,178.19,181.40,5
179,178.21,181.37,5
178,178.20,181.34,5
178,178.20,181.30,5
178,178.20,181.27,5
179,178.21,181.25,5
179,178.23,181.23,5
177,178.20,181.18,5
179,178.22,181.16,5
177,178.19,181.12,5
177,178.17,181.08,5
179,178.19,181.06,5
186,178.34,181.11,5
182,178.42,181.12,5
179,178.43,181.10,5
180,178.46,181.09,5
181,178.51,181.08,5
185,178.64,181.12,5
179,178.65,181.10,5
183,178.73,181.12,5
183,178.82,181.14,5
181,178.86,181.14,5
183,178.95,181.16,5
183,179.03,181.18,5
188,179.21,181.24,5
185,179.32,181.28,5
188,179.50,181.35,5
185,179.61,181.39,5
186,179.73,181.43,5
184,179.82,181.46,5
187,179.96,181.51,5
188,180.12,181.58,5
193,180.38,181.69,5
189,180.55,181.76,5
187,180.68,181.82,5
190,180.87,181.90,5
188,181.01,181.96,5
191,181.21,182.05,5
189,181.37,182.12,5
189,181.52,182.19,5
189,181.67,182.26,5
188,181.80,182.31,5
188,181.92,182.37,5
187,182.02,182.42,5
188,182.14,182.47,5
189,182.28,182.54,5
199,182.61,182.70,6
194,182.84,182.82,6
189,182.96,182.88,7
195,183.20,183.00,7
198,183.50,183.15,7
200,183.83,183.32,7
200,184.15,183.48,7
194,184.35,183.59,7
196,184.58,183.71,7
201,184.91,183.89,7
206,185.33,184.11,7
204,185.71,184.31,7
199,185.97,184.45,7
200,186.25,184.61,7
202,186.57,184.78,7
203,186.90,184.97,7
200,187.16,185.12,7
201,187.44,185.27,7
199,187.67,185.41,7
199,187.89,185.55,7
202,188.18,185.71,7
203,188.47,185.88,7
205,188.80,186.08,7
204,189.11,186.26,7
201,189.34,186.40,7
201,189.58,186.55,7
210,189.99,186.78,7
209,190.37,187.01,7
205,190.66,187.19,7
204,190.93,187.35,7
207,191.25,187.55,7
210,191.62,187.77,7
210,191.99,188.00,7
210,192.35,188.22,7
205,192.60,188.38,7
208,192.91,188.58,7
216,193.37,188.85,7
213,193.77,189.10,7
209,194.07,189.30,7
207,194.33,189.47,7
207,194.58,189.65,7
207,194.83,189.82,7
209,195.11,190.01,7
209,195.39,190.20,7
216,195.80,190.46,7
215,196.19,190.71,7
220,196.66,191.00,7
223,197.19,191.32,7
221,197.67,191.62,7
218,198.07,191.88,7
225,198.61,192.21,7
225,199.14,192.54,7
230,199.76,192.91,7
229,200.34,193.27,7
222,200.78,193.56,7
230,201.36,193.93,7
231,201.95,194.30,7
231,202.53,194.66,7
225,202.98,194.97,7
228,203.48,195.30,7
232,204.05,195.66,7
231,204.59,196.02,7
231,205.12,196.37,7
226,205.54,196.66,7
226,205.95,196.96,7
228,206.39,197.27,7
229,206.84,197.59,7
231,207.32,197.92,7
233,207.84,198.27,7
232,208.32,198.61,7
231,208.77,198.93,7
229,209.18,199.23,7
233,209.66,199.57,7
231,210.08,199.88,7
235,210.58,200.24,7
237,211.11,200.60,7
238,211.65,200.98,7
238,212.17,201.35,7
236,212.65,201.69,7
239,213.18,202.07,7
240,213.71,202.45,7
239,214.22,202.81,7
245,214.84,203.23,7
237,215.28,203.57,7
240,215.77,203.94,7
241,216.28,204.31,7
243,216.81,204.69,7
246,217.40,205.11,7
245,217.95,205.50,7
240,218.39,205.85,7
252,219.06,206.31,7
255,219.78,206.80,7
253,220.44,207.26,7
249,221.02,207.68,7
253,221.66,208.13,7
261,222.44,208.66,7
262,223.23,209.19,7
265,224.07,209.75,7
256,224.71,210.21,7
256,225.33,210.67,7
257,225.97,211.13,7
265,226.75,211.67,7
263,227.47,212.19,7
257,228.06,212.63,7
261,228.72,213.12,7
263,229.41,213.62,7
268,230.18,214.16,7
269,230.96,214.71,7
269,231.72,215.25,7
269,232.46,215.79,7
266,233.13,216.29,7
275,233.97,216.88,7
278,234.85,217.49,7
276,235.67,218.08,7
269,236.34,218.58,7
282,237.25,219.22,7
284,238.19,219.87,7
281,239.04,220.48,7
276,239.78,221.03,7
280,240.59,221.62,7
287,241.52,222.28,7
283,242.35,222.88,7
284,243.18,223.50,7
283,243.98,224.09,7
279,244.68,224.64,7
289,245.56,225.28,7
293,246.51,225.96,7
295,247.48,226.65,7
292,248.37,227.30,7
293,249.26,227.96,7
292,250.12,228.60,7
300,251.12,229.32,7
302,252.13,230.04,7
304,253.17,230.78,7
304,254.19,231.51,7
299,255.08,232.19,7
303,256.04,232.90,7
305,257.02,233.62,7
304,257.96,234.32,7
307,258.94,235.05,7
312,260.00,235.82,7
307,260.94,236.53,7
304,261.80,237.20,7
305,262.67,237.88,7
308,263.57,238.58,7
313,264.56,239.33,7
311,265.49,240.04,7
305,266.28,240.69,7
312,267.20,241.41,7
318,268.21,242.17,7
320,269.25,242.95,7
314,270.14,243.66,7
313,271.00,244.36,7
321,272.00,245.12,7
317,272.90,245.84,7
320,273.84,246.58,7
325,274.87,247.37,7
315,275.67,248.04,7
316,276.47,248.72,7
318,277.31,249.41,7
322,278.20,250.14,7
325,279.14,250.89,7
329,280.13,251.67,7
327,281.07,252.42,7
319,281.83,253.09,7
321,282.61,253.77,7
332,283.60,254.55,7
333,284.59,255.34,7
330,285.50,256.08,7
334,286.47,256.86,7
337,287.48,257.66,7
341,288.55,258.50,7
330,289.38,259.21,7
332,290.23,259.94,7
330,291.02,260.64,7
328,291.76,261.31,7
331,292.55,262.01,7
331,293.32,262.70,7
329,294.03,263.36,7
328,294.71,264.01,7
327,295.36,264.64,7
326,295.97,265.25,7
330,296.65,265.90,7
327,297.26,266.51,7
329,297.89,267.14,7
335,298.63,267.81,7
340,299.46,268.54,7
335,300.17,269.20,7
332,300.81,269.83,7
335,301.49,270.48,7
338,302.22,271.16,7
334,302.86,271.78,7
333,303.46,272.40,7
338,304.15,273.05,7
339,304.85,273.71,7
332,305.39,274.30,7
340,306.08,274.95,7
340,306.76,275.60,7
340,307.43,276.25,7
335,307.98,276.83,7
336,308.54,277.43,7
334,309.05,277.99,7
332,309.51,278.53,7
335,310.02,279.10,7
339,310.60,279.70,7
340,311.18,280.30,7
341,311.78,280.91,7
337,312.29,281.47,7
342,312.88,282.07,7
345,313.52,282.70,7
346,314.17,283.33,7
345,314.79,283.95,7
345,315.39,284.56,7
341,315.90,285.13,7
344,316.47,285.71,7
353,317.20,286.39,7
353,317.91,287.05,7
344,318.44,287.62,7
347,319.01,288.22,7
353,319.69,288.86,7
357,320.43,289.55,7
351,321.04,290.16,7
351,321.64,290.77,7
351,322.23,291.37,7
351,322.81,291.97,7
347,323.29,292.52,7
348,323.78,293.07,7
345,324.21,293.59,7
347,324.66,294.13,7
347,325.11,294.65,7
345,325.51,295.16,7
345,325.90,295.66,7
344,326.26,296.14,7
346,326.66,296.64,7
344,327.00,297.11,7
343,327.32,297.57,7
349,327.76,298.09,7
348,328.16,298.58,7
346,328.52,299.06,7
349,328.93,299.56,7
354,329.43,300.10,7
355,329.94,300.65,7
349,330.32,301.14,7
347,330.65,301.59,7
354,331.12,302.12,7
358,331.66,302.68,7
353,332.09,303.18,7
349,332.42,303.64,7
352,332.82,304.12,7
352,333.20,304.60,7
351,333.56,305.06,7
353,333.94,305.54,7
351,334.29,306.00,7
349,334.58,306.43,7
349,334.87,306.85,7
349,335.15,307.28,7
347,335.39,307.67,7
346,335.60,308.06,7
346,335.81,308.44,7
345,335.99,308.80,7
346,336.19,309.17,7
345,336.37,309.53,7
345,336.54,309.89,7
346,336.73,310.25,7
347,336.94,310.61,7
346,337.12,310.97,7
344,337.25,311.30,7
345,337.41,311.64,7
344,337.54,311.96,7
343,337.65,312.27,7
344,337.78,312.59,7
346,337.94,312.92,7
347,338.12,313.26,7
342,338.20,313.55,7
342,338.28,313.83,7
341,338.33,314.11,7
341,338.38,314.37,7
344,338.50,314.67,7
341,338.55,314.93,7
340,338.58,315.19,7
339,338.58,315.42,7
338,338.57,315.65,7
337,338.54,315.86,7
337,338.51,316.07,7
338,338.50,316.29,7
337,338.47,316.50,7
338,338.46,316.72,7
338,338.45,316.93,7
337,338.42,317.13,7
336,338.37,317.32,7
336,338.33,317.50,7
337,338.30,317.70,7
336,338.25,317.88,7
334,338.17,318.04,7
333,338.07,318.19,7
333,337.96,318.34,7
332,337.85,318.48,7
333,337.75,318.62,7
334,337.67,318.78,7
333,337.58,318.92,7
333,337.49,319.06,7
331,337.36,319.18,7
331,337.23,319.30,7
329,337.07,319.39,7
329,336.91,319.49,7
328,336.73,319.58,7
329,336.57,319.67,7
327,336.38,319.74,7
327,336.19,319.82,7
327,336.01,319.89,7
328,335.85,319.97,7
326,335.65,320.03,7
325,335.44,320.08,7
324,335.21,320.12,7
324,334.99,320.16,7
323,334.75,320.19,7
323,334.51,320.21,7
323,334.28,320.24,7
323,334.06,320.27,7
324,333.85,320.31,7
322,333.62,320.32,7
321,333.37,320.33,7
320,333.10,320.33,7
321,332.86,320.33,7
320,332.60,320.33,7
320,332.35,320.33,7
318,332.06,320.30,7
319,331.80,320.29,7
318,331.52,320.27,7
319,331.27,320.25,7
317,330.99,320.22,7
317,330.71,320.19,7
319,330.47,320.18,7
318,330.22,320.16,7
317,329.96,320.12,7
315,329.66,320.07,7
316,329.39,320.03,7
317,329.14,320.00,7
315,328.86,319.95,7
315,328.58,319.90,7
315,328.31,319.85,7
313,328.00,319.79,7
313,327.70,319.72,7
312,327.39,319.64,7
315,327.14,319.59,7
313,326.86,319.53,7
312,326.56,319.45,7
314,326.31,319.40,7
311,326.00,319.31,7
310,325.68,319.22,7
310,325.37,319.13,7
309,325.04,319.03,7
308,324.70,318.92,7
308,324.37,318.81,7
309,324.06,318.71,7
307,323.72,318.59,7
306,323.36,318.47,7
307,323.04,318.35,7
307,322.72,318.24,7
305,322.36,318.11,7
304,321.99,317.97,7
305,321.65,317.84,7
304,321.30,317.70,7
304,320.96,317.56,7
303,320.60,317.41,7
302,320.22,317.26,7
303,319.88,317.12,7
302,319.52,316.97,7
301,319.15,316.81,7
301,318.79,316.65,7
300,318.41,316.48,7
300,318.04,316.32,7
300,317.68,316.15,7
298,317.29,315.97,7
299,316.92,315.80,7
297,316.53,315.62,7
297,316.14,315.43,7
296,315.73,315.23,7
297,315.36,315.05,7
295,314.95,314.85,8
296,314.57,314.66,8
295,314.18,314.47,8
295,313.80,314.27,8
294,313.40,314.07,8
294,313.01,313.87,8
293,312.61,313.66,8
293,312.22,313.45,8
294,311.86,313.26,8
293,311.48,313.06,8
292,311.09,312.85,8
291,310.69,312.63,8
293,310.33,312.43,8
290,309.93,312.21,8
291,309.55,311.99,8
290,309.16,311.77,8
291,308.79,311.57,8
290,308.42,311.35,8
289,308.03,311.13,8
289,307.65,310.91,8
288,307.26,310.68,8
288,306.87,310.45,8
288,306.49,310.23,8
285,306.06,309.97,8
286,305.66,309.73,8
285,305.25,309.49,8
286,304.86,309.25,8
285,304.47,309.01,8
285,304.08,308.77,8
284,303.68,308.52,8
284,303.28,308.28,8
283,302.88,308.02,8
283,302.48,307.77,8
281,302.05,307.51,8
282,301.65,307.25,8
281,301.24,306.99,8
281,300.83,306.73,8
280,300.41,306.46,8
280,300.01,306.20,8
278,299.57,305.91,8
279,299.16,305.65,8
279,298.75,305.38,8
278,298.34,305.11,8
277,297.91,304.82,8
278,297.51,304.56,8
277,297.10,304.28,8
277,296.70,304.01,8
275,296.27,303.72,8
275,295.84,303.43,8
276,295.44,303.16,8
275,295.03,302.87,8
274,294.61,302.59,8
274,294.20,302.30,8
273,293.78,302.01,8
274,293.38,301.73,8
272,292.95,301.43,8
273,292.56,301.15,8
273,292.16,300.86,8
271,291.74,300.57,8
271,291.33,300.27,8
273,290.96,300.00,8
270,290.54,299.70,8
270,290.13,299.40,8
269,289.71,299.10,8
269,289.29,298.79,8
270,288.91,298.51,8
269,288.51,298.21,8
268,288.10,297.91,8
267,287.68,297.60,8
267,287.26,297.29,8
267,286.86,296.99,8
268,286.48,296.70,8
266,286.07,296.39,8
265,285.65,296.08,8
265,285.24,295.77,8
265,284.83,295.46,8
266,284.46,295.17,8
264,284.05,294.86,8
263,283.63,294.54,8
264,283.23,294.23,8
264,282.85,293.93,8
263,282.45,293.62,8
263,282.06,293.31,8
262,281.66,293.00,8
261,281.25,292.68,8
261,280.84,292.36,8
261,280.45,292.05,8
259,280.02,291.72,8
261,279.64,291.41,8
259,279.22,291.09,8
259,278.82,290.77,8
258,278.40,290.44,8
258,278.00,290.12,8
257,277.58,289.78,8
257,277.16,289.46,8
257,276.76,289.13,8
257,276.37,288.81,8
256,275.96,288.48,8
256,275.56,288.16,8
255,275.15,287.83,8
255,274.74,287.50,8
255,274.35,287.17,8
255,273.96,286.85,8
254,273.56,286.52,8
255,273.19,286.21,8
254,272.81,285.89,8
254,272.43,285.57,8
254,272.06,285.25,8
253,271.68,284.93,8
252,271.29,284.60,8
252,270.90,284.27,8
253,270.54,283.96,8
253,270.19,283.65,8
252,269.83,283.33,8
252,269.47,283.02,8
251,269.10,282.70,8
250,268.72,282.37,8
254,268.43,282.09,8
251,268.08,281.78,8
251,267.74,281.47,8
250,267.38,281.16,8
250,267.04,280.85,8
249,266.67,280.53,8
249,266.32,280.21,8
248,265.95,279.89,8
247,265.58,279.56,8
247,265.20,279.24,8
247,264.84,278.91,8
247,264.48,278.59,8
245,264.09,278.26,8
246,263.73,277.94,8
245,263.36,277.61,8
247,263.03,277.30,8
243,262.63,276.96,8
245,262.28,276.64,8
245,261.93,276.32,8
244,261.57,276.00,8
244,261.22,275.68,8
242,260.84,275.34,8
243,260.48,275.02,8
242,260.11,274.69,8
241,259.73,274.35,8
241,259.35,274.02,8
241,258.99,273.69,8
241,258.63,273.36,8
239,258.23,273.02,8
241,257.89,272.70,8
240,257.53,272.37,8
240,257.18,272.05,8
240,256.84,271.72,8
240,256.50,271.41,8
238,256.13,271.07,8
237,255.75,270.73,8
237,255.37,270.40,8
239,255.05,270.08,8
237,254.68,269.75,8
237,254.33,269.42,8
237,253.98,269.10,8
239,253.68,268.80,8
236,253.33,268.47,8
236,252.98,268.15,8
235,252.62,267.81,8
236,252.29,267.50,8
236,251.97,267.18,8
237,251.67,266.88,8
235,251.33,266.56,8
236,251.03,266.25,8
237,250.75,265.96,8
237,250.47,265.67,8
236,250.18,265.38,8
236,249.90,265.08,8
236,249.62,264.79,8
239,249.41,264.53,8
235,249.12,264.24,8
234,248.82,263.94,8
233,248.50,263.63,8
233,248.19,263.32,8
234,247.91,263.03,8
233,247.61,262.73,8
232,247.30,262.42,8
232,246.99,262.11,8
233,246.71,261.82,8
231,246.40,261.52,8
231,246.09,261.21,8
230,245.77,260.90,8
230,245.45,260.59,8
231,245.16,260.29,8
231,244.88,260.00,8
229,244.56,259.69,8
231,244.29,259.40,8
229,243.99,259.10,8
229,243.69,258.80,8
228,243.37,258.49,8
229,243.08,258.20,8
227,242.76,257.88,8
227,242.45,257.57,8
228,242.16,257.28,8
227,241.86,256.98,8
227,241.56,256.68,8
225,241.23,256.36,8
225,240.90,256.05,8
225,240.58,255.74,8
225,240.27,255.43,8
225,239.97,255.12,8
225,239.67,254.82,8
225,239.37,254.52,8
224,239.07,254.22,8
224,238.77,253.92,8
223,238.45,253.61,8
223,238.14,253.30,8
223,237.84,253.00,8
224,237.56,252.71,8
224,237.29,252.42,8
224,237.02,252.14,8
223,236.74,251.85,8
223,236.47,251.56,8
225,236.24,251.29,8
224,236.00,251.02,8
224,235.76,250.75,8
224,235.52,250.48,8
223,235.27,250.21,8
224,235.04,249.94,8
223,234.80,249.68,8
224,234.59,249.42,8
221,234.32,249.13,8
221,234.05,248.85,8
221,233.79,248.57,8
222,233.55,248.31,8
220,233.28,248.03,8
221,233.04,247.76,8
220,232.78,247.48,8
220,232.52,247.20,8
220,232.27,246.93,8
219,232.00,246.65,8
219,231.74,246.38,8
218,231.47,246.09,8
220,231.24,245.83,8
219,230.99,245.56,8
220,230.78,245.31,8
218,230.52,245.03,8
217,230.25,244.75,8
218,230.00,244.49,8
218,229.76,244.22,8
218,229.53,243.96,8
219,229.32,243.71,8
217,229.07,243.44,8
217,228.83,243.18,8
217,228.59,242.92,8
217,228.36,242.66,8
217,228.13,242.40,8
218,227.93,242.16,8
218,227.73,241.91,8
215,227.48,241.65,8
215,227.23,241.38,8
215,226.98,241.12,8
215,226.74,240.85,8
215,226.51,240.60,8
215,226.28,240.34,8
216,226.07,240.10,8
215,225.85,239.85,8
215,225.64,239.60,8
216,225.44,239.36,8
213,225.19,239.10,8
213,224.95,238.84,8
213,224.71,238.58,8
213,224.48,238.32,8
215,224.29,238.09,8
214,224.08,237.85,8
215,223.90,237.62,8
215,223.72,237.39,8
213,223.51,237.15,8
213,223.30,236.91,8
212,223.07,236.66,8
213,222.87,236.42,8
213,222.67,236.19,8
213,222.48,235.96,8
213,222.29,235.73,8
213,222.10,235.50,8
213,221.92,235.27,8
212,221.72,235.04,8
212,221.53,234.81,8
212,221.34,234.58,8
209,221.09,234.33,8
211,220.89,234.09,8
213,220.73,233.88,8
212,220.56,233.66,8
212,220.39,233.45,8
211,220.20,233.22,8
211,220.01,233.00,8
212,219.85,232.79,8
210,219.66,232.56,8
212,219.50,232.36,8
210,219.31,232.13,8
209,219.11,231.90,8
209,218.91,231.67,8
210,218.73,231.46,8
211,218.57,231.25,8
210,218.40,231.04,8
209,218.21,230.82,8
208,218.01,230.59,8
209,217.83,230.38,8
209,217.65,230.16,8
209,217.48,229.95,8
208,217.29,229.73,8
207,217.08,229.50,8
207,216.88,229.28,8
207,216.68,229.06,8
209,216.53,228.85,8
209,216.38,228.66,8
207,216.19,228.44,8
207,216.01,228.23,8
206,215.81,228.00,8
207,215.63,227.79,8
205,215.42,227.56,8
205,215.21,227.34,8
205,215.01,227.12,8
206,214.83,226.90,8
205,214.63,226.69,8
207,214.48,226.49,8
205,214.29,226.27,8
205,214.10,226.06,8
208,213.98,225.88,8
204,213.78,225.66,8
204,213.59,225.45,8
203,213.37,225.22,8
204,213.19,225.01,8
203,212.98,224.79,8
203,212.78,224.57,8
202,212.57,224.34,8
204,212.40,224.14,8
203,212.21,223.93,8
204,212.04,223.73,8
203,211.86,223.52,8
205,211.73,223.34,8
202,211.53,223.12,8
203,211.36,222.92,8
204,211.21,222.73,8
203,211.05,222.54,8
205,210.93,222.36,8
204,210.79,222.18,8
201,210.59,221.97,8
203,210.44,221.78,8
203,210.29,221.59,8
202,210.13,221.39,8
201,209.94,221.19,8
201,209.77,220.99,8
202,209.61,220.80,8
202,209.46,220.61,8
203,209.33,220.43,8
200,209.14,220.23,8
201,208.98,220.04,8
199,208.78,219.83,8
201,208.62,219.64,8
200,208.45,219.44,8
199,208.26,219.24,8
199,208.08,219.03,8
199,207.90,218.83,8
199,207.72,218.64,8
199,207.54,218.44,8
199,207.37,218.25,8
200,207.23,218.06,8
199,207.06,217.87,8
198,206.88,217.67,8
198,206.70,217.48,8
197,206.51,217.27,8
197,206.32,217.07,8
197,206.13,216.87,8
197,205.95,216.67,8
199,205.81,216.49,8
197,205.63,216.30,8
197,205.46,216.11,8
196,205.27,215.90,8
195,205.07,215.70,8
198,204.93,215.52,8
196,204.75,215.32,8
197,204.59,215.14,8
195,204.40,214.94,8
195,204.21,214.74,8
196,204.05,214.55,8
195,203.87,214.36,8
195,203.69,214.16,8
195,203.52,213.97,8
196,203.37,213.79,8
196,203.22,213.61,8
195,203.05,213.43,8
193,202.85,213.22,8
193,202.66,213.02,8
195,202.50,212.84,8
194,202.33,212.65,8
193,202.15,212.46,8
191,201.92,212.24,8
193,201.74,212.05,8
192,201.55,211.85,8
192,201.36,211.65,8
192,201.17,211.45,8
194,201.03,211.28,8
192,200.85,211.09,8
193,200.69,210.90,8
191,200.50,210.71,8
193,200.35,210.53,8
191,200.16,210.33,8
191,199.98,210.14,8
189,199.76,209.93,8
190,199.56,209.73,8
191,199.39,209.54,8
190,199.20,209.35,8
189,199.00,209.14,8
189,198.80,208.94,8
189,198.60,208.74,8
189,198.41,208.55,8
189,198.22,208.35,8
188,198.02,208.15,8
188,197.82,207.94,8
188,197.62,207.75,8
188,197.43,207.55,8
188,197.24,207.35,8
187,197.04,207.15,8
187,196.83,206.95,8
188,196.66,206.76,8
189,196.51,206.58,8
189,196.35,206.40,8
186,196.15,206.20,8
188,195.98,206.02,8
187,195.81,205.83,8
187,195.63,205.64,8
187,195.46,205.45,8
186,195.27,205.26,8
187,195.10,205.08,8
188,194.96,204.91,8
188,194.82,204.74,8
186,194.64,204.55,8
183,194.41,204.33,8
185,194.22,204.14,8
187,194.08,203.97,8
187,193.94,203.80,8
187,193.80,203.63,8
185,193.62,203.45,8
185,193.45,203.26,8
185,193.28,203.08,8
185,193.12,202.90,8
184,192.93,202.71,8
184,192.75,202.52,8
184,192.58,202.34,8
184,192.41,202.15,8
183,192.22,201.96,8
183,192.04,201.77,8
184,191.87,201.59,8
183,191.70,201.41,8
181,191.48,201.20,8
181,191.27,201.00,8
181,191.07,200.80,8
181,190.87,200.60,8
183,190.71,200.43,8
182,190.54,200.24,8
181,190.34,200.05,8
181,190.16,199.86,8
181,189.97,199.67,8
180,189.77,199.48,8
180,189.58,199.28,8
182,189.43,199.11,8
181,189.26,198.93,8
181,189.09,198.75,8
180,188.91,198.56,8
179,188.71,198.36,8
179,188.52,198.17,8
180,188.35,197.99,8
179,188.16,197.80,8
178,187.96,197.60,8
179,187.78,197.41,8
180,187.62,197.24,8
182,187.51,197.09,8
178,187.32,196.90,8
177,187.12,196.70,8
178,186.93,196.51,8
178,186.75,196.33,8
177,186.56,196.13,8
176,186.35,195.93,8
177,186.16,195.74,8
176,185.96,195.55,8
175,185.74,195.34,8
175,185.52,195.14,8
175,185.31,194.93,8
178,185.17,194.77,8
178,185.02,194.60,8
177,184.86,194.42,8
175,184.67,194.23,8
176,184.49,194.05,8
176,184.32,193.86,8
175,184.14,193.68,8
175,183.95,193.49,8
174,183.75,193.29,8
175,183.58,193.11,8
174,183.39,192.92,8
175,183.22,192.74,8
173,183.02,192.54,8
175,182.86,192.37,8
176,182.72,192.20,8
175,182.56,192.03,8
174,182.39,191.85,8
173,182.20,191.66,8
173,182.02,191.48,8
175,181.88,191.31,8
176,181.76,191.16,8
175,181.63,191.00,8
173,181.45,190.82,8
175,181.33,190.66,8
173,181.16,190.48,8
174,181.02,190.32,8
177,180.94,190.19,8
175,180.82,190.03,8
174,180.68,189.87,8
173,180.53,189.70,8
173,180.38,189.54,8
173,180.23,189.37,8
173,180.08,189.21,8
173,179.94,189.05,8
173,179.80,188.89,8
173,179.67,188.73,8
173,179.53,188.57,8
173,179.40,188.41,8
172,179.26,188.25,8
175,179.17,188.12,8
175,179.09,187.99,8
173,178.97,187.84,8
175,178.89,187.71,8
172,178.75,187.55,8
173,178.63,187.41,8
175,178.56,187.28,8
173,178.45,187.14,8
172,178.32,186.99,8
172,178.19,186.84,8
173,178.09,186.70,8
172,177.97,186.55,8
171,177.83,186.40,8
172,177.71,186.25,8
171,177.58,186.10,8
171,177.45,185.95,8
171,177.32,185.80,8
170,177.17,185.64,8
171,177.05,185.49,8
172,176.95,185.36,8
170,176.81,185.21,8
169,176.65,185.04,8
169,176.50,184.88,8
169,176.35,184.72,8
170,176.22,184.58,8
169,176.08,184.42,8
169,175.94,184.27,8
169,175.80,184.11,8
169,175.66,183.96,8
169,175.53,183.81,8
169,175.40,183.67,8
167,175.23,183.50,8
168,175.09,183.34,8
169,174.96,183.20,8
168,174.82,183.05,8
169,174.71,182.91,8
169,174.59,182.77,8
167,174.44,182.61,8
170,174.35,182.49,8
169,174.25,182.35,8
169,174.14,182.22,8
168,174.02,182.08,8
167,173.88,181.92,8
167,173.74,181.78,8
167,173.61,181.63,8
171,173.55,181.52,8
169,173.46,181.40,8
168,173.35,181.26,8
168,173.25,181.13,8
169,173.16,181.01,8
168,173.06,180.88,8
168,172.96,180.75,8
169,172.88,180.63,8
169,172.80,180.52,8
167,172.68,180.38,8
167,172.57,180.25,8
167,172.46,180.11,8
166,172.33,179.97,8
167,172.22,179.84,8
167,172.12,179.71,8
165,171.98,179.57,8
165,171.84,179.42,8
165,171.70,179.28,8
165,171.57,179.13,8
165,171.43,178.99,8
166,171.33,178.86,8
164,171.18,178.71,8
166,171.08,178.59,8
167,170.99,178.47,8
165,170.87,178.34,8
166,170.78,178.21,8
167,170.70,178.10,8
166,170.61,177.98,8
169,170.58,177.89,8
168,170.52,177.79,8
169,170.49,177.70,8
166,170.40,177.59,8
167,170.34,177.48,8
165,170.23,177.36,8
167,170.16,177.25,8
169,170.14,177.17,8
168,170.10,177.08,8
167,170.04,176.98,8
166,169.96,176.87,8
167,169.90,176.77,8
167,169.84,176.67,8
166,169.76,176.56,8
166,169.69,176.46,8
166,169.61,176.35,8
165,169.52,176.24,8
165,169.43,176.13,8
166,169.36,176.03,8
165,169.27,175.92,8
164,169.17,175.80,8
164,169.07,175.68,8
166,169.00,175.58,8
165,168.92,175.48,8
165,168.85,175.37,8
166,168.79,175.28,8
165,168.71,175.18,8
165,168.64,175.07,8
165,168.57,174.97,8
165,168.49,174.87,8
164,168.40,174.77,8
164,168.32,174.66,8
165,168.25,174.56,8
166,168.21,174.48,8
167,168.18,174.40,8
166,168.14,174.32,8
167,168.11,174.24,8
169,168.13,174.19,8
169,168.15,174.14,8
169,168.17,174.09,8
167,168.14,174.02,8
163,168.04,173.91,8
169,168.06,173.86,8
167,168.04,173.79,8
167,168.02,173.72,8
168,168.02,173.66,8
169,168.04,173.62,8
165,167.98,173.53,8
167,167.96,173.47,8
169,167.98,173.42,8
167,167.96,173.36,8
168,167.96,173.30,8
167,167.94,173.24,8
167,167.92,173.18,8
168,167.92,173.13,8
167,167.90,173.06,8
166,167.87,172.99,8
167,167.85,172.93,8
166,167.81,172.86,8
165,167.76,172.79,8
165,167.70,172.71,8
165,167.65,172.63,8
165,167.59,172.55,8
167,167.58,172.50,8
166,167.55,172.43,8
167,167.54,172.38,8
165,167.49,172.31,8
166,167.46,172.24,8
166,167.43,172.18,8
165,167.38,172.11,8
165,167.33,172.04,8
165,167.29,171.97,8
165,167.24,171.90,8
166,167.22,171.84,8
164,167.15,171.76,8
166,167.13,171.70,8
164,167.07,171.63,8
163,166.98,171.54,8
164,166.93,171.46,8
163,166.85,171.38,8
167,166.85,171.34,8
163,166.77,171.25,8
165,166.74,171.19,8
163,166.66,171.11,8
163,166.59,171.03,8
163,166.52,170.95,8
165,166.49,170.89,8
163,166.42,170.81,8
162,166.33,170.72,8
165,166.30,170.66,8
167,166.32,170.63,8
167,166.33,170.59,8
165,166.30,170.53,8
164,166.26,170.47,8
167,166.27,170.43,8
168,166.31,170.41,8
168,166.34,170.39,8
170,166.41,170.38,8
167,166.43,170.35,8
165,166.40,170.29,8
167,166.41,170.26,8
165,166.38,170.21,8
165,166.35,170.16,8
165,166.33,170.11,8
167,166.34,170.07,8
165,166.31,170.02,8
164,166.27,169.96,8
165,166.24,169.91,8
166,166.24,169.87,8
167,166.25,169.85,8
165,166.23,169.80,8
165,166.20,169.75,8
165,166.18,169.70,8
167,166.19,169.67,8
165,166.17,169.63,8
165,166.15,169.58,8
164,166.10,169.53,8
164,166.06,169.47,8
165,166.04,169.43,8
166,166.04,169.39,8
164,166.00,169.34,8
167,166.02,169.31,8
165,166.00,169.27,8
165,165.98,169.23,8
164,165.94,169.18,8
164,165.90,169.12,8
164,165.86,169.07,8
164,165.83,169.02,8
165,165.81,168.98,8
167,165.83,168.96,8
165,165.82,168.92,8
164,165.78,168.87,8
164,165.74,168.82,8
165,165.73,168.79,8
165,165.71,168.75,8
165,165.70,168.71,8
165,165.69,168.67,8
166,165.69,168.65,8
164,165.66,168.60,8
165,165.65,168.56,8
164,165.61,168.52,8
163,165.56,168.46,8
164,165.53,168.42,8
163,165.48,168.37,8
163,165.43,168.31,8
163,165.38,168.26,8
164,165.35,168.22,8
165,165.35,168.18,8
163,165.30,168.13,8
162,165.23,168.07,8
163,165.19,168.02,8
163,165.14,167.97,8
165,165.14,167.94,8
165,165.14,167.91,8
164,165.12,167.87,8
165,165.11,167.84,8
165,165.11,167.81,8
165,165.11,167.79,8
163,165.07,167.74,8
163,165.03,167.69,8
163,164.99,167.64,8
165,164.99,167.62,8
165,164.99,167.59,8
165,164.99,167.57,8
164,164.97,167.53,8
163,164.93,167.48,8
163,164.89,167.44,8
161,164.81,167.38,8
162,164.75,167.32,8
163,164.72,167.28,8
163,164.69,167.24,8
162,164.63,167.18,8
161,164.56,167.12,8
161,164.49,167.06,8
162,164.44,167.01,8
161,164.37,166.95,8
162,164.32,166.90,8
161,164.26,166.84,8
161,164.19,166.78,8
161,164.13,166.72,8
162,164.08,166.68,8
161,164.02,166.62,8
160,163.94,166.55,8
160,163.86,166.49,8
160,163.79,166.42,8
162,163.75,166.38,8
162,163.71,166.34,8
161,163.66,166.28,8
161,163.61,166.23,8
161,163.56,166.18,8
160,163.48,166.12,8
161,163.43,166.06,8
161,163.39,166.01,8
161,163.34,165.96,8
161,163.29,165.91,8
159,163.21,165.85,8
160,163.14,165.79,8
159,163.06,165.72,8
159,162.98,165.65,8
160,162.92,165.60,8
158,162.82,165.52,8
159,162.74,165.45,8
160,162.69,165.40,8
158,162.59,165.33,8
159,162.52,165.26,8
159,162.45,165.20,8
157,162.34,165.12,8
159,162.28,165.06,8
159,162.21,165.00,8
158,162.13,164.93,8
157,162.02,164.85,8
158,161.94,164.78,8
157,161.84,164.70,8
157,161.75,164.62,8
157,161.65,164.55,8
158,161.58,164.48,8
157,161.49,164.41,8
156,161.38,164.32,8
156,161.27,164.24,8
157,161.19,164.17,8
157,161.10,164.10,8
155,160.98,164.00,8
155,160.86,163.91,8
155,160.74,163.83,8
155,160.63,163.74,8
155,160.52,163.65,8
154,160.39,163.55,8
155,160.28,163.47,8
156,160.19,163.39,8
160,160.19,163.36,8
156,160.10,163.29,8
155,160.00,163.20,8
155,159.90,163.12,8
155,159.80,163.04,8
157,159.75,162.98,8
155,159.65,162.90,8
156,159.58,162.83,8
158,159.55,162.78,8
157,159.50,162.72,8
153,159.37,162.63,8
156,159.30,162.56,8
155,159.21,162.49,8
156,159.15,162.42,8
156,159.09,162.36,8
155,159.01,162.28,8
152,158.87,162.18,8
155,158.79,162.11,8
156,158.73,162.05,8
155,158.66,161.98,8
156,158.60,161.92,8
155,158.53,161.85,8
157,158.50,161.80,8
155,158.43,161.73,8
155,158.36,161.66,8
154,158.28,161.59,8
155,158.21,161.52,8
156,158.17,161.47,8
157,158.14,161.42,8
157,158.12,161.38,8
157,158.10,161.33,8
157,158.08,161.29,8
155,158.01,161.23,8
155,157.95,161.16,8
156,157.91,161.11,8
156,157.88,161.06,8
158,157.88,161.03,8
158,157.88,161.00,8
155,157.82,160.94,8
156,157.79,160.89,8
156,157.75,160.84,8
155,157.70,160.78,8
159,157.72,160.77,8
159,157.75,160.75,8
158,157.75,160.72,8
156,157.72,160.67,8
156,157.68,160.63,8
160,157.73,160.62,8
159,157.76,160.60,8
159,157.78,160.59,8
157,157.76,160.55,8
157,157.75,160.52,8
157,157.73,160.48,8
157,157.72,160.45,8
159,157.75,160.43,8
155,157.69,160.38,8
157,157.68,160.34,8
155,157.62,160.29,8
157,157.61,160.26,8
156,157.58,160.22,8
157,157.57,160.18,8
155,157.52,160.13,8
156,157.49,160.09,8
157,157.48,160.06,8
157,157.47,160.03,8
157,157.46,160.00,8
157,157.45,159.97,8
157,157.44,159.94,8
156,157.41,159.90,8
155,157.36,159.85,8
156,157.33,159.81,8
155,157.29,159.76,8
155,157.24,159.72,8
155,157.20,159.67,8
155,157.15,159.62,8
154,157.09,159.57,8
156,157.07,159.53,8
157,157.07,159.51,8
154,157.01,159.45,8
153,156.93,159.39,8
153,156.85,159.32,8
155,156.81,159.28,8
156,156.79,159.25,8
156,156.78,159.21,8
156,156.76,159.18,8
155,156.73,159.14,8
153,156.65,159.08,8
155,156.62,159.04,8
155,156.59,159.00,8
158,156.62,158.99,8
156,156.60,158.96,8
154,156.55,158.91,8
155,156.52,158.87,8
153,156.45,158.81,8
159,156.50,158.81,8
154,156.45,158.76,8
153,156.38,158.71,8
153,156.31,158.65,8
156,156.31,158.62,8
155,156.28,158.59,8
155,156.26,158.55,8
154,156.21,158.50,8
157,156.23,158.49,8
156,156.22,158.46,8
155,156.20,158.43,8
155,156.17,158.40,8
154,156.13,158.35,8
154,156.09,158.31,8
156,156.09,158.29,8
155,156.06,158.25,8
154,156.02,158.21,8
156,156.02,158.19,8
155,156.00,158.16,8
155,155.98,158.12,8
153,155.92,158.07,8
154,155.88,158.03,8
156,155.89,158.01,8
153,155.83,157.96,8
153,155.77,157.91,8
155,155.76,157.88,8
153,155.70,157.83,8
153,155.65,157.79,8
153,155.59,157.74,8
153,155.54,157.69,8
156,155.55,157.67,8
154,155.52,157.64,8
153,155.47,157.59,8
153,155.42,157.55,8
153,155.37,157.50,8
152,155.30,157.44,8
152,155.24,157.39,8
152,155.17,157.34,8
153,155.13,157.29,8
152,155.07,157.24,8
153,155.03,157.20,8
151,154.95,157.14,8
153,154.91,157.09,8
152,154.85,157.04,8
152,154.79,156.99,8
151,154.72,156.93,8
152,154.66,156.88,8
151,154.59,156.82,8
150,154.50,156.76,8
151,154.43,156.70,8
150,154.34,156.63,8
151,154.27,156.58,8
149,154.17,156.50,8
151,154.10,156.44,8
151,154.04,156.39,8
155,154.06,156.38,8
149,153.96,156.30,8
149,153.86,156.23,8
153,153.84,156.20,8
151,153.79,156.15,8
153,153.77,156.11,8
152,153.73,156.07,8
150,153.66,156.01,8
149,153.57,155.94,8
150,153.50,155.88,8
151,153.45,155.83,8
151,153.40,155.79,8
154,153.41,155.77,8
152,153.38,155.73,8
154,153.39,155.71,8
151,153.34,155.67,8
152,153.32,155.63,8
155,153.35,155.62,8
153,153.34,155.60,8
155,153.38,155.59,8
152,153.35,155.55,8
153,153.34,155.53,8
152,153.32,155.49,8
152,153.29,155.46,8
151,153.24,155.41,8
151,153.20,155.37,8
151,153.16,155.33,8
152,153.13,155.29,8
155,153.17,155.29,8
155,153.21,155.29,8
152,153.18,155.25,8
151,153.14,155.21,8
151,153.10,155.17,8
151,153.05,155.13,8
152,153.03,155.10,8
151,152.99,155.06,8
152,152.97,155.03,8
154,152.99,155.01,8
151,152.95,154.97,8
154,152.97,154.97,8
152,152.95,154.94,8
152,152.94,154.91,8
152,152.92,154.88,8
151,152.88,154.84,8
153,152.88,154.82,8
157,152.96,154.84,8
153,152.96,154.82,8
156,153.02,154.83,8
158,153.12,154.87,8
159,153.24,154.91,8
160,153.38,154.96,8
159,153.49,155.00,8
157,153.56,155.02,8
160,153.69,155.07,8
159,153.79,155.11,8
156,153.84,155.12,8
157,153.90,155.14,8
157,153.96,155.15,8
157,154.02,155.17,8
158,154.10,155.20,8
159,154.20,155.24,8
157,154.26,155.26,8
157,154.31,155.27,8
159,154.41,155.31,8
163,154.58,155.39,8
162,154.73,155.45,8
165,154.93,155.55,8
161,155.05,155.60,8
160,155.15,155.65,8
168,155.41,155.77,8
172,155.74,155.93,8
168,155.99,156.06,9
166,156.19,156.15,9
166,156.38,156.25,10
164,156.54,156.33,10
164,156.68,156.41,10
168,156.91,156.52,10
173,157.23,156.69,10
170,157.49,156.82,10
168,157.70,156.93,10
172,157.98,157.08,10
168,158.18,157.19,10
171,158.44,157.33,10
175,158.77,157.51,10
177,159.14,157.70,10
174,159.43,157.87,10
171,159.67,158.00,10
173,159.93,158.15,10
172,160.17,158.29,10
176,160.49,158.46,10
180,160.88,158.68,10
177,161.20,158.86,10
175,161.48,159.02,10
173,161.71,159.16,10
174,161.95,159.31,10
177,162.26,159.49,10
175,162.51,159.64,10
176,162.78,159.81,10
175,163.02,159.96,10
179,163.34,160.15,10
177,163.62,160.32,10
187,164.09,160.58,10
185,164.50,160.83,10
183,164.87,161.05,10
180,165.18,161.24,10
180,165.47,161.43,10
185,165.86,161.66,10
181,166.17,161.86,10
181,166.46,162.05,10
184,166.81,162.27,10
190,167.28,162.54,10
187,167.67,162.79,10
186,168.04,163.02,10
184,168.36,163.23,10
186,168.71,163.46,10
183,169.00,163.65,10
190,169.42,163.92,10
198,169.99,164.26,10
197,170.53,164.59,10
189,170.90,164.83,10
192,171.32,165.10,10
198,171.85,165.43,10
198,172.38,165.76,10
197,172.87,166.07,10
194,173.29,166.35,10
196,173.75,166.64,10
200,174.27,166.98,10
195,174.68,167.26,10
194,175.07,167.53,10
199,175.55,167.84,10
195,175.94,168.11,10
194,176.30,168.37,10
200,176.77,168.69,10
205,177.34,169.05,10
203,177.85,169.39,10
202,178.33,169.72,10
202,178.81,170.04,10
204,179.31,170.38,10
199,179.71,170.66,10
201,180.13,170.97,10
200,180.53,171.26,10
202,180.96,171.57,10
207,181.48,171.92,10
210,182.05,172.30,10
209,182.59,172.67,10
207,183.08,173.01,10
216,183.74,173.44,10
219,184.44,173.90,10
211,184.97,174.27,10
221,185.69,174.73,10
220,186.38,175.19,10
211,186.87,175.55,10
219,187.51,175.98,10
221,188.18,176.43,10
222,188.86,176.89,10
223,189.54,177.35,10
218,190.11,177.75,10
220,190.71,178.18,10
220,191.30,178.59,10
230,192.07,179.11,10
232,192.87,179.64,10
223,193.47,180.07,10
234,194.28,180.61,10
236,195.12,181.16,10
239,195.99,181.74,10
237,196.81,182.30,10
233,197.54,182.80,10
234,198.27,183.31,10
243,199.16,183.91,10
246,200.10,184.53,10
239,200.88,185.08,10
239,201.64,185.62,10
248,202.57,186.24,10
243,203.37,186.81,10
239,204.09,187.33,10
242,204.85,187.88,10
239,205.53,188.39,10
239,206.20,188.89,10
249,207.05,189.49,10
239,207.69,189.99,10
245,208.44,190.54,10
253,209.33,191.16,10
255,210.24,191.80,10
260,211.24,192.48,10
256,212.13,193.12,10
253,212.95,193.72,10
257,213.83,194.35,10
263,214.82,195.04,10
254,215.60,195.63,10
260,216.49,196.27,10
254,217.24,196.85,10
254,217.97,197.42,10
254,218.69,197.99,10
257,219.46,198.58,10
260,220.27,199.19,10
258,221.02,199.78,10
258,221.76,200.36,10
257,222.47,200.93,10
257,223.16,201.49,10
256,223.82,202.03,10
254,224.42,202.55,10
255,225.03,203.08,10
266,225.85,203.71,10
269,226.71,204.36,10
271,227.60,205.03,10
273,228.51,205.71,10
266,229.26,206.31,10
274,230.15,206.99,10
278,231.11,207.70,10
282,232.13,208.44,10
281,233.10,209.16,10
281,234.06,209.88,10
273,234.84,210.51,10
282,235.78,211.23,10
283,236.73,211.95,10
283,237.65,212.66,10
279,238.48,213.32,10
279,239.29,213.98,10
278,240.07,214.62,10
284,240.94,215.31,10
286,241.85,216.02,10
279,242.59,216.65,10
288,243.50,217.36,10
284,244.31,218.03,10
284,245.10,218.69,10
288,245.96,219.38,10
285,246.74,220.04,10
291,247.62,220.75,10
291,248.49,221.45,10
292,249.36,222.15,10
288,250.14,222.81,10
294,251.01,223.52,10
295,251.89,224.24,10
291,252.67,224.91,10
291,253.44,225.57,10
291,254.19,226.22,10
290,254.91,226.86,10
297,255.75,227.56,10
294,256.52,228.23,10
291,257.20,228.85,10
291,257.88,229.48,10
293,258.58,230.11,10
290,259.21,230.71,10
289,259.81,231.29,10
296,260.53,231.94,10
294,261.20,232.56,10
295,261.88,233.18,10
295,262.54,233.80,10
293,263.15,234.39,10
302,263.93,235.07,10
301,264.67,235.73,10
293,265.23,236.30,10
295,265.83,236.89,10
297,266.45,237.49,10
293,266.98,238.05,10
296,267.56,238.63,10
297,268.15,239.21,10
301,268.81,239.83,10
293,269.29,240.36,10
297,269.85,240.92,10
305,270.55,241.57,10
302,271.18,242.17,10
300,271.76,242.75,10
308,272.48,243.40,10
310,273.23,244.07,10
304,273.85,244.67,10
302,274.41,245.24,10
300,274.92,245.79,10
301,275.44,246.34,10
299,275.91,246.87,10
300,276.40,247.40,10
298,276.83,247.90,10
300,277.29,248.42,10
299,277.73,248.93,10
303,278.23,249.47,10
298,278.63,249.96,10
298,279.01,250.44,10
304,279.51,250.97,10
305,280.02,251.51,10
310,280.62,252.10,10
302,281.05,252.60,10
302,281.47,253.09,10
306,281.96,253.62,10
305,282.42,254.13,10
302,282.81,254.61,10
299,283.14,255.06,10
301,283.49,255.52,10
300,283.82,255.96,10
298,284.11,256.38,10
300,284.42,256.82,10
298,284.70,257.23,10
299,284.98,257.65,10
297,285.22,258.04,10
300,285.52,258.46,10
308,285.97,258.95,10
306,286.37,259.43,10
300,286.64,259.83,10
311,287.13,260.34,10
314,287.67,260.88,10
313,288.17,261.40,10
311,288.63,261.90,10
304,288.94,262.32,10
309,289.34,262.78,10
305,289.65,263.21,10
304,289.94,263.61,10
304,290.22,264.02,10
306,290.53,264.44,10
306,290.84,264.85,10
303,291.09,265.24,10
303,291.33,265.61,10
302,291.54,265.98,10
302,291.75,266.34,10
303,291.97,266.70,10
303,292.19,267.07,10
303,292.41,267.43,10
303,292.62,267.78,10
303,292.83,268.13,10
300,292.97,268.45,10
300,293.11,268.77,10
300,293.25,269.08,10
301,293.41,269.40,10
303,293.60,269.74,10
300,293.73,270.04,10
298,293.81,270.32,10
298,293.90,270.59,10
298,293.98,270.87,10
297,294.04,271.13,10
298,294.12,271.40,10
297,294.17,271.65,10
298,294.25,271.92,10
294,294.25,272.14,10
295,294.26,272.37,10
294,294.26,272.58,10
296,294.29,272.82,10
293,294.27,273.02,10
294,294.26,273.23,10
293,294.23,273.43,10
295,294.25,273.64,10
293,294.23,273.84,10
291,294.16,274.01,10
290,294.08,274.17,10
290,294.00,274.33,10
290,293.92,274.48,10
290,293.84,274.64,10
291,293.78,274.80,10
290,293.71,274.95,10
289,293.61,275.09,10
287,293.48,275.21,10
289,293.39,275.35,10
288,293.28,275.48,10
287,293.16,275.59,10
286,293.01,275.70,10
286,292.87,275.80,10
287,292.76,275.91,10
286,292.62,276.01,10
285,292.47,276.10,10
284,292.30,276.18,10
283,292.11,276.25,10
283,291.93,276.32,10
283,291.75,276.38,10
282,291.56,276.44,10
283,291.39,276.51,10
282,291.20,276.56,10
281,290.99,276.61,10
281,290.79,276.65,10
281,290.60,276.69,10
279,290.37,276.72,10
278,290.12,276.73,10
278,289.88,276.74,10
278,289.64,276.75,10
277,289.39,276.76,10
276,289.12,276.75,10
276,288.86,276.74,10
277,288.62,276.74,10
276,288.37,276.74,10
276,288.12,276.73,10
275,287.86,276.71,10
275,287.60,276.70,10
274,287.33,276.67,10
273,287.04,276.63,10
274,286.78,276.61,10
274,286.52,276.58,10
274,286.27,276.55,10
273,286.01,276.52,10
272,285.73,276.47,10
271,285.43,276.42,10
273,285.19,276.38,10
275,284.98,276.37,10
273,284.74,276.34,10
272,284.49,276.29,10
273,284.26,276.26,10
273,284.03,276.23,10
273,283.81,276.20,10
271,283.56,276.14,10
270,283.28,276.08,10
271,283.04,276.03,10
270,282.78,275.97,10
269,282.50,275.90,10
269,282.23,275.83,10
269,281.97,275.76,10
268,281.69,275.69,10
267,281.39,275.60,10
267,281.11,275.51,10
266,280.80,275.42,10
266,280.51,275.32,10
265,280.20,275.22,10
266,279.91,275.13,10
265,279.62,275.03,10
264,279.30,274.92,10
264,279.00,274.81,10
264,278.70,274.70,10
262,278.36,274.57,10
262,278.04,274.45,10
262,277.72,274.32,10
262,277.40,274.20,10
261,277.07,274.07,10
261,276.75,273.94,10
262,276.46,273.82,10
260,276.13,273.68,10
259,275.79,273.53,10
259,275.45,273.39,10
259,275.12,273.24,10
259,274.80,273.10,10
261,274.52,272.98,10
258,274.19,272.83,10
258,273.87,272.68,10
258,273.55,272.53,10
258,273.24,272.39,10
259,272.95,272.26,10
257,272.64,272.10,10
259,272.36,271.97,10
257,272.06,271.82,10
256,271.73,271.66,11
256,271.42,271.51,11
256,271.11,271.35,11
255,270.79,271.19,11
254,270.45,271.02,11
256,270.16,270.87,11
255,269.86,270.71,11
255,269.56,270.55,11
255,269.27,270.40,11
253,268.95,270.22,11
253,268.63,270.05,11
254,268.34,269.89,11
253,268.03,269.72,11
252,267.71,269.54,11
251,267.37,269.36,11
253,267.09,269.19,11
251,266.76,269.01,11
250,266.43,268.82,11
250,266.10,268.63,11
251,265.80,268.46,11
249,265.46,268.26,11
248,265.11,268.06,11
250,264.81,267.88,11
249,264.50,267.69,11
