Teste de posicionamento 1.1(EMG ao centro do bíceps (Verde A, Vermelho B) + Ref no pulso) - 19/10/2024 - teste9 - 5 contrações
long frequencia = 1000;                 //frequência de aquisição do sinal, neste caso, 1000 sinais por segundo
float fator1 = 0.02, fator2 = 0.01;
float incerteza = 0.13;
float pico_basal = 130; // Mínimo para ser considerado um pico de contração
int filtro_horizontal=200000; //intervalo de 200ms valores não pode ter mais de 1 contração

Biceps_D,mediaMovel_1,mediaMovel_2,Contracao
96,1.92,0.96,0
98,3.84,1.93,0
96,5.68,2.87,0
95,7.47,3.79,0
96,9.24,4.71,0
97,11.00,5.64,0
97,12.72,6.55,0
96,14.38,7.45,0
96,16.01,8.33,0
96,17.61,9.21,0
95,19.16,10.07,0
96,20.70,10.92,0
97,22.23,11.79,0
95,23.68,12.62,0
96,25.13,13.45,0
96,26.54,14.28,0
95,27.91,15.08,0
95,29.26,15.88,0
95,30.57,16.67,0
96,31.88,17.47,0
95,33.14,18.24,0
95,34.38,19.01,0
95,35.59,19.77,0
94,36.76,20.51,0
96,37.94,21.27,0
98,39.14,22.04,0
96,40.28,22.77,0
94,41.36,23.49,0
96,42.45,24.21,0
95,43.50,24.92,0
96,44.55,25.63,0
94,45.54,26.31,0
95,46.53,27.00,0
96,47.52,27.69,0
94,48.45,28.35,0
95,49.38,29.02,0
95,50.29,29.68,0
95,51.19,30.33,0
94,52.04,30.97,0
96,52.92,31.62,0
96,53.78,32.26,0
98,54.67,32.92,0
94,55.45,33.53,0
94,56.22,34.14,0
95,57.00,34.75,0
94,57.74,35.34,0
94,58.46,35.93,0
94,59.18,36.51,0
95,59.89,37.09,0
94,60.57,37.66,0
94,61.24,38.22,0
96,61.94,38.80,0
94,62.58,39.35,0
94,63.21,39.90,0
94,63.82,40.44,0
94,64.43,40.98,0
95,65.04,41.52,0
94,65.62,42.04,0
94,66.19,42.56,0
94,66.74,43.08,0
95,67.31,43.59,0
94,67.84,44.10,0
100,68.48,44.66,0
94,68.99,45.15,0
94,69.49,45.64,0
94,69.98,46.12,0
95,70.48,46.61,0
96,71.00,47.11,0
94,71.46,47.57,0
94,71.91,48.04,0
95,72.37,48.51,0
94,72.80,48.96,0
95,73.24,49.42,0
95,73.68,49.88,0
94,74.09,50.32,0
96,74.52,50.78,0
94,74.91,51.21,0
94,75.30,51.64,0
94,75.67,52.06,0
94,76.04,52.48,0
94,76.40,52.90,0
94,76.75,53.31,0
94,77.09,53.71,0
94,77.43,54.12,0
96,77.80,54.54,0
94,78.13,54.93,0
94,78.44,55.32,0
94,78.75,55.71,0
94,79.06,56.09,0
94,79.36,56.47,0
94,79.65,56.85,0
94,79.94,57.22,0
94,80.22,57.58,0
93,80.48,57.94,0
93,80.73,58.29,0
93,80.97,58.64,0
93,81.21,58.98,0
93,81.45,59.32,0
95,81.72,59.68,0
93,81.94,60.01,0
93,82.17,60.34,0
93,82.38,60.67,0
93,82.59,60.99,0
93,82.80,61.31,0
93,83.01,61.63,0
93,83.21,61.94,0
95,83.44,62.27,0
93,83.63,62.58,0
92,83.80,62.87,0
93,83.98,63.17,0
92,84.14,63.46,0
94,84.34,63.77,0
92,84.50,64.05,0
93,84.67,64.34,0
93,84.83,64.63,0
93,85.00,64.91,0
94,85.18,65.20,0
92,85.31,65.47,0
93,85.47,65.74,0
93,85.62,66.02,0
92,85.74,66.28,0
94,85.91,66.55,0
93,86.05,66.82,0
93,86.19,67.08,0
92,86.31,67.33,0
92,86.42,67.58,0
93,86.55,67.83,0
94,86.70,68.09,0
92,86.81,68.33,0
92,86.91,68.57,0
92,87.01,68.80,0
92,87.11,69.03,0
93,87.23,69.27,0
92,87.33,69.50,0
93,87.44,69.74,0
92,87.53,69.96,0
91,87.60,70.17,0
90,87.65,70.37,0
92,87.73,70.58,0
91,87.80,70.79,0
92,87.88,71.00,0
92,87.97,71.21,0
92,88.05,71.42,0
91,88.11,71.61,0
90,88.14,71.80,0
91,88.20,71.99,0
91,88.26,72.18,0
91,88.31,72.37,0
90,88.35,72.54,0
94,88.46,72.76,0
92,88.53,72.95,0
91,88.58,73.13,0
92,88.65,73.32,0
92,88.71,73.51,0
91,88.76,73.68,0
92,88.82,73.87,0
90,88.85,74.03,0
90,88.87,74.19,0
91,88.91,74.35,0
90,88.94,74.51,0
90,88.96,74.67,0
90,88.98,74.82,0
91,89.02,74.98,0
90,89.04,75.13,0
92,89.10,75.30,0
92,89.16,75.47,0
90,89.17,75.61,0
90,89.19,75.76,0
92,89.24,75.92,0
91,89.28,76.07,0
91,89.31,76.22,0
92,89.37,76.38,0
90,89.38,76.51,0
91,89.41,76.66,0
90,89.42,76.79,0
90,89.44,76.92,0
92,89.49,77.07,0
92,89.54,77.22,0
90,89.55,77.35,0
90,89.56,77.48,0
90,89.57,77.60,0
91,89.59,77.74,0
91,89.62,77.87,0
90,89.63,77.99,0
89,89.62,78.10,0
90,89.62,78.22,0
90,89.63,78.34,0
90,89.64,78.45,0
90,89.65,78.57,0
90,89.65,78.68,0
90,89.66,78.80,0
90,89.67,78.91,0
90,89.67,79.02,0
90,89.68,79.13,0
90,89.69,79.24,0
89,89.67,79.34,0
89,89.66,79.43,0
90,89.67,79.54,0
93,89.73,79.67,0
90,89.74,79.78,0
89,89.72,79.87,0
90,89.73,79.97,0
92,89.77,80.09,0
90,89.78,80.19,0
90,89.78,80.29,0
90,89.79,80.38,0
91,89.81,80.49,0
90,89.82,80.59,0
90,89.82,80.68,0
90,89.82,80.77,0
92,89.87,80.89,0
90,89.87,80.98,0
90,89.87,81.07,0
90,89.87,81.16,0
90,89.88,81.24,0
89,89.86,81.32,0
90,89.86,81.41,0
92,89.91,81.51,0
92,89.95,81.62,0
91,89.97,81.71,0
90,89.97,81.80,0
90,89.97,81.88,0
89,89.95,81.95,0
90,89.95,82.03,0
90,89.95,82.11,0
90,89.95,82.19,0
89,89.93,82.26,0
90,89.94,82.33,0
90,89.94,82.41,0
90,89.94,82.49,0
91,89.96,82.57,0
90,89.96,82.65,0
90,89.96,82.72,0
90,89.96,82.79,0
89,89.94,82.85,0
89,89.92,82.92,0
90,89.92,82.99,0
88,89.89,83.04,0
89,89.87,83.10,0
90,89.87,83.17,0
90,89.87,83.23,0
90,89.88,83.30,0
90,89.88,83.37,0
90,89.88,83.43,0
90,89.88,83.50,0
92,89.93,83.59,0
92,89.97,83.67,0
91,89.99,83.74,0
90,89.99,83.81,0
91,90.01,83.88,0
91,90.03,83.95,0
91,90.05,84.02,0
92,90.09,84.10,0
92,90.13,84.18,0
92,90.16,84.26,0
92,90.20,84.33,0
92,90.24,84.41,0
92,90.27,84.49,0
92,90.31,84.56,0
92,90.34,84.64,0
92,90.37,84.71,0
92,90.41,84.78,0
93,90.46,84.86,0
92,90.49,84.94,0
94,90.56,85.03,0
94,90.63,85.12,0
93,90.67,85.20,0
94,90.74,85.28,0
94,90.81,85.37,0
94,90.87,85.46,0
94,90.93,85.54,0
94,90.99,85.63,0
94,91.05,85.71,0
95,91.13,85.80,0
94,91.19,85.89,0
96,91.29,85.99,0
94,91.34,86.07,0
95,91.41,86.16,0
96,91.51,86.25,0
95,91.58,86.34,0
94,91.62,86.42,0
95,91.69,86.50,0
94,91.74,86.58,0
98,91.86,86.69,0
96,91.95,86.79,0
95,92.01,86.87,0
95,92.07,86.95,0
95,92.13,87.03,0
96,92.20,87.12,0
95,92.26,87.20,0
94,92.29,87.27,0
96,92.37,87.35,0
95,92.42,87.43,0
95,92.47,87.51,0
96,92.54,87.59,0
95,92.59,87.67,0
94,92.62,87.73,0
94,92.65,87.79,0
94,92.67,87.85,0
96,92.74,87.94,0
94,92.77,88.00,0
94,92.79,88.06,0
95,92.84,88.13,0
94,92.86,88.18,0
93,92.86,88.23,0
95,92.90,88.30,0
94,92.93,88.36,0
95,92.97,88.42,0
94,92.99,88.48,0
95,93.03,88.54,0
97,93.11,88.63,0
96,93.17,88.70,0
97,93.24,88.79,0
97,93.32,88.87,0
99,93.43,88.97,0
97,93.50,89.05,0
98,93.59,89.14,0
98,93.68,89.23,0
101,93.83,89.35,0
99,93.93,89.44,0
99,94.03,89.54,0
100,94.15,89.64,0
100,94.27,89.75,0
102,94.42,89.87,0
100,94.53,89.97,0
100,94.64,90.07,0
101,94.77,90.18,0
100,94.88,90.28,0
100,94.98,90.37,0
101,95.10,90.48,0
101,95.22,90.59,0
103,95.37,90.71,0
101,95.48,90.81,0
102,95.61,90.92,0
101,95.72,91.03,0
101,95.83,91.13,0
101,95.93,91.22,0
101,96.03,91.32,0
101,96.13,91.42,0
105,96.31,91.55,0
103,96.44,91.67,0
102,96.55,91.77,0
102,96.66,91.87,0
101,96.75,91.97,0
101,96.84,92.06,0
101,96.92,92.15,0
101,97.00,92.23,0
101,97.08,92.32,0
102,97.18,92.42,0
101,97.25,92.50,0
101,97.33,92.59,0
101,97.40,92.67,0
101,97.48,92.76,0
101,97.55,92.84,0
103,97.65,92.94,0
102,97.74,93.03,0
103,97.85,93.13,0
102,97.93,93.22,0
103,98.03,93.32,0
104,98.15,93.42,0
105,98.29,93.54,0
104,98.40,93.64,0
105,98.53,93.76,0
104,98.64,93.86,0
105,98.77,93.97,0
105,98.89,94.08,0
107,99.06,94.21,0
105,99.18,94.32,0
107,99.33,94.45,0
108,99.51,94.58,0
108,99.68,94.72,0
109,99.86,94.86,0
109,100.04,95.00,0
110,100.24,95.15,0
109,100.42,95.29,0
110,100.61,95.44,0
110,100.80,95.58,0
110,100.98,95.73,0
111,101.18,95.88,0
110,101.36,96.02,0
112,101.57,96.18,0
111,101.76,96.33,0
114,102.01,96.50,0
112,102.21,96.66,0
114,102.44,96.83,0
114,102.67,97.00,0
113,102.88,97.16,0
114,103.10,97.33,0
115,103.34,97.51,0
115,103.57,97.68,0
115,103.80,97.86,0
116,104.05,98.04,0
115,104.26,98.21,0
114,104.46,98.37,0
115,104.67,98.53,0
115,104.88,98.70,0
115,105.08,98.86,0
114,105.26,99.01,0
116,105.47,99.18,0
114,105.64,99.33,0
116,105.85,99.50,0
114,106.01,99.64,0
116,106.21,99.81,0
114,106.37,99.95,0
115,106.54,100.10,0
114,106.69,100.24,0
116,106.88,100.39,0
115,107.04,100.54,0
117,107.24,100.70,0
115,107.39,100.85,0
117,107.59,101.01,0
117,107.77,101.17,0
117,107.96,101.33,0
115,108.10,101.46,0
119,108.32,101.64,0
119,108.53,101.81,0
119,108.74,101.99,0
115,108.87,102.12,0
118,109.05,102.27,0
119,109.25,102.44,0
119,109.44,102.61,0
119,109.63,102.77,0
120,109.84,102.94,0
121,110.06,103.12,0
121,110.28,103.30,0
123,110.54,103.50,0
122,110.77,103.68,0
122,110.99,103.87,0
122,111.21,104.05,0
122,111.43,104.23,0
123,111.66,104.42,0
122,111.87,104.59,0
121,112.05,104.76,0
122,112.25,104.93,0
123,112.46,105.11,0
123,112.67,105.29,0
122,112.86,105.46,0
122,113.04,105.62,0
122,113.22,105.78,0
122,113.40,105.95,0
122,113.57,106.11,0
123,113.76,106.28,0
123,113.94,106.44,0
123,114.12,106.61,0
123,114.30,106.77,0
122,114.45,106.93,0
124,114.65,107.10,0
122,114.79,107.25,0
122,114.94,107.39,0
124,115.12,107.56,0
124,115.30,107.72,0
124,115.47,107.89,0
124,115.64,108.05,0
125,115.83,108.22,0
125,116.01,108.38,0
125,116.19,108.55,0
125,116.37,108.72,0
125,116.54,108.88,0
125,116.71,109.04,0
127,116.91,109.22,0
129,117.16,109.42,0
129,117.39,109.61,0
129,117.63,109.81,0
129,117.85,110.00,0
131,118.12,110.21,0
131,118.37,110.42,0
132,118.65,110.63,0
134,118.95,110.87,0
133,119.23,111.09,0
133,119.51,111.31,0
133,119.78,111.52,0
134,120.06,111.75,0
131,120.28,111.94,0
133,120.54,112.15,0
134,120.81,112.37,0
135,121.09,112.60,0
137,121.41,112.84,0
137,121.72,113.08,0
137,122.03,113.32,0
138,122.35,113.57,0
140,122.70,113.83,0
140,123.04,114.09,0
139,123.36,114.34,0
140,123.70,114.60,0
141,124.04,114.86,0
140,124.36,115.11,0
139,124.65,115.35,0
141,124.98,115.61,0
141,125.30,115.86,0
143,125.66,116.14,0
145,126.04,116.42,0
146,126.44,116.72,0
146,126.83,117.01,0
148,127.26,117.32,0
147,127.65,117.62,0
149,128.08,117.93,0
149,128.50,118.24,0
149,128.91,118.55,0
149,129.31,118.86,0
150,129.72,119.17,0
151,130.15,119.49,0
153,130.60,119.82,0
153,131.05,120.15,0
153,131.49,120.48,0
154,131.94,120.82,0
155,132.40,121.16,0
157,132.89,121.52,0
157,133.38,121.87,0
156,133.83,122.21,0
157,134.29,122.56,0
157,134.75,122.90,0
161,135.27,123.29,0
159,135.75,123.64,0
157,136.17,123.98,0
158,136.61,124.32,0
159,137.06,124.66,0
158,137.47,125.00,0
158,137.89,125.33,0
161,138.35,125.68,0
161,138.80,126.04,0
160,139.22,126.38,0
160,139.64,126.71,0
161,140.07,127.06,0
159,140.45,127.37,0
162,140.88,127.72,0
164,141.34,128.08,0
163,141.77,128.43,0
164,142.22,128.79,0
165,142.67,129.15,0
168,143.18,129.54,0
167,143.66,129.91,0
167,144.12,130.28,0
168,144.60,130.66,0
169,145.09,131.05,0
167,145.53,131.40,0
169,146.00,131.78,0
169,146.46,132.15,0
169,146.91,132.52,0
171,147.39,132.91,0
171,147.86,133.29,0
171,148.32,133.66,0
171,148.78,134.04,0
171,149.22,134.41,0
170,149.64,134.76,0
173,150.10,135.15,0
175,150.60,135.54,0
177,151.13,135.96,0
177,151.65,136.37,0
180,152.22,136.81,0
181,152.79,137.25,0
184,153.41,137.71,0
187,154.09,138.21,0
187,154.74,138.70,0
187,155.39,139.18,0
187,156.02,139.66,0
187,156.64,140.13,0
190,157.31,140.63,0
191,157.98,141.13,0
190,158.62,141.62,0
193,159.31,142.14,0
194,160.00,142.65,0
193,160.66,143.16,0
193,161.31,143.66,0
195,161.98,144.17,0
193,162.61,144.66,0
195,163.25,145.16,0
194,163.87,145.65,0
194,164.47,146.13,0
193,165.04,146.60,0
193,165.60,147.07,0
197,166.23,147.56,0
198,166.86,148.07,0
200,167.53,148.59,0
202,168.22,149.12,0
203,168.91,149.66,0
202,169.57,150.18,0
205,170.28,150.73,0
205,170.98,151.28,0
207,171.70,151.83,0
210,172.46,152.41,0
211,173.23,153.00,0
210,173.97,153.57,0
211,174.71,154.14,0
212,175.46,154.72,0
213,176.21,155.31,0
213,176.94,155.88,0
212,177.64,156.44,0
215,178.39,157.03,0
216,179.14,157.62,0
218,179.92,158.22,0
217,180.66,158.81,0
221,181.47,159.43,0
223,182.30,160.07,0
225,183.15,160.72,0
225,183.99,161.36,0
225,184.81,162.00,0
225,185.61,162.63,0
226,186.42,163.26,0
225,187.19,163.88,0
225,187.95,164.49,0
225,188.69,165.09,0
227,189.46,165.71,0
229,190.25,166.35,0
230,191.04,166.98,0
230,191.82,167.61,0
231,192.61,168.25,0
233,193.41,168.89,0
233,194.20,169.54,0
235,195.02,170.19,0
234,195.80,170.83,0
234,196.56,171.46,0
234,197.31,172.09,0
233,198.03,172.69,0
233,198.73,173.30,0
234,199.43,173.90,0
233,200.10,174.50,0
233,200.76,175.08,0
235,201.45,175.68,0
235,202.12,176.27,0
234,202.75,176.85,0
235,203.40,177.43,0
235,204.03,178.01,0
235,204.65,178.58,0
237,205.30,179.16,0
237,205.93,179.74,0
237,206.55,180.31,0
237,207.16,180.88,0
236,207.74,181.43,0
236,208.30,181.98,0
237,208.88,182.53,0
235,209.40,183.05,0
237,209.95,183.59,0
236,210.47,184.12,0
237,211.00,184.64,0
237,211.52,185.17,0
237,212.03,185.69,0
237,212.53,186.20,0
236,213.00,186.70,0
237,213.48,187.20,0
237,213.95,187.70,0
239,214.45,188.21,0
238,214.92,188.71,0
238,215.39,189.20,0
238,215.84,189.69,0
237,216.26,190.16,0
237,216.68,190.63,0
239,217.12,191.11,0
237,217.52,191.57,0
237,217.91,192.03,0
237,218.29,192.48,0
236,218.65,192.91,0
235,218.97,193.33,0
236,219.31,193.76,0
235,219.63,194.17,0
235,219.93,194.58,0
235,220.24,194.99,0
234,220.51,195.38,0
235,220.80,195.77,0
233,221.05,196.14,0
232,221.26,196.50,0
236,221.56,196.90,0
233,221.79,197.26,0
232,221.99,197.61,0
233,222.21,197.96,0
232,222.41,198.30,0
232,222.60,198.64,0
232,222.79,198.97,0
232,222.97,199.30,0
231,223.13,199.62,0
231,223.29,199.93,0
229,223.40,200.22,0
229,223.52,200.51,0
229,223.63,200.80,0
229,223.73,201.08,0
229,223.84,201.36,0
228,223.92,201.62,0
228,224.00,201.89,0
227,224.06,202.14,0
228,224.14,202.40,0
225,224.16,202.62,0
227,224.22,202.87,0
225,224.23,203.09,0
226,224.27,203.32,0
225,224.28,203.53,0
226,224.32,203.76,0
225,224.33,203.97,0
225,224.34,204.18,0
224,224.34,204.38,0
224,224.33,204.58,0
223,224.30,204.76,0
223,224.28,204.94,0
223,224.25,205.12,0
223,224.23,205.30,0
223,224.20,205.48,0
222,224.16,205.64,0
223,224.13,205.82,0
221,224.07,205.97,0
221,224.01,206.12,0
221,223.95,206.27,0
221,223.89,206.42,0
220,223.81,206.55,0
221,223.76,206.70,0
221,223.70,206.84,0
220,223.63,206.97,0
219,223.54,207.09,0
219,223.44,207.21,0
219,223.36,207.33,0
219,223.27,207.44,0
219,223.18,207.56,0
218,223.08,207.66,0
219,223.00,207.78,0
217,222.88,207.87,0
217,222.76,207.96,0
217,222.65,208.05,0
217,222.53,208.14,0
217,222.42,208.23,0
219,222.35,208.34,0
217,222.25,208.42,0
217,222.14,208.51,0
217,222.04,208.59,0
217,221.94,208.68,0
217,221.84,208.76,0
216,221.72,208.83,0
216,221.61,208.91,0
215,221.48,208.97,0
215,221.35,209.03,0
214,221.20,209.08,0
215,221.08,209.14,0
213,220.91,209.18,0
213,220.76,209.21,0
213,220.60,209.25,0
213,220.45,209.29,0
211,220.26,209.31,0
212,220.09,209.33,0
212,219.93,209.36,0
211,219.75,209.38,0
211,219.58,209.39,0
211,219.41,209.41,0
210,219.22,209.41,0
210,219.03,209.42,0
210,218.85,209.43,0
209,218.66,209.42,0
209,218.46,209.42,0
211,218.31,209.43,0
209,218.13,209.43,0
208,217.93,209.41,0
208,217.73,209.40,0
208,217.53,209.39,0
208,217.34,209.37,0
207,217.14,209.35,0
206,216.91,209.32,0
207,216.71,209.29,0
207,216.52,209.27,0
205,216.29,209.23,0
206,216.08,209.19,0
205,215.86,209.15,0
205,215.64,209.11,0
205,215.43,209.07,0
204,215.20,209.02,0
205,215.00,208.98,0
203,214.76,208.92,0
204,214.54,208.87,0
204,214.33,208.82,0
204,214.13,208.77,0
203,213.90,208.72,0
205,213.73,208.68,0
203,213.51,208.62,0
203,213.30,208.57,0
203,213.10,208.51,0
202,212.87,208.44,0
201,212.64,208.37,0
202,212.42,208.31,0
201,212.19,208.23,0
201,211.97,208.16,0
201,211.75,208.09,0
200,211.52,208.01,0
201,211.31,207.94,0
201,211.10,207.87,0
199,210.86,207.78,0
198,210.60,207.68,0
199,210.37,207.60,0
198,210.12,207.50,0
200,209.92,207.42,0
197,209.66,207.32,0
197,209.41,207.22,0
197,209.16,207.11,0
197,208.92,207.01,0
197,208.68,206.91,0
196,208.42,206.80,0
196,208.18,206.70,0
196,207.93,206.59,0
196,207.69,206.48,0
195,207.44,206.37,0
195,207.19,206.26,0
195,206.95,206.14,0
195,206.71,206.03,0
195,206.47,205.92,0
195,206.24,205.81,0
194,206.00,205.69,0
195,205.78,205.59,0
193,205.52,205.46,1
193,205.27,205.34,1
193,205.03,205.21,1
194,204.81,205.10,1
193,204.57,204.98,1
193,204.34,204.86,1
192,204.09,204.73,1
192,203.85,204.60,1
192,203.61,204.48,1
194,203.42,204.37,1
192,203.19,204.25,1
191,202.95,204.12,1
191,202.71,203.99,1
190,202.46,203.85,1
192,202.25,203.73,1
190,202.00,203.59,1
190,201.76,203.45,1
189,201.51,203.31,1
189,201.26,203.17,1
190,201.03,203.03,1
190,200.81,202.90,1
189,200.58,202.77,1
189,200.34,202.63,1
189,200.12,202.49,1
189,199.89,202.36,1
188,199.66,202.21,1
188,199.42,202.07,1
188,199.19,201.93,1
188,198.97,201.79,1
189,198.77,201.66,1
188,198.56,201.53,1
189,198.36,201.40,1
187,198.14,201.26,1
187,197.91,201.11,1
185,197.66,200.95,1
186,197.42,200.80,1
186,197.20,200.66,1
185,196.95,200.50,1
185,196.71,200.34,1
185,196.48,200.19,1
185,196.25,200.04,1
185,196.02,199.89,1
185,195.80,199.74,1
184,195.57,199.58,1
185,195.36,199.44,1
184,195.13,199.28,1
185,194.93,199.14,1
184,194.71,198.99,1
183,194.47,198.83,1
183,194.24,198.67,1
183,194.02,198.51,1
182,193.78,198.35,1
183,193.56,198.19,1
181,193.31,198.02,1
182,193.09,197.86,1
181,192.84,197.69,1
181,192.61,197.53,1
182,192.39,197.37,1
182,192.19,197.22,1
182,191.98,197.07,1
181,191.76,196.90,1
181,191.55,196.75,1
179,191.30,196.57,1
181,191.09,196.41,1
179,190.85,196.24,1
180,190.63,196.08,1
180,190.42,195.92,1
179,190.19,195.75,1
179,189.97,195.58,1
179,189.75,195.41,1
178,189.51,195.24,1
178,189.28,195.07,1
177,189.04,194.89,1
177,188.80,194.71,1
178,188.58,194.54,1
177,188.35,194.36,1
177,188.12,194.19,1
177,187.90,194.02,1
176,187.66,193.84,1
176,187.43,193.66,1
177,187.22,193.49,1
176,187.00,193.32,1
175,186.76,193.14,1
176,186.54,192.96,1
177,186.35,192.80,1
175,186.12,192.63,1
175,185.90,192.45,1
175,185.68,192.28,1
175,185.47,192.10,1
175,185.26,191.93,1
175,185.05,191.76,1
175,184.85,191.60,1
174,184.64,191.42,1
175,184.44,191.26,1
174,184.23,191.08,1
173,184.01,190.90,1
173,183.79,190.72,1
173,183.57,190.55,1
173,183.36,190.37,1
172,183.13,190.19,1
171,182.89,189.99,1
172,182.67,189.81,1
172,182.46,189.64,1
176,182.33,189.50,1
172,182.13,189.32,1
171,181.90,189.14,1
172,181.70,188.97,1
171,181.49,188.79,1
171,181.28,188.61,1
171,181.08,188.44,1
171,180.87,188.26,1
171,180.68,188.09,1
171,180.48,187.92,1
169,180.25,187.73,1
169,180.03,187.54,1
169,179.81,187.36,1
170,179.61,187.18,1
169,179.40,187.00,1
171,179.23,186.84,1
170,179.05,186.67,1
169,178.85,186.50,1
169,178.65,186.32,1
168,178.44,186.14,1
170,178.27,185.98,1
169,178.08,185.81,1
169,177.90,185.64,1
169,177.72,185.47,1
169,177.55,185.31,1
168,177.36,185.13,1
168,177.17,184.96,1
169,177.01,184.80,1
168,176.83,184.64,1
167,176.63,184.46,1
167,176.44,184.28,1
167,176.25,184.11,1
167,176.06,183.94,1
165,175.84,183.75,1
166,175.65,183.57,1
167,175.47,183.41,1
166,175.28,183.23,1
165,175.08,183.05,1
165,174.88,182.87,1
165,174.68,182.69,1
165,174.48,182.52,1
165,174.29,182.34,1
165,174.11,182.17,1
165,173.93,182.00,1
163,173.71,181.81,1
164,173.51,181.63,1
164,173.32,181.45,1
165,173.16,181.29,1
164,172.97,181.11,1
164,172.79,180.94,1
164,172.62,180.77,1
163,172.43,180.60,1
163,172.24,180.42,1
163,172.05,180.25,1
163,171.87,180.07,1
162,171.67,179.89,1
163,171.50,179.72,1
162,171.31,179.55,1
161,171.10,179.36,1
161,170.90,179.18,1
161,170.70,179.00,1
161,170.51,178.82,1
159,170.28,178.62,1
161,170.09,178.44,1
161,169.91,178.27,1
161,169.73,178.09,1
160,169.54,177.91,1
161,169.37,177.74,1
161,169.20,177.58,1
159,169.00,177.39,1
160,168.82,177.22,1
156,168.56,177.00,1
159,168.37,176.82,1
160,168.20,176.66,1
159,168.02,176.48,1
158,167.82,176.29,1
158,167.62,176.11,1
158,167.43,175.93,1
158,167.24,175.75,1
159,167.08,175.58,1
157,166.87,175.40,1
157,166.68,175.21,1
157,166.48,175.03,1
157,166.29,174.85,1
157,166.11,174.67,1
157,165.93,174.50,1
157,165.75,174.32,1
157,165.57,174.15,1
157,165.40,173.98,1
157,165.23,173.81,1
157,165.07,173.64,1
157,164.91,173.47,1
158,164.77,173.32,1
157,164.61,173.15,1
157,164.46,172.99,1
157,164.31,172.83,1
157,164.17,172.67,1
156,164.00,172.51,1
156,163.84,172.34,1
156,163.69,172.18,1
156,163.53,172.02,1
156,163.38,171.86,1
156,163.23,171.70,1
156,163.09,171.54,1
155,162.93,171.38,1
156,162.79,171.22,1
155,162.63,171.06,1
156,162.50,170.91,1
155,162.35,170.75,1
155,162.20,170.59,1
155,162.06,170.44,1
156,161.94,170.29,1
155,161.80,170.14,1
156,161.68,170.00,1
153,161.51,169.83,1
154,161.36,169.67,1
155,161.23,169.52,1
153,161.07,169.36,1
153,160.91,169.20,1
153,160.75,169.03,1
153,160.59,168.87,1
153,160.44,168.71,1
154,160.31,168.57,1
153,160.17,168.41,1
153,160.02,168.26,1
153,159.88,168.10,1
153,159.74,167.95,1
152,159.59,167.79,1
152,159.44,167.64,1
152,159.29,167.48,1
152,159.14,167.32,1
151,158.98,167.16,1
152,158.84,167.01,1
152,158.70,166.86,1
152,158.57,166.71,1
152,158.44,166.56,1
151,158.29,166.41,1
152,158.16,166.26,1
152,158.04,166.12,1
153,157.94,165.99,1
153,157.84,165.86,1
152,157.72,165.72,1
151,157.59,165.57,1
152,157.48,165.44,1
151,157.35,165.29,1
152,157.24,165.16,1
151,157.12,165.02,1
150,156.97,164.87,1
150,156.83,164.72,1
153,156.76,164.60,1
149,156.60,164.45,1
150,156.47,164.30,1
150,156.34,164.16,1
149,156.19,164.01,1
151,156.09,163.88,1
150,155.97,163.74,1
150,155.85,163.60,1
149,155.71,163.46,1
149,155.58,163.31,1
150,155.47,163.18,1
151,155.38,163.06,1
149,155.25,162.92,1
149,155.12,162.78,1
149,155.00,162.64,1
150,154.90,162.51,1
146,154.72,162.35,1
150,154.63,162.22,1
148,154.50,162.08,1
148,154.37,161.94,1
149,154.26,161.81,1
149,154.15,161.68,1
149,154.05,161.56,1
149,153.95,161.43,1
148,153.83,161.30,1
148,153.72,161.16,1
149,153.62,161.04,1
147,153.49,160.90,1
149,153.40,160.78,1
148,153.29,160.66,1
148,153.18,160.53,1
148,153.08,160.40,1
148,152.98,160.28,1
147,152.86,160.15,1
148,152.76,160.03,1
147,152.65,159.90,1
147,152.53,159.77,1
147,152.42,159.64,1
147,152.32,159.51,1
147,152.21,159.39,1
146,152.08,159.25,1
146,151.96,159.12,1
146,151.84,158.99,1
145,151.71,158.85,1
145,151.57,158.71,1
145,151.44,158.57,1
145,151.31,158.44,1
145,151.19,158.30,1
145,151.06,158.17,1
146,150.96,158.05,1
145,150.84,157.92,1
145,150.73,157.79,1
145,150.61,157.66,1
144,150.48,157.52,1
143,150.33,157.38,1
144,150.20,157.25,1
144,150.08,157.11,1
144,149.96,156.98,1
144,149.84,156.85,1
143,149.70,156.71,1
144,149.59,156.59,1
143,149.46,156.45,1
143,149.33,156.32,1
143,149.20,156.18,1
143,149.08,156.05,1
143,148.95,155.92,1
144,148.86,155.80,1
141,148.70,155.65,1
141,148.54,155.51,1
141,148.39,155.36,1
142,148.27,155.23,1
141,148.12,155.09,1
141,147.98,154.95,1
141,147.84,154.81,1
141,147.70,154.67,1
143,147.61,154.55,1
141,147.48,154.42,1
141,147.35,154.28,1
141,147.22,154.15,1
140,147.07,154.01,1
141,146.95,153.88,1
141,146.83,153.75,1
139,146.68,153.60,1
139,146.52,153.45,1
140,146.39,153.32,1
140,146.27,153.19,1
140,146.14,153.06,1
140,146.02,152.92,1
141,145.92,152.81,1
139,145.78,152.67,1
139,145.64,152.53,1
139,145.51,152.40,1
137,145.34,152.24,1
139,145.21,152.11,1
139,145.09,151.98,1
139,144.97,151.85,1
139,144.85,151.72,1
138,144.71,151.58,1
139,144.60,151.46,1
139,144.48,151.33,1
137,144.33,151.19,1
138,144.21,151.06,1
137,144.06,150.92,1
137,143.92,150.78,1
137,143.78,150.64,1
137,143.65,150.50,1
136,143.50,150.36,1
137,143.37,150.22,1
136,143.22,150.08,1
137,143.09,149.95,1
135,142.93,149.80,1
138,142.83,149.68,1
136,142.70,149.55,1
137,142.58,149.42,1
135,142.43,149.28,1
137,142.32,149.15,1
136,142.20,149.02,1
135,142.05,148.88,1
136,141.93,148.75,1
135,141.79,148.62,1
135,141.66,148.48,1
135,141.52,148.35,1
135,141.39,148.21,1
135,141.27,148.08,1
135,141.14,147.95,1
135,141.02,147.82,1
135,140.90,147.69,1
134,140.76,147.55,1
135,140.64,147.43,1
134,140.51,147.29,1
135,140.40,147.17,1
134,140.27,147.04,1
135,140.17,146.92,1
134,140.04,146.79,1
134,139.92,146.66,1
134,139.80,146.54,1
135,139.71,146.42,1
133,139.57,146.29,1
133,139.44,146.15,1
134,139.33,146.03,1
134,139.23,145.91,1
134,139.12,145.79,1
133,139.00,145.66,1
133,138.88,145.54,1
133,138.76,145.41,1
133,138.65,145.29,1
133,138.53,145.17,1
133,138.42,145.04,1
133,138.32,144.92,1
136,138.27,144.83,1
133,138.16,144.72,1
133,138.06,144.60,1
132,137.94,144.47,1
132,137.82,144.35,1
132,137.70,144.22,1
131,137.57,144.09,1
132,137.46,143.97,1
131,137.33,143.84,1
132,137.22,143.72,1
131,137.10,143.60,1
131,136.98,143.47,1
131,136.86,143.35,1
131,136.74,143.22,1
129,136.58,143.08,1
132,136.49,142.97,1
129,136.34,142.83,1
131,136.24,142.71,1
131,136.13,142.59,1
131,136.03,142.48,1
129,135.89,142.34,1
129,135.75,142.21,1
129,135.62,142.08,1
129,135.48,141.95,1
130,135.37,141.83,1
129,135.25,141.70,1
129,135.12,141.57,1
129,135.00,141.45,1
129,134.88,141.32,1
128,134.74,141.19,1
129,134.63,141.07,1
128,134.49,140.94,1
128,134.36,140.81,1
129,134.26,140.69,1
128,134.13,140.56,1
128,134.01,140.44,1
129,133.91,140.32,1
129,133.81,140.21,1
128,133.69,140.09,1
128,133.58,139.97,1
128,133.47,139.85,1
127,133.34,139.72,1
128,133.23,139.60,1
127,133.11,139.47,1
127,132.99,139.35,1
127,132.87,139.23,1
127,132.75,139.10,1
127,132.63,138.98,1
127,132.52,138.86,1
127,132.41,138.74,1
127,132.30,138.63,1
127,132.20,138.51,1
126,132.07,138.39,1
126,131.95,138.26,1
125,131.81,138.13,1
127,131.72,138.02,1
127,131.62,137.91,1
126,131.51,137.79,1
127,131.42,137.68,1
125,131.29,137.55,1
125,131.16,137.43,1
125,131.04,137.30,1
125,130.92,137.18,1
125,130.80,137.06,1
125,130.69,136.94,1
126,130.59,136.83,1
125,130.48,136.71,1
125,130.37,136.59,1
126,130.28,136.49,1
125,130.18,136.37,1
125,130.07,136.26,1
125,129.97,136.15,1
125,129.87,136.04,1
125,129.78,135.92,1
125,129.68,135.82,1
125,129.59,135.71,1
124,129.48,135.59,1
125,129.39,135.48,1
124,129.28,135.37,1
125,129.19,135.27,1
125,129.11,135.16,1
125,129.03,135.06,1
123,128.91,134.94,1
125,128.83,134.84,1
123,128.71,134.72,1
124,128.62,134.62,1
124,128.52,134.51,1
122,128.39,134.38,1
124,128.31,134.28,1
123,128.20,134.17,1
124,128.12,134.07,1
123,128.01,133.96,1
123,127.91,133.85,1
123,127.82,133.74,1
123,127.72,133.63,1
123,127.62,133.52,1
124,127.55,133.43,1
123,127.46,133.32,1
123,127.37,133.22,1
122,127.26,133.11,1
123,127.18,133.01,1
122,127.08,132.90,1
124,127.01,132.81,1
121,126.89,132.69,1
122,126.80,132.58,1
122,126.70,132.48,1
123,126.63,132.38,1
122,126.53,132.28,1
122,126.44,132.18,1
121,126.33,132.06,1
119,126.19,131.93,1
121,126.08,131.82,1
121,125.98,131.72,1
121,125.88,131.61,1
121,125.78,131.50,1
121,125.69,131.40,1
121,125.60,131.29,1
121,125.50,131.19,1
121,125.41,131.09,1
121,125.32,130.99,1
121,125.24,130.89,1
120,125.13,130.78,1
120,125.03,130.67,1
120,124.93,130.57,1
120,124.83,130.46,1
120,124.74,130.36,1
120,124.64,130.25,1
119,124.53,130.14,1
120,124.44,130.04,1
119,124.33,129.93,1
119,124.22,129.82,1
119,124.12,129.71,1
119,124.01,129.60,1
118,123.89,129.49,1
120,123.82,129.39,1
117,123.68,129.27,1
118,123.57,129.16,1
117,123.44,129.03,1
118,123.33,128.92,1
117,123.20,128.80,1
118,123.10,128.70,1
119,123.01,128.60,1
117,122.89,128.48,1
117,122.78,128.37,1
117,122.66,128.25,1
118,122.57,128.15,1
118,122.48,128.05,1
117,122.37,127.94,1
117,122.26,127.83,1
121,122.23,127.76,1
117,122.13,127.65,1
117,122.03,127.55,1
117,121.93,127.44,1
117,121.83,127.34,1
115,121.69,127.21,1
118,121.62,127.12,1
117,121.52,127.02,1
117,121.43,126.92,1
117,121.35,126.82,1
117,121.26,126.72,1
117,121.17,126.63,1
116,121.07,126.52,1
117,120.99,126.43,1
117,120.91,126.33,1
117,120.83,126.24,1
114,120.69,126.12,1
117,120.62,126.02,1
117,120.55,125.93,1
117,120.48,125.84,1
117,120.41,125.76,1
118,120.36,125.68,1
117,120.29,125.59,1
117,120.23,125.51,1
117,120.16,125.42,1
117,120.10,125.34,1
117,120.04,125.25,1
117,119.98,125.17,1
117,119.92,125.09,1
117,119.86,125.01,1
117,119.80,124.93,1
116,119.72,124.84,1
117,119.67,124.76,1
115,119.58,124.66,1
117,119.53,124.59,1
117,119.47,124.51,1
116,119.41,124.43,1
117,119.36,124.35,1
119,119.35,124.30,1
117,119.30,124.22,1
117,119.26,124.15,1
117,119.21,124.08,1
117,119.17,124.01,1
119,119.16,123.96,1
117,119.12,123.89,1
117,119.08,123.82,1
117,119.04,123.75,1
117,119.00,123.69,1
117,118.96,123.62,1
119,118.96,123.57,1
117,118.92,123.51,1
119,118.92,123.46,1
118,118.90,123.41,1
117,118.86,123.34,1
118,118.85,123.29,1
120,118.87,123.26,1
119,118.87,123.21,1
119,118.87,123.17,1
117,118.84,123.11,1
119,118.84,123.07,1
120,118.86,123.04,1
119,118.87,123.00,1
119,118.87,122.96,1
119,118.87,122.92,1
120,118.89,122.89,1
119,118.90,122.85,1
121,118.94,122.83,1
119,118.94,122.79,1
119,118.94,122.76,1
119,118.94,122.72,1
120,118.96,122.69,1
119,118.96,122.65,1
119,118.96,122.62,1
117,118.93,122.56,1
118,118.91,122.52,1
119,118.91,122.48,1
119,118.91,122.45,1
118,118.89,122.40,1
119,118.89,122.37,1
119,118.90,122.33,1
118,118.88,122.29,1
117,118.84,122.24,1
118,118.82,122.19,1
119,118.83,122.16,1
119,118.83,122.13,1
118,118.81,122.09,1
119,118.82,122.06,1
119,118.82,122.03,1
119,118.83,122.00,1
119,118.83,121.97,1
120,118.85,121.95,1
119,118.86,121.92,1
121,118.90,121.91,1
122,118.96,121.91,1
121,119.00,121.90,1
121,119.04,121.89,1
121,119.08,121.88,1
121,119.12,121.88,1
121,119.16,121.87,1
123,119.23,121.88,1
123,119.31,121.89,1
123,119.38,121.90,1
124,119.47,121.92,1
123,119.55,121.93,1
125,119.65,121.96,1
123,119.72,121.97,1
123,119.79,121.98,1
124,119.87,122.00,1
123,119.93,122.01,1
124,120.01,122.03,1
123,120.07,122.04,1
125,120.17,122.07,1
123,120.23,122.08,1
124,120.31,122.10,1
125,120.40,122.13,1
125,120.49,122.16,1
125,120.58,122.19,1
125,120.67,122.22,1
125,120.76,122.24,1
126,120.86,122.28,1
125,120.94,122.31,1
124,121.00,122.32,1
125,121.08,122.35,1
125,121.16,122.38,1
124,121.22,122.39,1
124,121.28,122.41,1
124,121.33,122.43,1
124,121.38,122.44,1
124,121.44,122.46,1
123,121.47,122.46,1
125,121.54,122.49,1
123,121.57,122.49,1
124,121.62,122.51,1
124,121.66,122.52,1
124,121.71,122.54,1
124,121.76,122.55,1
125,121.82,122.58,1
124,121.86,122.59,1
123,121.89,122.60,1
124,121.93,122.61,1
123,121.95,122.61,1
123,121.97,122.62,1
124,122.01,122.63,1
124,122.05,122.64,1
123,122.07,122.65,1
124,122.11,122.66,1
123,122.13,122.67,1
121,122.10,122.65,1
123,122.12,122.65,1
126,122.20,122.69,1
123,122.22,122.69,1
123,122.23,122.69,1
122,122.23,122.68,1
122,122.22,122.68,1
121,122.20,122.66,1
122,122.19,122.65,1
122,122.19,122.65,1
123,122.21,122.65,1
123,122.22,122.66,1
122,122.22,122.65,1
122,122.21,122.64,1
123,122.23,122.65,1
124,122.26,122.66,1
123,122.28,122.66,1
124,122.31,122.68,1
120,122.27,122.65,1
124,122.30,122.66,1
123,122.32,122.67,1
125,122.37,122.69,1
124,122.40,122.70,1
125,122.45,122.73,1
125,122.51,122.75,1
126,122.58,122.78,1
126,122.64,122.81,1
127,122.73,122.85,1
125,122.78,122.88,1
126,122.84,122.91,1
127,122.92,122.95,1
127,123.01,122.99,1
127,123.09,123.03,1
127,123.16,123.07,1
127,123.24,123.11,1
127,123.32,123.15,1
127,123.39,123.19,1
127,123.46,123.22,1
129,123.57,123.28,1
128,123.66,123.33,1
128,123.75,123.38,1
129,123.85,123.43,1
130,123.98,123.50,1
129,124.08,123.55,1
129,124.17,123.61,1
129,124.27,123.66,1
131,124.41,123.73,1
131,124.54,123.81,1
131,124.67,123.88,1
132,124.81,123.96,1
132,124.96,124.04,1
132,125.10,124.12,1
131,125.22,124.19,1
133,125.37,124.28,1
131,125.48,124.34,1
133,125.63,124.43,1
133,125.78,124.52,1
133,125.93,124.60,1
133,126.07,124.69,1
134,126.23,124.78,1
133,126.36,124.86,1
133,126.49,124.94,1
133,126.62,125.02,1
133,126.75,125.10,1
134,126.90,125.19,1
133,127.02,125.27,1
133,127.14,125.35,1
134,127.28,125.43,1
133,127.39,125.51,1
133,127.50,125.58,1
135,127.65,125.68,1
133,127.76,125.75,1
135,127.90,125.84,1
135,128.05,125.94,1
135,128.19,126.03,1
135,128.32,126.12,1
137,128.50,126.22,1
137,128.67,126.33,1
139,128.87,126.46,1
139,129.07,126.58,1
139,129.27,126.71,1
139,129.47,126.83,1
139,129.66,126.95,1
139,129.85,127.07,1
141,130.07,127.21,1
141,130.29,127.35,1
142,130.52,127.50,1
145,130.81,127.67,1
145,131.09,127.85,1
145,131.37,128.02,1
145,131.65,128.19,1
146,131.93,128.37,1
145,132.19,128.53,1
145,132.45,128.70,1
146,132.72,128.87,1
146,132.99,129.04,1
149,133.31,129.24,1
146,133.56,129.41,1
146,133.81,129.57,1
148,134.09,129.76,1
149,134.39,129.95,1
149,134.68,130.14,1
151,135.01,130.35,1
152,135.35,130.57,1
153,135.70,130.79,1
153,136.05,131.01,1
153,136.39,131.23,1
153,136.72,131.45,1
153,137.05,131.67,1
153,137.36,131.88,1
155,137.72,132.11,1
155,138.06,132.34,1
155,138.40,132.57,1
156,138.75,132.80,1
155,139.08,133.02,1
155,139.40,133.24,1
154,139.69,133.45,1
156,140.02,133.67,1
157,140.36,133.91,1
158,140.71,134.15,1
159,141.07,134.40,1
159,141.43,134.64,1
159,141.78,134.89,1
161,142.17,135.15,1
159,142.50,135.39,1
161,142.87,135.64,1
160,143.22,135.89,1
161,143.57,136.14,1
160,143.90,136.38,1
160,144.22,136.61,1
160,144.54,136.85,1
160,144.85,137.08,1
160,145.15,137.31,1
161,145.47,137.54,1
161,145.78,137.78,1
161,146.08,138.01,1
161,146.38,138.24,1
161,146.67,138.47,1
162,146.98,138.70,1
162,147.28,138.94,1
165,147.64,139.20,1
168,148.04,139.49,1
167,148.42,139.76,1
168,148.81,140.04,1
169,149.22,140.33,1
169,149.61,140.62,1
170,150.02,140.91,1
169,150.40,141.19,1
173,150.85,141.51,1
175,151.33,141.85,1
177,151.85,142.20,1
181,152.43,142.59,1
179,152.96,142.95,1
180,153.50,143.32,1
180,154.03,143.69,1
181,154.57,144.06,1
181,155.10,144.43,1
180,155.60,144.79,1
181,156.11,145.15,1
184,156.67,145.54,1
185,157.23,145.93,1
184,157.77,146.31,1
184,158.29,146.69,1
184,158.81,147.06,1
185,159.33,147.44,1
187,159.88,147.84,1
189,160.47,148.25,1
189,161.04,148.66,1
189,161.60,149.06,1
191,162.18,149.48,1
193,162.80,149.91,1
193,163.40,150.34,1
193,164.00,150.77,1
193,164.58,151.19,1
193,165.14,151.61,1
193,165.70,152.03,1
195,166.29,152.46,1
194,166.84,152.87,1
198,167.46,153.32,1
199,168.10,153.78,1
201,168.75,154.25,1
200,169.38,154.71,1
201,170.01,155.17,1
203,170.67,155.65,1
201,171.28,156.10,1
205,171.95,156.59,1
207,172.65,157.10,1
209,173.38,157.62,1
211,174.13,158.15,1
213,174.91,158.70,1
211,175.63,159.22,1
214,176.40,159.77,1
216,177.19,160.33,1
218,178.01,160.91,1
219,178.83,161.49,1
220,179.65,162.07,1
222,180.50,162.67,1
224,181.37,163.29,1
227,182.28,163.92,1
225,183.13,164.53,1
225,183.97,165.14,1
225,184.79,165.74,1
227,185.64,166.35,1
227,186.46,166.96,1
229,187.31,167.58,1
231,188.19,168.21,1
237,189.16,168.90,1
233,190.04,169.54,1
234,190.92,170.18,1
233,191.76,170.81,1
238,192.69,171.48,1
239,193.61,172.16,1
241,194.56,172.85,1
241,195.49,173.53,1
240,196.38,174.19,1
241,197.27,174.86,1
241,198.15,175.52,1
239,198.96,176.16,1
243,199.84,176.83,1
244,200.73,177.50,1
245,201.61,178.17,1
245,202.48,178.84,1
247,203.37,179.52,1
250,204.30,180.23,1
249,205.20,180.92,1
252,206.13,181.63,1
254,207.09,182.35,1
253,208.01,183.06,1
254,208.93,183.77,1
256,209.87,184.49,1
256,210.79,185.20,1
256,211.70,185.91,1
258,212.62,186.63,1
257,213.51,187.34,1
260,214.44,188.06,1
261,215.37,188.79,1
262,216.30,189.52,1
261,217.20,190.24,1
265,218.15,190.99,1
264,219.07,191.72,1
265,219.99,192.45,1
267,220.93,193.20,1
267,221.85,193.93,1
268,222.77,194.67,1
267,223.66,195.40,1
269,224.57,196.13,1
267,225.41,196.84,1
267,226.25,197.54,1
266,227.04,198.23,1
266,227.82,198.91,1
266,228.58,199.58,1
265,229.31,200.23,1
265,230.03,200.88,1
265,230.73,201.52,1
265,231.41,202.15,1
267,232.12,202.80,1
267,232.82,203.45,1
267,233.50,204.08,1
266,234.15,204.70,1
269,234.85,205.34,1
269,235.53,205.98,1
266,236.14,206.58,1
268,236.78,207.19,1
267,237.38,207.79,1
269,238.02,208.40,1
270,238.66,209.02,1
268,239.24,209.61,1
268,239.82,210.19,1
270,240.42,210.79,1
269,240.99,211.37,1
271,241.59,211.97,1
269,242.14,212.54,1
270,242.70,213.12,1
269,243.23,213.67,1
269,243.74,214.23,1
268,244.23,214.76,1
269,244.72,215.31,1
269,245.21,215.84,1
267,245.64,216.36,1
268,246.09,216.87,1
267,246.51,217.37,1
267,246.92,217.87,1
266,247.30,218.35,1
265,247.65,218.82,1
265,248.00,219.28,1
266,248.36,219.75,1
265,248.69,220.20,1
265,249.02,220.65,1
264,249.32,221.08,1
263,249.59,221.50,1
263,249.86,221.91,1
262,250.10,222.32,1
262,250.34,222.71,1
263,250.59,223.12,1
261,250.80,223.49,1
261,251.01,223.87,1
261,251.21,224.24,1
260,251.38,224.60,1
259,251.54,224.94,1
259,251.68,225.28,1
262,251.89,225.65,1
258,252.01,225.97,1
259,252.15,226.30,1
258,252.27,226.62,1
259,252.40,226.94,1
258,252.52,227.26,1
258,252.63,227.56,1
259,252.75,227.88,1
257,252.84,228.17,1
257,252.92,228.46,1
257,253.00,228.74,1
256,253.06,229.01,1
256,253.12,229.28,1
256,253.18,229.55,1
255,253.22,229.81,1
255,253.25,230.06,1
252,253.23,230.28,1
253,253.22,230.50,1
253,253.22,230.73,1
253,253.21,230.95,1
253,253.21,231.17,1
253,253.20,231.39,1
252,253.18,231.60,1
252,253.16,231.80,1
251,253.11,231.99,1
252,253.09,232.19,1
250,253.03,232.37,1
250,252.97,232.55,1
249,252.89,232.71,1
249,252.81,232.87,1
249,252.74,233.04,1
248,252.64,233.19,1
248,252.55,233.33,1
248,252.46,233.48,1
248,252.37,233.63,1
247,252.26,233.76,1
248,252.18,233.90,1
247,252.07,234.03,1
247,251.97,234.16,1
246,251.85,234.28,1
246,251.73,234.40,1
245,251.60,234.50,1
246,251.49,234.62,1
245,251.36,234.72,1
245,251.23,234.83,1
245,251.11,234.93,1
244,250.96,235.02,1
244,250.82,235.11,1
243,250.67,235.19,1
243,250.51,235.27,1
243,250.36,235.34,1
242,250.20,235.41,1
241,250.01,235.46,1
241,249.83,235.52,1
241,249.66,235.58,1
239,249.44,235.61,1
240,249.25,235.65,1
241,249.09,235.71,1
239,248.89,235.74,1
239,248.69,235.77,1
239,248.50,235.80,1
239,248.31,235.84,1
238,248.10,235.86,1
238,247.90,235.88,1
237,247.68,235.89,1
237,247.47,235.90,1
237,247.26,235.91,1
237,247.05,235.92,1
237,246.85,235.93,1
236,246.63,235.94,1
236,246.42,235.94,1
235,246.19,235.93,1
235,245.97,235.92,1
234,245.73,235.90,1
236,245.53,235.90,1
234,245.30,235.88,1
233,245.06,235.85,1
233,244.82,235.82,1
233,244.58,235.79,1
233,244.35,235.77,1
233,244.12,235.74,1
232,243.88,235.70,1
231,243.62,235.65,1
232,243.39,235.62,1
232,243.16,235.58,1
232,242.94,235.55,1
231,242.70,235.50,1
231,242.47,235.46,1
230,242.22,235.40,1
231,241.99,235.36,1
229,241.73,235.29,1
229,241.48,235.23,1
229,241.23,235.17,1
229,240.98,235.11,1
231,240.78,235.07,1
229,240.55,235.00,1
228,240.30,234.93,1
227,240.03,234.86,1
227,239.77,234.78,1
227,239.52,234.70,1
226,239.25,234.61,1
225,238.96,234.52,1
226,238.70,234.43,1
225,238.43,234.34,1
225,238.16,234.24,1
225,237.90,234.15,1
227,237.68,234.08,1
225,237.42,233.99,1
225,237.18,233.90,1
225,236.93,233.81,1
224,236.67,233.71,1
223,236.40,233.60,1
225,236.17,233.52,1
223,235.91,233.41,1
224,235.67,233.32,1
223,235.42,233.22,1
223,235.17,233.11,1
223,234.93,233.01,1
223,234.69,232.91,1
222,234.43,232.80,1
222,234.18,232.70,1
223,233.96,232.60,1
223,233.74,232.50,1
222,233.51,232.40,1
221,233.26,232.28,1
220,232.99,232.16,1
219,232.71,232.03,1
221,232.48,231.92,1
219,232.21,231.79,1
219,231.94,231.66,1
217,231.64,231.51,2
219,231.39,231.39,2
218,231.12,231.26,2
218,230.86,231.12,2
217,230.58,230.98,2
217,230.31,230.84,2
218,230.07,230.71,2
216,229.79,230.57,2
217,229.53,230.43,2
216,229.26,230.29,2
215,228.97,230.13,2
216,228.71,229.99,2
215,228.44,229.84,2
214,228.15,229.68,2
214,227.87,229.53,2
213,227.57,229.36,2
213,227.28,229.20,2
213,226.99,229.04,2
213,226.71,228.88,2
216,226.50,228.75,2
212,226.21,228.58,2
212,225.93,228.41,2
212,225.65,228.25,2
213,225.39,228.10,2
212,225.13,227.94,2
213,224.88,227.79,2
211,224.61,227.62,2
210,224.31,227.44,2
210,224.03,227.27,2
211,223.77,227.11,2
209,223.47,226.92,2
209,223.18,226.75,2
209,222.90,226.57,2
209,222.62,226.39,2
209,222.35,226.22,2
208,222.06,226.04,2
207,221.76,225.85,2
208,221.48,225.67,2
207,221.20,225.48,2
207,220.91,225.30,2
207,220.63,225.11,2
207,220.36,224.93,2
207,220.09,224.75,2
207,219.83,224.58,2
206,219.55,224.39,2
205,219.26,224.20,2
207,219.02,224.02,2
205,218.74,223.83,2
205,218.46,223.65,2
205,218.19,223.46,2
205,217.93,223.27,2
205,217.67,223.09,2
205,217.42,222.91,2
204,217.15,222.72,2
204,216.89,222.53,2
204,216.63,222.35,2
203,216.36,222.16,2
205,216.13,221.98,2
204,215.89,221.80,2
204,215.65,221.63,2
204,215.42,221.45,2
204,215.19,221.28,2
203,214.94,221.09,2
203,214.71,220.91,2
203,214.47,220.73,2
203,214.24,220.55,2
204,214.04,220.39,2
203,213.82,220.22,2
204,213.62,220.05,2
202,213.39,219.87,2
201,213.14,219.68,2
202,212.92,219.51,2
201,212.68,219.32,2
201,212.44,219.14,2
203,212.26,218.98,2
201,212.03,218.80,2
201,211.81,218.62,2
201,211.59,218.44,2
201,211.38,218.27,2
200,211.15,218.09,2
201,210.95,217.92,2
200,210.73,217.74,2
199,210.50,217.55,2
200,210.29,217.37,2
199,210.06,217.19,2
199,209.84,217.01,2
199,209.62,216.83,2
199,209.41,216.65,2
198,209.18,216.46,2
197,208.94,216.27,2
198,208.72,216.09,2
198,208.51,215.90,2
197,208.28,215.72,2
198,208.07,215.54,2
197,207.85,215.35,2
197,207.63,215.17,2
196,207.40,214.98,2
196,207.17,214.79,2
196,206.95,214.60,2
195,206.71,214.40,2
195,206.48,214.21,2
195,206.25,214.02,2
195,206.02,213.83,2
195,205.80,213.64,2
195,205.58,213.45,2
194,205.35,213.26,2
194,205.13,213.07,2
194,204.90,212.88,2
194,204.69,212.69,2
193,204.45,212.49,2
193,204.22,212.30,2
193,204.00,212.10,2
193,203.78,211.91,2
193,203.56,211.72,2
192,203.33,211.52,2
192,203.10,211.33,2
191,202.86,211.13,2
191,202.63,210.93,2
191,202.39,210.73,2
191,202.16,210.53,2
190,201.92,210.32,2
191,201.70,210.13,2
190,201.47,209.93,2
190,201.24,209.73,2
189,200.99,209.52,2
189,200.76,209.32,2
189,200.52,209.11,2
189,200.29,208.91,2
188,200.04,208.70,2
187,199.78,208.49,2
188,199.55,208.28,2
187,199.30,208.07,2
188,199.07,207.87,2
188,198.85,207.67,2
187,198.61,207.46,2
187,198.38,207.26,2
186,198.13,207.05,2
186,197.89,206.84,2
187,197.67,206.64,2
186,197.44,206.43,2
187,197.23,206.24,2
186,197.00,206.03,2
187,196.80,205.84,2
185,196.57,205.63,2
187,196.38,205.45,2
185,196.15,205.24,2
185,195.93,205.04,2
185,195.71,204.84,2
185,195.49,204.64,2
185,195.28,204.45,2
184,195.06,204.24,2
184,194.84,204.04,2
184,194.62,203.84,2
184,194.41,203.64,2
184,194.20,203.44,2
184,194.00,203.25,2
183,193.78,203.05,2
184,193.58,202.86,2
182,193.35,202.65,2
183,193.14,202.45,2
182,192.92,202.25,2
183,192.72,202.05,2
181,192.49,201.84,2
181,192.26,201.64,2
181,192.03,201.43,2
182,191.83,201.24,2
181,191.61,201.03,2
180,191.38,200.82,2
184,191.23,200.65,2
181,191.03,200.46,2
181,190.83,200.26,2
179,190.59,200.05,2
180,190.38,199.85,2
179,190.15,199.64,2
180,189.95,199.45,2
179,189.73,199.24,2
180,189.54,199.05,2
179,189.33,198.85,2
179,189.12,198.65,2
177,188.88,198.43,2
178,188.66,198.23,2
177,188.43,198.02,2
177,188.20,197.81,2
177,187.97,197.60,2
177,187.75,197.39,2
177,187.54,197.19,2
177,187.33,196.99,2
175,187.08,196.77,2
177,186.88,196.57,2
176,186.66,196.36,2
175,186.43,196.15,2
175,186.20,195.94,2
175,185.98,195.73,2
177,185.80,195.54,2
175,185.58,195.34,2
174,185.35,195.12,2
175,185.14,194.92,2
174,184.92,194.71,2
174,184.70,194.50,2
174,184.49,194.30,2
173,184.26,194.09,2
174,184.05,193.89,2
174,183.85,193.69,2
174,183.65,193.49,2
173,183.44,193.29,2
173,183.23,193.08,2
173,183.03,192.88,2
173,182.83,192.68,2
173,182.63,192.49,2
173,182.44,192.29,2
173,182.25,192.10,2
173,182.06,191.91,2
172,181.86,191.71,2
171,181.65,191.50,2
172,181.45,191.31,2
172,181.26,191.11,2
172,181.08,190.92,2
172,180.90,190.73,2
171,180.70,190.54,2
172,180.53,190.35,2
171,180.33,190.16,2
171,180.15,189.97,2
171,179.96,189.78,2
171,179.79,189.59,2
171,179.61,189.40,2
171,179.44,189.22,2
169,179.23,189.02,2
171,179.06,188.84,2
171,178.90,188.66,2
171,178.75,188.48,2
170,178.57,188.30,2
171,178.42,188.12,2
169,178.23,187.93,2
169,178.05,187.74,2
169,177.86,187.55,2
170,177.71,187.38,2
169,177.53,187.20,2
169,177.36,187.01,2
169,177.20,186.83,2
169,177.03,186.66,2
169,176.87,186.48,2
168,176.69,186.29,2
169,176.54,186.12,2
168,176.37,185.94,2
168,176.20,185.76,2
167,176.02,185.57,2
167,175.84,185.39,2
167,175.66,185.20,2
167,175.49,185.02,2
165,175.28,184.82,2
167,175.11,184.64,2
167,174.95,184.47,2
167,174.79,184.29,2
166,174.61,184.11,2
166,174.44,183.93,2
165,174.25,183.74,2
165,174.07,183.55,2
165,173.89,183.37,2
165,173.71,183.18,2
165,173.54,183.00,2
163,173.32,182.80,2
165,173.16,182.62,2
165,173.00,182.45,2
165,172.84,182.27,2
164,172.66,182.09,2
164,172.49,181.91,2
164,172.32,181.73,2
163,172.13,181.54,2
164,171.97,181.37,2
163,171.79,181.18,2
163,171.61,181.00,2
163,171.44,180.82,2
161,171.23,180.62,2
163,171.07,180.45,2
161,170.86,180.25,2
163,170.71,180.08,2
162,170.53,179.90,2
162,170.36,179.72,2
160,170.16,179.52,2
161,169.97,179.34,2
161,169.79,179.15,2
161,169.62,178.97,2
160,169.42,178.78,2
160,169.24,178.59,2
161,169.07,178.42,2
160,168.89,178.23,2
160,168.71,178.05,2
160,168.54,177.87,2
160,168.37,177.69,2
160,168.20,177.52,2
159,168.02,177.33,2
159,167.84,177.15,2
158,167.64,176.96,2
159,167.47,176.78,2
158,167.28,176.59,2
160,167.13,176.42,2
157,166.93,176.23,2
158,166.75,176.05,2
157,166.55,175.86,2
158,166.38,175.68,2
158,166.22,175.50,2
157,166.03,175.32,2
157,165.85,175.13,2
157,165.67,174.95,2
157,165.50,174.77,2
157,165.33,174.59,2
157,165.16,174.42,2
157,165.00,174.24,2
157,164.84,174.07,2
156,164.66,173.89,2
157,164.51,173.72,2
154,164.30,173.52,2
157,164.15,173.36,2
156,163.99,173.19,2
155,163.81,173.00,2
155,163.64,172.82,2
155,163.46,172.65,2
159,163.37,172.51,2
155,163.21,172.33,2
155,163.04,172.16,2
154,162.86,171.98,2
155,162.70,171.81,2
153,162.51,171.62,2
155,162.36,171.45,2
154,162.19,171.28,2
153,162.01,171.10,2
153,161.83,170.92,2
153,161.65,170.74,2
153,161.48,170.56,2
153,161.31,170.38,2
153,161.14,170.21,2
153,160.98,170.04,2
153,160.82,169.87,2
152,160.64,169.69,2
153,160.49,169.52,2
153,160.34,169.36,2
153,160.19,169.19,2
153,160.05,169.03,2
152,159.89,168.86,2
152,159.73,168.69,2
152,159.58,168.53,2
151,159.41,168.35,2
152,159.26,168.19,2
151,159.09,168.02,2
152,158.95,167.86,2
151,158.79,167.69,2
151,158.64,167.52,2
150,158.46,167.34,2
150,158.29,167.17,2
150,158.13,167.00,2
150,157.97,166.83,2
149,157.79,166.65,2
150,157.63,166.48,2
149,157.46,166.31,2
149,157.29,166.14,2
150,157.14,165.98,2
150,157.00,165.82,2
149,156.84,165.65,2
148,156.66,165.47,2
149,156.51,165.31,2
147,156.32,165.12,2
148,156.15,164.95,2
148,155.99,164.78,2
148,155.83,164.61,2
148,155.67,164.45,2
149,155.54,164.29,2
147,155.37,164.12,2
148,155.22,163.96,2
147,155.06,163.79,2
147,154.90,163.62,2
148,154.76,163.47,2
147,154.60,163.30,2
147,154.45,163.14,2
147,154.30,162.98,2
148,154.18,162.83,2
147,154.03,162.67,2
148,153.91,162.52,2
146,153.75,162.36,2
147,153.62,162.20,2
146,153.47,162.04,2
147,153.34,161.89,2
145,153.17,161.72,2
145,153.01,161.55,2
145,152.85,161.39,2
145,152.69,161.23,2
145,152.54,161.06,2
145,152.39,160.90,2
146,152.26,160.75,2
145,152.11,160.60,2
145,151.97,160.44,2
145,151.83,160.29,2
145,151.69,160.13,2
145,151.56,159.98,2
145,151.43,159.83,2
144,151.28,159.67,2
143,151.12,159.51,2
144,150.97,159.35,2
145,150.85,159.21,2
144,150.72,159.06,2
145,150.60,158.92,2
145,150.49,158.78,2
143,150.34,158.62,2
143,150.19,158.46,2
143,150.05,158.31,2
143,149.91,158.15,2
143,149.77,158.00,2
143,149.63,157.85,2
143,149.50,157.70,2
141,149.33,157.54,2
143,149.21,157.39,2
143,149.08,157.25,2
143,148.96,157.11,2
143,148.84,156.96,2
142,148.70,156.81,2
143,148.59,156.68,2
142,148.46,156.53,2
143,148.35,156.39,2
141,148.20,156.24,2
141,148.06,156.09,2
142,147.94,155.95,2
142,147.82,155.81,2
141,147.68,155.66,2
141,147.55,155.51,2
141,147.42,155.37,2
141,147.29,155.22,2
141,147.16,155.08,2
141,147.04,154.94,2
142,146.94,154.81,2
140,146.80,154.66,2
141,146.68,154.53,2
139,146.53,154.37,2
141,146.42,154.24,2
139,146.27,154.09,2
139,146.13,153.94,2
139,145.98,153.79,2
139,145.84,153.64,2
139,145.71,153.49,2
139,145.57,153.35,2
139,145.44,153.20,2
139,145.31,153.06,2
139,145.19,152.92,2
138,145.04,152.77,2
139,144.92,152.63,2
138,144.78,152.49,2
137,144.63,152.33,2
137,144.48,152.18,2
138,144.35,152.04,2
137,144.20,151.89,2
137,144.05,151.74,2
137,143.91,151.59,2
136,143.76,151.43,2
136,143.60,151.28,2
137,143.47,151.14,2
135,143.30,150.98,2
135,143.13,150.82,2
135,142.97,150.66,2
135,142.81,150.50,2
135,142.65,150.35,2
135,142.50,150.19,2
135,142.35,150.04,2
135,142.20,149.89,2
135,142.06,149.74,2
135,141.92,149.59,2
136,141.80,149.46,2
134,141.64,149.30,2
135,141.51,149.16,2
137,141.42,149.04,2
134,141.27,148.89,2
135,141.15,148.75,2
134,141.00,148.60,2
133,140.84,148.45,2
134,140.71,148.30,2
133,140.55,148.15,2
134,140.42,148.01,2
135,140.31,147.88,2
134,140.19,147.74,2
134,140.06,147.60,2
134,139.94,147.47,2
133,139.80,147.32,2
133,139.67,147.18,2
133,139.53,147.04,2
133,139.40,146.90,2
132,139.26,146.75,2
133,139.13,146.61,2
134,139.03,146.48,2
133,138.91,146.35,2
133,138.79,146.21,2
133,138.67,146.08,2
133,138.56,145.95,2
132,138.43,145.81,2
133,138.32,145.68,2
133,138.21,145.56,2
133,138.11,145.43,2
132,137.99,145.30,2
131,137.85,145.15,2
133,137.75,145.03,2
131,137.62,144.89,2
131,137.48,144.75,2
132,137.37,144.63,2
131,137.25,144.49,2
132,137.14,144.36,2
132,137.04,144.24,2
131,136.92,144.11,2
132,136.82,143.99,2
131,136.70,143.86,2
131,136.59,143.73,2
131,136.48,143.60,2
131,136.37,143.48,2
131,136.26,143.35,2
130,136.14,143.22,2
129,135.99,143.08,2
130,135.87,142.94,2
129,135.74,142.81,2
129,135.60,142.67,2
129,135.47,142.53,2
129,135.34,142.40,2
130,135.23,142.27,2
129,135.11,142.14,2
130,135.01,142.02,2
129,134.89,141.89,2
129,134.77,141.76,2
127,134.61,141.61,2
129,134.50,141.48,2
130,134.41,141.37,2
129,134.30,141.25,2
129,134.20,141.12,2
129,134.09,141.00,2
129,133.99,140.88,2
129,133.89,140.76,2
129,133.79,140.65,2
128,133.68,140.52,2
128,133.56,140.39,2
128,133.45,140.27,2
129,133.36,140.16,2
128,133.26,140.04,2
127,133.13,139.91,2
127,133.01,139.78,2
127,132.89,139.65,2
127,132.77,139.52,2
127,132.65,139.40,2
127,132.54,139.27,2
127,132.43,139.15,2
127,132.32,139.03,2
127,132.22,138.91,2
127,132.11,138.79,2
127,132.01,138.67,2
128,131.93,138.56,2
127,131.83,138.45,2
127,131.73,138.33,2
127,131.64,138.22,2
129,131.59,138.13,2
128,131.51,138.03,2
128,131.44,137.93,2
128,131.38,137.83,2
128,131.31,137.73,2
129,131.26,137.64,2
129,131.22,137.56,2
128,131.15,137.46,2
128,131.09,137.37,2
129,131.05,137.28,2
128,130.99,137.19,2
128,130.93,137.10,2
128,130.87,137.01,2
128,130.81,136.92,2
128,130.75,136.83,2
129,130.72,136.75,2
128,130.66,136.66,2
128,130.61,136.58,2
128,130.56,136.49,2
129,130.53,136.41,2
129,130.50,136.34,2
128,130.45,136.26,2
127,130.38,136.16,2
127,130.31,136.07,2
128,130.27,135.99,2
127,130.20,135.90,2
127,130.14,135.81,2
128,130.09,135.73,2
129,130.07,135.67,2
127,130.01,135.58,2
127,129.95,135.50,2
127,129.89,135.41,2
129,129.87,135.35,2
128,129.84,135.27,2
129,129.82,135.21,2
128,129.78,135.14,2
128,129.75,135.07,2
129,129.73,135.01,2
129,129.72,134.95,2
129,129.70,134.89,2
129,129.69,134.83,2
129,129.67,134.77,2
129,129.66,134.71,2
129,129.65,134.65,2
129,129.64,134.60,2
129,129.62,134.54,2
129,129.61,134.49,2
130,129.62,134.44,2
128,129.59,134.38,2
128,129.55,134.31,2
128,129.52,134.25,2
129,129.51,134.20,2
129,129.50,134.15,2
128,129.47,134.08,2
128,129.44,134.02,2
128,129.41,133.96,2
128,129.39,133.90,2
129,129.38,133.85,2
129,129.37,133.81,2
129,129.36,133.76,2
129,129.36,133.71,2
128,129.33,133.65,2
128,129.30,133.60,2
128,129.28,133.54,2
129,129.27,133.50,2
131,129.30,133.47,2
128,129.28,133.42,2
127,129.23,133.35,2
127,129.19,133.29,2
125,129.10,133.21,2
127,129.06,133.14,2
127,129.02,133.08,2
125,128.94,133.00,2
127,128.90,132.94,2
127,128.86,132.88,2
127,128.83,132.82,2
127,128.79,132.76,2
127,128.75,132.71,2
127,128.72,132.65,2
126,128.67,132.58,2
125,128.59,132.51,2
126,128.54,132.44,2
125,128.47,132.37,2
125,128.40,132.29,2
126,128.35,132.23,2
126,128.30,132.17,2
126,128.26,132.11,2
126,128.21,132.05,2
127,128.19,132.00,2
127,128.17,131.95,2
128,128.16,131.91,2
127,128.14,131.86,2
128,128.14,131.82,2
129,128.15,131.79,2
129,128.17,131.76,2
129,128.19,131.73,2
130,128.22,131.72,2
129,128.24,131.69,2
131,128.29,131.68,2
129,128.31,131.66,2
129,128.32,131.63,2
129,128.34,131.60,2
130,128.37,131.59,2
130,128.40,131.57,2
130,128.43,131.56,2
129,128.44,131.53,2
129,128.46,131.51,2
129,128.47,131.48,2
129,128.48,131.46,2
129,128.49,131.43,2
129,128.50,131.41,2
129,128.51,131.38,2
129,128.52,131.36,2
129,128.53,131.33,2
128,128.52,131.30,2
129,128.53,131.28,2
129,128.54,131.26,2
129,128.55,131.23,2
128,128.53,131.20,2
130,128.56,131.19,2
127,128.53,131.15,2
129,128.54,131.13,2
129,128.55,131.10,2
129,128.56,131.08,2
131,128.61,131.08,2
130,128.64,131.07,2
130,128.66,131.06,2
131,128.71,131.06,2
131,128.76,131.06,2
130,128.78,131.05,2
129,128.79,131.03,2
129,128.79,131.01,2
129,128.79,130.99,2
129,128.80,130.97,2
130,128.82,130.96,2
130,128.85,130.95,2
130,128.87,130.94,2
129,128.87,130.92,2
129,128.87,130.90,2
129,128.88,130.88,2
129,128.88,130.86,2
129,128.88,130.84,2
129,128.88,130.83,2
127,128.85,130.79,2
129,128.85,130.77,2
129,128.85,130.75,2
128,128.84,130.72,2
129,128.84,130.71,2
129,128.84,130.69,2
129,128.84,130.67,2
129,128.85,130.66,2
131,128.89,130.66,2
129,128.89,130.64,2
129,128.90,130.63,2
129,128.90,130.61,2
129,128.90,130.59,2
129,128.90,130.58,2
129,128.90,130.56,2
129,128.91,130.55,2
130,128.93,130.54,2
129,128.93,130.53,2
129,128.93,130.51,2
129,128.93,130.50,2
129,128.93,130.48,2
129,128.93,130.47,2
129,128.94,130.45,2
130,128.96,130.45,2
131,129.00,130.45,2
133,129.08,130.48,2
131,129.12,130.48,2
132,129.17,130.50,2
132,129.23,130.51,2
133,129.31,130.54,2
133,129.38,130.56,2
135,129.49,130.61,2
133,129.56,130.63,2
134,129.65,130.66,2
133,129.72,130.69,2
133,129.78,130.71,2
135,129.89,130.75,2
133,129.95,130.78,2
133,130.01,130.80,2
134,130.09,130.83,2
137,130.23,130.89,2
135,130.32,130.93,2
135,130.42,130.97,2
135,130.51,131.01,2
137,130.64,131.07,2
137,130.77,131.13,2
136,130.87,131.18,2
137,130.99,131.24,2
136,131.09,131.29,2
137,131.21,131.35,2
136,131.31,131.39,3
137,131.42,131.45,3
136,131.51,131.49,4
136,131.60,131.54,4
136,131.69,131.58,5
135,131.76,131.62,5
135,131.82,131.65,5
137,131.93,131.70,5
134,131.97,131.73,5
136,132.05,131.77,5
137,132.15,131.82,5
137,132.24,131.87,5
137,132.34,131.93,5
137,132.43,131.98,5
136,132.50,132.02,5
136,132.57,132.06,5
137,132.66,132.11,5
137,132.75,132.15,5
137,132.83,132.20,5
137,132.92,132.25,5
137,133.00,132.30,5
137,133.08,132.35,5
139,133.20,132.41,5
137,133.27,132.46,5
139,133.39,132.52,5
137,133.46,132.57,5
137,133.53,132.61,5
137,133.60,132.66,5
137,133.67,132.70,5
137,133.74,132.74,5
137,133.80,132.79,5
137,133.86,132.83,5
137,133.93,132.87,5
137,133.99,132.91,5
137,134.05,132.95,5
137,134.11,132.99,5
137,134.17,133.03,5
136,134.20,133.06,5
138,134.28,133.11,5
139,134.37,133.17,5
137,134.43,133.21,5
139,134.52,133.27,5
139,134.61,133.32,5
140,134.71,133.39,5
140,134.82,133.46,5
140,134.92,133.52,5
140,135.03,133.59,5
140,135.12,133.65,5
141,135.24,133.72,5
141,135.36,133.80,5
141,135.47,133.87,5
141,135.58,133.94,5
141,135.69,134.01,5
142,135.82,134.09,5
141,135.92,134.16,5
141,136.02,134.23,5
143,136.16,134.32,5
141,136.26,134.38,5
143,136.39,134.47,5
141,136.48,134.53,5
143,136.61,134.62,5
143,136.74,134.70,5
142,136.85,134.78,5
143,136.97,134.86,5
142,137.07,134.93,5
143,137.19,135.01,5
144,137.33,135.10,5
144,137.46,135.19,5
144,137.59,135.28,5
144,137.72,135.36,5
143,137.82,135.44,5
145,137.97,135.54,5
145,138.11,135.63,5
145,138.25,135.72,5
147,138.42,135.84,5
147,138.59,135.95,5
145,138.72,136.04,5
148,138.91,136.16,5
147,139.07,136.27,5
147,139.23,136.38,5
149,139.42,136.50,5
149,139.61,136.63,5
147,139.76,136.73,5
149,139.95,136.85,5
149,140.13,136.97,5
150,140.32,137.10,5
151,140.54,137.24,5
151,140.75,137.38,5
151,140.95,137.52,5
151,141.15,137.65,5
153,141.39,137.81,5
153,141.62,137.96,5
153,141.85,138.11,5
155,142.11,138.28,5
155,142.37,138.44,5
153,142.58,138.59,5
154,142.81,138.74,5
154,143.04,138.90,5
153,143.24,139.04,5
156,143.49,139.21,5
155,143.72,139.36,5
156,143.97,139.53,5
156,144.21,139.70,5
159,144.50,139.89,5
159,144.79,140.08,5
161,145.12,140.29,5
163,145.47,140.52,5
162,145.80,140.73,5
161,146.11,140.93,5
163,146.45,141.15,5
166,146.84,141.40,5
169,147.28,141.68,5
169,147.72,141.95,5
169,148.14,142.22,5
172,148.62,142.52,5
173,149.11,142.83,5
175,149.62,143.15,5
175,150.13,143.47,5
176,150.65,143.79,5
176,151.16,144.11,5
177,151.67,144.44,5
179,152.22,144.79,5
180,152.77,145.14,5
180,153.32,145.49,5
179,153.83,145.82,5
181,154.38,146.17,5
181,154.91,146.52,5
180,155.41,146.86,5
181,155.92,147.20,5
183,156.46,147.56,5
183,156.99,147.91,5
181,157.47,148.24,5
183,157.99,148.59,5
183,158.49,148.93,5
183,158.98,149.28,5
184,159.48,149.62,5
183,159.95,149.96,5
184,160.43,150.30,5
183,160.88,150.62,5
183,161.32,150.95,5
185,161.80,151.29,5
184,162.24,151.61,5
185,162.69,151.95,5
189,163.22,152.32,5
189,163.74,152.69,5
189,164.24,153.05,5
189,164.74,153.41,5
191,165.26,153.78,5
192,165.80,154.17,5
194,166.36,154.57,5
196,166.95,154.98,5
196,167.53,155.39,5
197,168.12,155.81,5
200,168.76,156.25,5
202,169.43,156.71,5
204,170.12,157.18,5
203,170.78,157.64,5
204,171.44,158.10,5
206,172.13,158.58,5
205,172.79,159.04,5
208,173.49,159.53,5
209,174.20,160.03,5
208,174.88,160.51,5
209,175.56,160.99,5
211,176.27,161.49,5
211,176.96,161.99,5
211,177.65,162.48,5
212,178.33,162.97,5
211,178.99,163.45,5
212,179.65,163.94,5
212,180.29,164.42,5
213,180.95,164.90,5
216,181.65,165.42,5
215,182.32,165.91,5
215,182.97,166.40,5
220,183.71,166.94,5
221,184.46,167.48,5
222,185.21,168.02,5
221,185.92,168.55,5
223,186.66,169.10,5
224,187.41,169.65,5
224,188.14,170.19,5
226,188.90,170.75,5
228,189.68,171.32,5
228,190.45,171.89,5
227,191.18,172.44,5
229,191.94,173.01,5
233,192.76,173.61,5
235,193.60,174.22,5
234,194.41,174.82,5
235,195.22,175.42,5
237,196.06,176.03,5
239,196.92,176.66,5
237,197.72,177.27,5
237,198.50,177.86,5
237,199.27,178.46,5
238,200.05,179.05,5
239,200.83,179.65,5
240,201.61,180.25,5
241,202.40,180.86,5
241,203.17,181.46,5
243,203.97,182.08,5
245,204.79,182.71,5
247,205.63,183.35,5
247,206.46,183.99,5
251,207.35,184.66,5
251,208.22,185.32,5
252,209.10,185.99,5
251,209.94,186.64,5
252,210.78,187.29,5
251,211.58,187.93,5
251,212.37,188.56,5
252,213.16,189.19,5
252,213.94,189.82,5
255,214.76,190.47,5
254,215.55,191.11,5
255,216.33,191.75,5
253,217.07,192.36,5
256,217.85,193.00,5
258,218.65,193.65,5
260,219.48,194.31,5
259,220.27,194.96,5
260,221.06,195.61,5
261,221.86,196.26,5
265,222.72,196.95,5
263,223.53,197.61,5
266,224.38,198.29,5
264,225.17,198.95,5
266,225.99,199.62,5
265,226.77,200.27,5
265,227.53,200.92,5
264,228.26,201.55,5
265,229.00,202.19,5
265,229.72,202.82,5
265,230.42,203.44,5
265,231.11,204.05,5
266,231.81,204.67,5
267,232.52,205.30,5
266,233.19,205.90,5
268,233.88,206.52,5
268,234.56,207.14,5
268,235.23,207.75,5
267,235.87,208.34,5
267,236.49,208.93,5
271,237.18,209.55,5
272,237.88,210.17,5
269,238.50,210.76,5
272,239.17,211.37,5
274,239.87,212.00,5
274,240.55,212.62,5
273,241.20,213.22,5
273,241.83,213.82,5
273,242.46,214.41,5
272,243.05,214.99,5
273,243.65,215.57,5
272,244.21,216.13,5
272,244.77,216.69,5
271,245.29,217.23,5
272,245.83,217.78,5
272,246.35,218.32,5
271,246.85,218.85,5
271,247.33,219.37,5
271,247.80,219.89,5
271,248.27,220.40,5
275,248.80,220.95,5
273,249.28,221.47,5
273,249.76,221.98,5
273,250.22,222.49,5
273,250.68,223.00,5
273,251.13,223.50,5
275,251.60,224.01,5
275,252.07,224.52,5
275,252.53,225.03,5
275,252.98,225.53,5
273,253.38,226.00,5
273,253.77,226.47,5
273,254.16,226.94,5
274,254.55,227.41,5
273,254.92,227.86,5
273,255.28,228.31,5
271,255.60,228.74,5
272,255.93,229.17,5
271,256.23,229.59,5
271,256.52,230.01,5
271,256.81,230.42,5
271,257.10,230.82,5
271,257.37,231.22,5
270,257.63,231.61,5
271,257.89,232.01,5
269,258.12,232.38,5
270,258.35,232.75,5
269,258.57,233.11,5
269,258.78,233.47,5
267,258.94,233.81,5
268,259.12,234.15,5
268,259.30,234.49,5
268,259.47,234.82,5
267,259.62,235.15,5
267,259.77,235.46,5
267,259.92,235.78,5
266,260.04,236.08,5
266,260.16,236.38,5
265,260.25,236.67,5
265,260.35,236.95,5
265,260.44,237.23,5
265,260.53,237.51,5
264,260.60,237.77,5
263,260.65,238.03,5
263,260.70,238.28,5
263,260.74,238.52,5
263,260.79,238.77,5
263,260.83,239.01,5
262,260.86,239.24,5
261,260.86,239.46,5
261,260.86,239.67,5
262,260.88,239.90,5
263,260.93,240.13,5
262,260.95,240.35,5
262,260.97,240.56,5
262,260.99,240.78,5
263,261.03,241.00,5
261,261.03,241.20,5
261,261.03,241.40,5
261,261.03,241.59,5
261,261.03,241.79,5
259,260.99,241.96,5
260,260.97,242.14,5
260,260.95,242.32,5
261,260.95,242.50,5
260,260.93,242.68,5
259,260.89,242.84,5
259,260.85,243.00,5
259,260.82,243.16,5
259,260.78,243.32,5
257,260.70,243.46,5
257,260.63,243.60,5
257,260.56,243.73,5
257,260.49,243.86,5
256,260.40,243.98,5
256,260.31,244.10,5
255,260.20,244.21,5
255,260.10,244.32,5
254,259.98,244.42,5
256,259.90,244.53,5
253,259.76,244.62,5
253,259.62,244.70,5
253,259.49,244.78,5
253,259.36,244.87,5
253,259.23,244.95,5
252,259.09,245.02,5
251,258.93,245.08,5
251,258.77,245.14,5
251,258.61,245.20,5
250,258.44,245.24,5
251,258.29,245.30,5
249,258.11,245.34,5
249,257.93,245.38,5
249,257.75,245.41,5
249,257.57,245.45,5
248,257.38,245.47,5
249,257.21,245.51,5
247,257.01,245.52,5
247,256.81,245.54,5
247,256.61,245.55,5
247,256.42,245.57,5
246,256.21,245.57,5
245,255.99,245.57,5
245,255.77,245.56,5
245,255.55,245.55,5
245,255.34,245.55,5
243,255.09,245.52,5
244,254.87,245.51,5
244,254.66,245.49,5
243,254.42,245.47,5
243,254.19,245.44,5
244,253.99,245.43,5
242,253.75,245.39,5
242,253.51,245.36,5
242,253.28,245.33,5
241,253.04,245.28,5
242,252.82,245.25,5
241,252.58,245.21,5
241,252.35,245.17,5
241,252.12,245.12,5
241,251.90,245.08,5
241,251.68,245.04,5
241,251.47,245.00,5
240,251.24,244.95,5
239,250.99,244.89,5
239,250.75,244.83,5
240,250.54,244.79,5
239,250.31,244.73,5
240,250.10,244.68,5
237,249.84,244.60,5
237,249.58,244.53,5
237,249.33,244.45,5
237,249.09,244.38,5
237,248.84,244.30,5
236,248.59,244.22,5
236,248.34,244.14,5
236,248.09,244.06,5
236,247.85,243.98,5
235,247.59,243.89,5
235,247.34,243.80,5
234,247.07,243.70,5
234,246.81,243.60,5
234,246.55,243.51,5
235,246.32,243.42,5
233,246.06,243.32,5
232,245.78,243.20,5
233,245.52,243.10,5
233,245.27,243.00,5
233,245.02,242.90,5
236,244.84,242.83,5
232,244.59,242.72,5
231,244.31,242.61,5
231,244.05,242.49,5
231,243.79,242.38,5
231,243.53,242.26,5
230,243.26,242.14,5
229,242.98,242.01,5
229,242.70,241.88,5
229,242.42,241.75,5
229,242.15,241.62,5
229,241.89,241.50,5
228,241.61,241.36,5
228,241.34,241.23,6
229,241.09,241.10,6
228,240.83,240.97,6
227,240.56,240.83,6
228,240.30,240.71,6
228,240.06,240.58,6
228,239.82,240.45,6
228,239.58,240.33,6
227,239.33,240.20,6
228,239.10,240.07,6
227,238.86,239.94,6
226,238.60,239.80,6
226,238.35,239.66,6
226,238.10,239.53,6
225,237.84,239.38,6
225,237.59,239.24,6
225,237.33,239.10,6
224,237.07,238.95,6
224,236.81,238.80,6
225,236.57,238.66,6
223,236.30,238.50,6
224,236.05,238.36,6
223,235.79,238.20,6
223,235.54,238.05,6
224,235.30,237.91,6
223,235.06,237.76,6
222,234.80,237.60,6
223,234.56,237.46,6
221,234.29,237.29,6
221,234.02,237.13,6
221,233.76,236.97,6
221,233.51,236.81,6
221,233.26,236.65,6
221,233.01,236.49,6
220,232.75,236.33,6
219,232.48,236.16,6
220,232.23,236.00,6
219,231.96,235.83,6
219,231.70,235.66,6
219,231.45,235.49,6
218,231.18,235.32,6
217,230.90,235.13,6
218,230.64,234.96,6
218,230.39,234.79,6
217,230.12,234.61,6
217,229.86,234.44,6
217,229.60,234.26,6
217,229.35,234.09,6
216,229.08,233.91,6
216,228.82,233.73,6
216,228.56,233.55,6
216,228.31,233.38,6
215,228.05,233.19,6
215,227.78,233.01,6
215,227.53,232.83,6
214,227.26,232.64,6
213,226.97,232.45,6
214,226.71,232.26,6
215,226.48,232.09,6
214,226.23,231.91,6
214,225.99,231.73,6
214,225.75,231.55,6
213,225.49,231.37,6
213,225.24,231.18,6
213,225.00,231.00,6
212,224.74,230.81,6
212,224.48,230.62,6
212,224.23,230.44,6
213,224.01,230.26,6
211,223.75,230.07,6
211,223.49,229.88,6
211,223.24,229.69,6
211,223.00,229.50,6
211,222.76,229.32,6
210,222.50,229.13,6
210,222.25,228.93,6
210,222.01,228.75,6
209,221.75,228.55,6
209,221.49,228.35,6
209,221.24,228.16,6
209,221.00,227.97,6
209,220.76,227.78,6
209,220.52,227.59,6
208,220.27,227.39,6
207,220.01,227.19,6
209,219.79,227.01,6
207,219.53,226.81,6
207,219.28,226.61,6
207,219.03,226.41,6
206,218.77,226.21,6
207,218.54,226.02,6
206,218.29,225.82,6
205,218.02,225.61,6
205,217.76,225.40,6
205,217.51,225.20,6
204,217.24,224.99,6
205,216.99,224.79,6
201,216.67,224.55,6
203,216.40,224.33,6
203,216.13,224.12,6
204,215.89,223.92,6
202,215.61,223.70,6
202,215.34,223.48,6
201,215.05,223.26,6
202,214.79,223.05,6
201,214.51,222.83,6
202,214.26,222.62,6
202,214.02,222.41,6
201,213.76,222.20,6
201,213.50,221.98,6
201,213.25,221.77,6
201,213.01,221.57,6
201,212.77,221.36,6
201,212.53,221.16,6
200,212.28,220.95,6
201,212.06,220.75,6
199,211.79,220.53,6
201,211.58,220.33,6
200,211.35,220.13,6
199,211.10,219.92,6
199,210.86,219.71,6
199,210.62,219.50,6
199,210.39,219.30,6
199,210.16,219.10,6
198,209.92,218.88,6
197,209.66,218.67,6
197,209.41,218.45,6
197,209.16,218.23,6
197,208.92,218.02,6
197,208.68,217.81,6
196,208.42,217.59,6
196,208.17,217.38,6
196,207.93,217.16,6
195,207.67,216.94,6
196,207.44,216.73,6
195,207.19,216.52,6
198,207.01,216.33,6
193,206.73,216.10,6
194,206.47,215.88,6
195,206.24,215.67,6
194,206.00,215.45,6
195,205.78,215.25,6
194,205.54,215.03,6
194,205.31,214.82,6
193,205.07,214.60,6
193,204.82,214.39,6
193,204.59,214.18,6
193,204.36,213.96,6
193,204.13,213.75,6
193,203.91,213.55,6
193,203.69,213.34,6
193,203.47,213.14,6
192,203.24,212.93,6
192,203.02,212.72,6
193,202.82,212.52,6
193,202.62,212.32,6
193,202.43,212.13,6
192,202.22,211.93,6
192,202.02,211.73,6
192,201.82,211.53,6
193,201.64,211.35,6
192,201.45,211.15,6
191,201.24,210.95,6
192,201.05,210.76,6
191,200.85,210.57,6
190,200.64,210.36,6
190,200.42,210.16,6
189,200.19,209.94,6
189,199.97,209.74,6
189,199.75,209.53,6
189,199.54,209.32,6
189,199.33,209.12,6
189,199.12,208.92,6
189,198.92,208.72,6
189,198.72,208.52,6
188,198.50,208.32,6
187,198.27,208.10,6
188,198.07,207.90,6
187,197.85,207.69,6
188,197.65,207.50,6
187,197.44,207.29,6
187,197.23,207.09,6
186,197.00,206.88,6
187,196.80,206.68,6
185,196.57,206.46,6
185,196.34,206.25,6
185,196.11,206.04,6
185,195.89,205.82,6
185,195.67,205.62,6
185,195.46,205.41,6
185,195.25,205.21,6
184,195.02,204.99,6
185,194.82,204.79,6
185,194.63,204.60,6
185,194.43,204.40,6
184,194.22,204.20,6
185,194.04,204.00,6
184,193.84,203.80,6
184,193.64,203.61,6
184,193.45,203.41,6
185,193.28,203.23,6
184,193.09,203.03,6
183,192.89,202.83,6
183,192.70,202.64,6
184,192.52,202.45,6
182,192.31,202.24,6
182,192.10,202.04,6
181,191.88,201.83,6
181,191.66,201.62,6
182,191.47,201.43,6
182,191.28,201.23,6
181,191.08,201.03,6
181,190.87,200.83,6
181,190.68,200.63,6
184,190.54,200.47,6
181,190.35,200.27,6
181,190.17,200.08,6
180,189.96,199.88,6
180,189.76,199.68,6
180,189.57,199.48,6
180,189.38,199.29,6
180,189.19,199.09,6
180,189.01,198.90,6
179,188.81,198.70,6
180,188.63,198.52,6
179,188.44,198.32,6
179,188.25,198.13,6
178,188.04,197.93,6
179,187.86,197.74,6
178,187.66,197.54,6
178,187.47,197.35,6
177,187.26,197.14,6
179,187.10,196.96,6
177,186.90,196.76,6
178,186.72,196.57,6
178,186.54,196.39,6
179,186.39,196.21,6
177,186.20,196.02,6
178,186.04,195.84,6
179,185.90,195.67,6
178,185.74,195.50,6
179,185.61,195.33,6
178,185.45,195.16,6
178,185.31,194.99,6
178,185.16,194.82,6
177,185.00,194.64,6
175,184.80,194.44,6
177,184.64,194.27,6
177,184.49,194.09,6
177,184.34,193.92,6
176,184.17,193.74,6
177,184.03,193.58,6
175,183.85,193.39,6
176,183.69,193.22,6
175,183.52,193.04,6
175,183.35,192.85,6
175,183.18,192.68,6
175,183.02,192.50,6
175,182.85,192.32,6
175,182.70,192.15,6
174,182.52,191.97,6
174,182.35,191.79,6
173,182.17,191.60,6
174,182.00,191.43,6
175,181.86,191.26,6
173,181.69,191.08,6
173,181.51,190.90,6
173,181.34,190.72,6
174,181.19,190.55,6
173,181.03,190.38,6
175,180.91,190.22,6
173,180.75,190.05,6
173,180.60,189.88,6
173,180.45,189.71,6
173,180.30,189.54,6
173,180.15,189.38,6
173,180.01,189.22,6
173,179.87,189.05,6
173,179.73,188.89,6
173,179.60,188.73,6
172,179.44,188.57,6
173,179.31,188.41,6
173,179.19,188.26,6
172,179.04,188.09,6
171,178.88,187.92,6
175,178.81,187.79,6
173,178.69,187.65,6
173,178.58,187.50,6
172,178.44,187.34,6
172,178.32,187.19,6
171,178.17,187.03,6
171,178.03,186.87,6
171,177.89,186.71,6
171,177.75,186.55,6
169,177.57,186.38,6
171,177.44,186.22,6
172,177.33,186.08,6
170,177.19,185.92,6
169,177.02,185.75,6
170,176.88,185.59,6
171,176.76,185.45,6
168,176.59,185.27,6
171,176.48,185.13,6
169,176.33,184.97,6
169,176.18,184.81,6
169,176.04,184.65,6
169,175.90,184.50,6
170,175.78,184.35,6
168,175.62,184.19,6
168,175.47,184.02,6
168,175.32,183.86,6
168,175.17,183.71,6
167,175.01,183.54,6
167,174.85,183.37,6
167,174.69,183.21,6
169,174.58,183.07,6
167,174.43,182.91,6
167,174.28,182.75,6
167,174.13,182.59,6
167,173.99,182.43,6
165,173.81,182.26,6
165,173.64,182.09,6
165,173.46,181.92,6
165,173.29,181.75,6
165,173.13,181.58,6
165,172.97,181.41,6
165,172.81,181.25,6
165,172.65,181.09,6
165,172.50,180.93,6
163,172.31,180.75,6
165,172.16,180.59,6
164,172.00,180.42,6
165,171.86,180.27,6
165,171.72,180.12,6
165,171.59,179.97,6
164,171.43,179.81,6
163,171.27,179.64,6
164,171.12,179.48,6
163,170.96,179.32,6
163,170.80,179.15,6
163,170.64,178.99,6
161,170.45,178.81,6
163,170.30,178.65,6
163,170.15,178.50,6
162,169.99,178.33,6
161,169.81,178.16,6
161,169.64,177.99,6
162,169.48,177.83,6
161,169.31,177.66,6
161,169.15,177.49,6
161,168.98,177.33,6
161,168.82,177.16,6
161,168.67,177.00,6
161,168.51,176.84,6
161,168.36,176.68,6
160,168.20,176.52,6
159,168.01,176.34,6
160,167.85,176.18,6
160,167.70,176.02,6
160,167.54,175.86,6
161,167.41,175.71,6
160,167.26,175.55,6
160,167.12,175.40,6
160,166.98,175.24,6
159,166.82,175.08,6
159,166.66,174.92,6
160,166.53,174.77,6
159,166.38,174.61,6
160,166.25,174.47,6
157,166.06,174.29,6
159,165.92,174.14,6
159,165.78,173.99,6
159,165.65,173.84,6
157,165.47,173.67,6
158,165.33,173.51,6
158,165.18,173.36,6
157,165.02,173.19,6
157,164.86,173.03,6
157,164.70,172.87,6
157,164.54,172.71,6
157,164.39,172.56,6
157,164.25,172.40,6
157,164.10,172.25,6
159,164.00,172.11,6
157,163.86,171.96,6
156,163.70,171.80,6
157,163.57,171.65,6
158,163.46,171.52,6
157,163.33,171.37,6
158,163.22,171.24,6
157,163.10,171.10,6
157,162.97,170.96,6
157,162.85,170.82,6
157,162.74,170.68,6
157,162.62,170.54,6
155,162.47,170.39,6
157,162.36,170.25,6
156,162.23,170.11,6
157,162.13,169.98,6
155,161.99,169.83,6
157,161.89,169.70,6
156,161.77,169.56,6
156,161.65,169.43,6
156,161.54,169.29,6
156,161.43,169.16,6
155,161.30,169.02,6
155,161.17,168.88,6
155,161.05,168.74,6
155,160.93,168.60,6
153,160.77,168.45,6
154,160.64,168.30,6
154,160.50,168.16,6
154,160.37,168.02,6
156,160.29,167.90,6
154,160.16,167.76,6
155,160.06,167.63,6
154,159.94,167.49,6
153,159.80,167.35,6
154,159.68,167.22,6
154,159.57,167.08,6
153,159.44,166.94,6
153,159.31,166.80,6
153,159.18,166.67,6
152,159.04,166.52,6
153,158.92,166.38,6
153,158.80,166.25,6
153,158.68,166.12,6
153,158.57,165.99,6
152,158.44,165.85,6
152,158.31,165.71,6
152,158.18,165.57,6
153,158.08,165.45,6
153,157.98,165.32,6
152,157.86,165.19,6
154,157.78,165.08,6
152,157.67,164.94,6
154,157.59,164.84,6
152,157.48,164.71,6
153,157.39,164.59,6
152,157.28,164.46,6
152,157.18,164.34,6
152,157.07,164.22,6
152,156.97,164.09,6
151,156.85,163.96,6
151,156.74,163.83,6
151,156.62,163.71,6
153,156.55,163.60,6
151,156.44,163.47,6
152,156.35,163.36,6
150,156.22,163.22,6
148,156.06,163.07,6
149,155.92,162.93,6
149,155.78,162.79,6
151,155.68,162.67,6
149,155.55,162.54,6
151,155.46,162.42,6
149,155.33,162.29,6
149,155.20,162.15,6
149,155.08,162.02,6
149,154.96,161.89,6
148,154.82,161.75,6
148,154.68,161.62,6
149,154.57,161.49,6
147,154.42,161.35,6
148,154.29,161.21,6
147,154.14,161.07,6
148,154.02,160.94,6
148,153.90,160.81,6
148,153.78,160.68,6
147,153.65,160.54,6
148,153.53,160.42,6
147,153.40,160.28,6
147,153.27,160.15,6
147,153.15,160.02,6
146,153.01,159.88,6
146,152.87,159.74,6
147,152.75,159.61,6
147,152.63,159.49,6
147,152.52,159.36,6
147,152.41,159.24,6
147,152.30,159.12,6
148,152.22,159.01,6
148,152.13,158.90,6
148,152.05,158.79,6
147,151.95,158.67,6
149,151.89,158.57,6
147,151.79,158.46,6
147,151.70,158.34,6
147,151.60,158.23,6
147,151.51,158.12,6
147,151.42,158.01,6
146,151.31,157.89,6
145,151.18,157.76,6
146,151.08,157.64,6
145,150.96,157.51,6
146,150.86,157.40,6
146,150.76,157.28,6
146,150.67,157.17,6
146,150.57,157.06,6
146,150.48,156.95,6
147,150.41,156.85,6
145,150.30,156.73,6
147,150.24,156.63,6
145,150.13,156.52,6
145,150.03,156.40,6
145,149.93,156.29,6
146,149.85,156.18,6
146,149.77,156.08,6
146,149.70,155.98,6
145,149.61,155.87,6
145,149.51,155.76,6
145,149.42,155.66,6
145,149.33,155.55,6
145,149.25,155.44,6
145,149.16,155.34,6
145,149.08,155.24,6
145,149.00,155.13,6
145,148.92,155.03,6
144,148.82,154.92,6
145,148.74,154.82,6
144,148.65,154.71,6
144,148.56,154.61,6
143,148.44,154.49,6
144,148.36,154.39,6
144,148.27,154.28,6
144,148.18,154.18,6
143,148.08,154.07,6
144,148.00,153.97,6
147,147.98,153.90,6
144,147.90,153.80,6
143,147.80,153.69,6
144,147.72,153.59,6
144,147.65,153.50,6
143,147.56,153.39,6
145,147.51,153.31,6
143,147.42,153.21,6
143,147.33,153.10,6
143,147.24,153.00,6
143,147.16,152.90,6
143,147.07,152.80,6
143,146.99,152.71,6
142,146.89,152.60,6
142,146.79,152.49,6
142,146.70,152.39,6
139,146.54,152.25,6
143,146.47,152.16,6
142,146.38,152.06,6
141,146.28,151.95,6
141,146.17,151.84,6
141,146.07,151.73,6
141,145.97,151.62,6
142,145.89,151.53,6
141,145.79,151.42,6
141,145.69,151.32,6
141,145.60,151.21,6
143,145.55,151.13,6
142,145.48,151.04,6
143,145.43,150.96,6
141,145.34,150.86,6
141,145.25,150.76,6
143,145.21,150.69,6
143,145.16,150.61,6
143,145.12,150.53,6
143,145.08,150.46,6
142,145.02,150.37,6
142,144.95,150.29,6
141,144.88,150.20,6
142,144.82,150.11,6
143,144.78,150.04,6
141,144.71,149.95,6
141,144.63,149.86,6
142,144.58,149.78,6
141,144.51,149.70,6
141,144.44,149.61,6
141,144.37,149.52,6
141,144.30,149.44,6
142,144.26,149.36,6
143,144.23,149.30,6
142,144.19,149.23,6
142,144.14,149.15,6
142,144.10,149.08,6
143,144.08,149.02,6
142,144.04,148.95,6
145,144.05,148.91,6
143,144.03,148.85,6
142,143.99,148.78,6
141,143.93,148.71,6
143,143.91,148.65,6
143,143.90,148.59,6
144,143.90,148.55,6
142,143.86,148.48,6
143,143.84,148.43,6
143,143.83,148.37,6
143,143.81,148.32,6
143,143.79,148.27,6
143,143.78,148.21,6
143,143.76,148.16,6
143,143.75,148.11,6
143,143.73,148.06,6
139,143.64,147.97,6
143,143.62,147.92,6
143,143.61,147.87,6
143,143.60,147.82,6
143,143.59,147.77,6
143,143.58,147.72,6
143,143.56,147.68,6
142,143.53,147.62,6
144,143.54,147.58,6
144,143.55,147.55,6
145,143.58,147.52,6
144,143.59,147.49,6
144,143.60,147.45,6
145,143.63,147.43,6
144,143.63,147.39,6
144,143.64,147.36,6
145,143.67,147.34,6
145,143.69,147.31,6
145,143.72,147.29,6
145,143.75,147.27,6
145,143.77,147.24,6
145,143.80,147.22,6
147,143.86,147.22,6
146,143.90,147.21,6
147,143.96,147.21,6
145,143.99,147.18,6
147,144.05,147.18,6
147,144.10,147.18,6
146,144.14,147.17,6
146,144.18,147.16,6
145,144.20,147.13,6
145,144.21,147.11,6
145,144.23,147.09,6
147,144.28,147.09,6
145,144.30,147.07,6
145,144.31,147.05,6
146,144.35,147.04,6
146,144.38,147.03,6
146,144.41,147.02,6
148,144.48,147.03,6
145,144.49,147.01,6
147,144.54,147.01,6
146,144.57,147.00,6
146,144.60,146.99,6
147,144.65,146.99,6
145,144.66,146.97,6
146,144.68,146.96,6
146,144.71,146.95,6
145,144.71,146.93,6
145,144.72,146.91,6
145,144.73,146.89,6
146,144.75,146.88,6
146,144.78,146.87,6
147,144.82,146.87,6
147,144.86,146.88,6
145,144.87,146.86,6
145,144.87,146.84,6
145,144.87,146.82,6
144,144.86,146.79,6
145,144.86,146.77,6
145,144.86,146.76,6
145,144.86,146.74,6
145,144.87,146.72,6
145,144.87,146.70,6
145,144.87,146.69,6
145,144.87,146.67,6
145,144.88,146.65,6
146,144.90,146.65,6
146,144.92,146.64,6
145,144.92,146.62,6
145,144.92,146.61,6
148,144.99,146.62,6
145,144.99,146.61,6
147,145.03,146.61,6
145,145.03,146.59,6
145,145.03,146.58,6
147,145.06,146.58,6
146,145.08,146.58,6
148,145.14,146.59,6
146,145.16,146.58,6
147,145.20,146.59,6
146,145.21,146.58,6
147,145.25,146.59,6
146,145.26,146.58,6
146,145.28,146.57,6
146,145.29,146.57,6
147,145.33,146.57,6
146,145.34,146.57,6
147,145.37,146.57,6
145,145.37,146.56,6
145,145.36,146.54,6
145,145.35,146.53,6
147,145.38,146.53,6
147,145.42,146.53,6
148,145.47,146.55,6
147,145.50,146.55,6
147,145.53,146.56,6
148,145.58,146.57,6
147,145.61,146.58,6
147,145.63,146.58,6
147,145.66,146.59,6
148,145.71,146.60,6
147,145.73,146.60,6
148,145.78,146.62,6
147,145.80,146.62,6
148,145.85,146.64,6
148,145.89,146.65,6
148,145.93,146.66,6
148,145.97,146.68,6
149,146.04,146.70,6
148,146.07,146.71,6
147,146.09,146.71,6
148,146.13,146.73,6
149,146.19,146.75,6
149,146.24,146.77,6
149,146.30,146.80,6
148,146.33,146.81,6
149,146.39,146.83,6
149,146.44,146.85,6
149,146.49,146.87,6
151,146.58,146.91,6
149,146.63,146.93,6
149,146.68,146.96,6
149,146.72,146.98,6
150,146.79,147.01,6
151,146.87,147.05,6
151,146.96,147.09,6
149,147.00,147.10,7
149,147.04,147.12,7
151,147.12,147.16,8
150,147.17,147.19,8
151,147.25,147.23,9
150,147.30,147.26,9
153,147.42,147.31,10
149,147.45,147.33,10
150,147.50,147.36,10
151,147.57,147.39,10
150,147.62,147.42,10
150,147.67,147.45,10
151,147.73,147.48,10
151,147.80,147.52,10
151,147.86,147.55,10
151,147.93,147.59,10
151,147.99,147.62,10
150,148.03,147.64,10
150,148.07,147.67,10
151,148.13,147.70,10
151,148.18,147.73,10
151,148.24,147.77,10
151,148.30,147.80,10
151,148.35,147.83,10
151,148.40,147.86,10
151,148.45,147.89,10
151,148.51,147.92,10
151,148.56,147.96,10
150,148.58,147.98,10
150,148.61,148.00,10
149,148.62,148.01,10
150,148.65,148.03,10
150,148.67,148.05,10
150,148.70,148.07,10
150,148.73,148.08,10
150,148.75,148.10,10
149,148.76,148.11,10
149,148.76,148.12,10
149,148.77,148.13,10
150,148.79,148.15,10
151,148.84,148.18,10
151,148.88,148.21,10
150,148.90,148.22,10
152,148.96,148.26,10
152,149.02,148.30,10
152,149.08,148.34,10
152,149.14,148.37,10
153,149.22,148.42,10
153,149.29,148.46,10
153,149.37,148.51,10
152,149.42,148.55,10
153,149.49,148.59,10
153,149.56,148.63,10
153,149.63,148.68,10
153,149.70,148.72,10
154,149.79,148.77,10
154,149.87,148.83,10
154,149.95,148.88,10
155,150.05,148.94,10
156,150.17,149.01,10
156,150.29,149.08,10
156,150.40,149.15,10
157,150.53,149.23,10
158,150.68,149.31,10
157,150.81,149.39,10
158,150.95,149.48,10
159,151.12,149.57,10
159,151.27,149.67,10
158,151.41,149.75,10
158,151.54,149.83,10
158,151.67,149.91,10
158,151.80,150.00,10
158,151.92,150.08,10
160,152.08,150.17,10
159,152.22,150.26,10
161,152.39,150.37,10
159,152.53,150.46,10
161,152.70,150.56,10
159,152.82,150.65,10
160,152.97,150.74,10
159,153.09,150.82,10
161,153.25,150.92,10
161,153.40,151.03,10
163,153.59,151.14,10
162,153.76,151.25,10
162,153.93,151.36,10
162,154.09,151.47,10
164,154.28,151.59,10
164,154.48,151.72,10
163,154.65,151.83,10
163,154.82,151.94,10
165,155.02,152.07,10
166,155.24,152.21,10
165,155.44,152.34,10
166,155.65,152.48,10
167,155.87,152.62,10
167,156.10,152.76,10
167,156.31,152.91,10
167,156.53,153.05,10
169,156.78,153.21,10
170,157.04,153.38,10
169,157.28,153.53,10
168,157.50,153.68,10
170,157.75,153.84,10
170,157.99,154.00,10
170,158.23,154.16,10
170,158.47,154.32,10
170,158.70,154.48,10
171,158.94,154.64,10
169,159.14,154.79,10
169,159.34,154.93,10
168,159.51,155.06,10
170,159.72,155.21,10
169,159.91,155.35,10
169,160.09,155.48,10
170,160.29,155.63,10
170,160.48,155.77,10
170,160.67,155.91,10
171,160.88,156.06,10
171,161.08,156.21,10
171,161.28,156.36,10
173,161.52,156.53,10
173,161.75,156.69,10
174,161.99,156.87,10
174,162.23,157.04,10
175,162.49,157.22,10
176,162.76,157.40,10
174,162.98,157.57,10
176,163.24,157.75,10
178,163.54,157.96,10
179,163.85,158.17,10
180,164.17,158.39,10
180,164.49,158.60,10
183,164.86,158.85,10
187,165.30,159.13,10
187,165.73,159.41,10
187,166.16,159.68,10
187,166.58,159.96,10
187,166.98,160.23,10
189,167.42,160.51,10
190,167.88,160.81,10
192,168.36,161.12,10
194,168.87,161.45,10
190,169.29,161.73,10
192,169.75,162.04,10
192,170.19,162.34,10
193,170.65,162.64,10
193,171.10,162.95,10
193,171.53,163.25,10
198,172.06,163.60,10
199,172.60,163.95,10
195,173.05,164.26,10
199,173.57,164.61,10
200,174.10,164.96,10
199,174.60,165.30,10
198,175.06,165.63,10
200,175.56,165.97,10
203,176.11,166.34,10
205,176.69,166.73,10
202,177.20,167.08,10
202,177.69,167.43,10
203,178.20,167.79,10
204,178.71,168.15,10
205,179.24,168.52,10
206,179.77,168.89,10
205,180.28,169.25,10
208,180.83,169.64,10
206,181.34,170.00,10
208,181.87,170.38,10
208,182.39,170.76,10
208,182.90,171.13,10
207,183.39,171.49,10
209,183.90,171.87,10
210,184.42,172.25,10
211,184.95,172.64,10
209,185.43,173.00,10
210,185.92,173.37,10
210,186.41,173.74,10
213,186.94,174.13,10
215,187.50,174.54,10
214,188.03,174.93,10
216,188.59,175.34,10
216,189.14,175.75,10
215,189.65,176.14,10
215,190.16,176.53,10
216,190.68,176.92,10
216,191.18,177.32,10
214,191.64,177.68,10
215,192.11,178.06,10
217,192.61,178.44,10
219,193.13,178.85,10
216,193.59,179.22,10
218,194.08,179.61,10
218,194.56,179.99,10
217,195.01,180.36,10
218,195.47,180.74,10
219,195.94,181.12,10
219,196.40,181.50,10
220,196.87,181.89,10
219,197.31,182.26,10
219,197.75,182.62,10
220,198.19,183.00,10
220,198.63,183.37,10
221,199.08,183.74,10
224,199.57,184.15,10
224,200.06,184.55,10
223,200.52,184.93,10
224,200.99,185.32,10
227,201.51,185.74,10
230,202.08,186.18,10
231,202.66,186.63,10
231,203.23,187.07,10
230,203.76,187.50,10
231,204.31,187.94,10
234,204.90,188.40,10
235,205.50,188.86,10
237,206.13,189.34,10
238,206.77,189.83,10
238,207.39,190.31,10
239,208.03,190.80,10
242,208.71,191.31,10
241,209.35,191.81,10
243,210.02,192.32,10
243,210.68,192.83,10
243,211.33,193.33,10
245,212.00,193.85,10
244,212.64,194.35,10
250,213.39,194.90,10
248,214.08,195.43,10
248,214.76,195.96,10
248,215.43,196.48,10
249,216.10,197.01,10
251,216.80,197.55,10
252,217.50,198.09,10
251,218.17,198.62,10
252,218.85,199.15,10
253,219.53,199.69,10
254,220.22,200.24,10
253,220.87,200.76,10
255,221.56,201.31,10
257,222.27,201.86,10
258,222.98,202.42,10
258,223.68,202.98,10
262,224.45,203.57,10
265,225.26,204.18,10
266,226.07,204.80,10
265,226.85,205.40,10
266,227.63,206.01,10
267,228.42,206.62,10
266,229.17,207.21,10
267,229.93,207.81,10
267,230.67,208.40,10
267,231.40,208.99,10
266,232.09,209.56,10
267,232.79,210.13,10
268,233.49,210.71,10
269,234.20,211.30,10
269,234.90,211.87,10
272,235.64,212.47,10
274,236.41,213.09,10
273,237.14,213.69,10
273,237.86,214.28,10
273,238.56,214.87,10
272,239.23,215.44,10
271,239.86,216.00,10
273,240.53,216.57,10
273,241.18,217.13,10
273,241.81,217.69,10
274,242.46,218.25,10
272,243.05,218.79,10
272,243.63,219.32,10
271,244.17,219.84,10
272,244.73,220.36,10
274,245.32,220.90,10
274,245.89,221.43,10
273,246.43,221.94,10
274,246.98,222.46,10
278,247.60,223.02,10
277,248.19,223.56,10
278,248.79,224.10,10
276,249.33,224.62,10
277,249.89,225.15,10
276,250.41,225.65,10
277,250.94,226.17,10
279,251.50,226.70,10
278,252.03,227.21,10
277,252.53,227.71,10
278,253.04,228.21,10
277,253.52,228.70,10
277,253.99,229.18,10
277,254.45,229.66,10
279,254.94,230.15,10
280,255.44,230.65,10
279,255.91,231.13,10
280,256.39,231.62,10
279,256.85,232.10,10
281,257.33,232.59,10
279,257.76,233.05,10
280,258.21,233.52,10
280,258.64,233.98,10
281,259.09,234.45,10
282,259.55,234.93,10
281,259.98,235.39,10
281,260.40,235.85,10
279,260.77,236.28,10
281,261.17,236.73,10
281,261.57,237.17,10
282,261.98,237.62,10
282,262.38,238.06,10
283,262.79,238.51,10
282,263.18,238.94,10
281,263.53,239.37,10
281,263.88,239.78,10
281,264.22,240.19,10
281,264.56,240.60,10
280,264.87,241.00,10
280,265.17,241.39,10
280,265.47,241.77,10
279,265.74,242.14,10
278,265.98,242.50,10
278,266.22,242.86,10
278,266.46,243.21,10
277,266.67,243.55,10
277,266.88,243.88,10
278,267.10,244.22,10
277,267.30,244.55,10
277,267.49,244.88,10
277,267.68,245.20,10
277,267.87,245.51,10
277,268.05,245.83,10
277,268.23,246.14,10
276,268.39,246.44,10
275,268.52,246.73,10
276,268.67,247.02,10
276,268.81,247.31,10
276,268.96,247.59,10
276,269.10,247.88,10
275,269.22,248.15,10
274,269.31,248.41,10
274,269.41,248.66,10
274,269.50,248.92,10
273,269.57,249.16,10
272,269.62,249.39,10
272,269.66,249.61,10
273,269.73,249.85,10
272,269.78,250.07,10
271,269.80,250.28,10
271,269.82,250.49,10
270,269.83,250.68,10
270,269.83,250.87,10
269,269.82,251.05,10
270,269.82,251.24,10
269,269.80,251.42,10
268,269.77,251.59,10
268,269.73,251.75,10
267,269.68,251.90,10
266,269.60,252.05,10
266,269.53,252.18,10
266,269.46,252.32,10
265,269.37,252.45,10
265,269.28,252.58,10
265,269.20,252.70,10
264,269.09,252.81,10
265,269.01,252.93,10
264,268.91,253.04,10
264,268.81,253.15,10
264,268.72,253.26,10
264,268.62,253.37,10
263,268.51,253.47,10
263,268.40,253.56,10
262,268.27,253.65,10
262,268.15,253.73,10
261,268.00,253.80,10
261,267.86,253.87,10
260,267.71,253.94,10
260,267.55,254.00,10
259,267.38,254.05,10
260,267.23,254.11,10
260,267.09,254.16,10
259,266.93,254.21,10
258,266.75,254.25,10
258,266.57,254.29,10
258,266.40,254.33,10
258,266.23,254.36,10
257,266.05,254.39,10
257,265.87,254.41,10
257,265.69,254.44,10
257,265.52,254.47,10
256,265.33,254.48,10
255,265.12,254.49,10
254,264.90,254.48,10
253,264.66,254.47,10
254,264.45,254.46,10
253,264.22,254.45,10
253,263.99,254.43,10
252,263.75,254.41,10
253,263.54,254.40,10
252,263.31,254.37,10
252,263.08,254.35,10
252,262.86,254.32,10
251,262.62,254.29,10
251,262.39,254.26,10
248,262.10,254.20,10
250,261.86,254.15,10
250,261.62,254.11,10
249,261.37,254.06,10
249,261.12,254.01,10
249,260.88,253.96,10
248,260.62,253.90,10
248,260.37,253.84,10
248,260.12,253.78,10
248,259.88,253.73,10
247,259.62,253.66,10
247,259.37,253.59,10
246,259.10,253.52,10
247,258.86,253.45,10
246,258.60,253.38,10
246,258.35,253.30,10
245,258.09,253.22,10
245,257.82,253.14,10
245,257.57,253.06,10
243,257.28,252.95,10
243,256.99,252.86,10
243,256.71,252.76,10
243,256.44,252.66,10
242,256.15,252.55,10
242,255.86,252.45,10
241,255.57,252.33,10
241,255.28,252.22,10
240,254.97,252.10,10
239,254.65,251.97,10
239,254.34,251.84,10
239,254.03,251.71,10
239,253.73,251.58,10
240,253.46,251.47,10
238,253.15,251.33,10
237,252.82,251.19,10
237,252.51,251.05,10
236,252.18,250.89,10
236,251.85,250.75,10
236,251.54,250.60,10
236,251.23,250.45,10
235,250.90,250.30,10
235,250.58,250.15,10
235,250.27,249.99,10
234,249.95,249.83,11
234,249.63,249.68,11
233,249.29,249.51,11
239,249.09,249.40,11
233,248.77,249.24,11
234,248.47,249.09,11
232,248.14,248.92,11
232,247.82,248.75,11
232,247.50,248.58,11
231,247.17,248.40,11
231,246.85,248.23,11
231,246.53,248.06,11
231,246.22,247.89,11
232,245.94,247.73,11
229,245.60,247.54,11
229,245.27,247.36,11
229,244.94,247.17,11
229,244.62,246.99,11
228,244.29,246.80,11
229,243.98,246.62,11
228,243.66,246.44,11
228,243.35,246.25,11
227,243.02,246.06,11
226,242.68,245.86,11
226,242.35,245.66,11
227,242.04,245.47,11
225,241.70,245.27,11
225,241.37,245.07,11
225,241.04,244.87,11
224,240.70,244.66,11
224,240.37,244.45,11
223,240.02,244.24,11
223,239.68,244.02,11
223,239.34,243.81,11
222,239.00,243.59,11
222,238.66,243.38,11
222,238.32,243.17,11
221,237.98,242.94,11
221,237.64,242.72,11
221,237.31,242.51,11
219,236.94,242.27,11
221,236.62,242.06,11
220,236.29,241.84,11
220,235.96,241.62,11
219,235.62,241.39,11
220,235.31,241.18,11
219,234.99,240.96,11
219,234.67,240.74,11
219,234.35,240.52,11
219,234.05,240.31,11
219,233.74,240.09,11
219,233.45,239.88,11
220,233.18,239.68,11
220,232.92,239.49,11
218,232.62,239.27,11
218,232.33,239.06,11
218,232.04,238.85,11
218,231.76,238.64,11
219,231.50,238.44,11
217,231.21,238.23,11
217,230.93,238.02,11
219,230.69,237.83,11
217,230.42,237.62,11
216,230.13,237.40,11
215,229.83,237.18,11
215,229.53,236.96,11
215,229.24,236.74,11
214,228.93,236.51,11
216,228.68,236.30,11
216,228.42,236.10,11
214,228.13,235.88,11
213,227.83,235.65,11
213,227.53,235.42,11
211,227.20,235.18,11
213,226.92,234.96,11
213,226.64,234.74,11
214,226.39,234.53,11
212,226.10,234.31,11
211,225.80,234.07,11
211,225.50,233.84,11
211,225.21,233.61,11
211,224.93,233.39,11
211,224.65,233.16,11
211,224.38,232.94,11
210,224.09,232.71,11
212,223.85,232.51,11
210,223.57,232.28,11
209,223.28,232.05,11
209,222.99,231.82,11
209,222.71,231.59,11
210,222.46,231.37,11
208,222.17,231.14,11
210,221.93,230.93,11
208,221.65,230.70,11
207,221.36,230.46,11
207,221.07,230.23,11
207,220.79,230.00,11
207,220.51,229.77,11
207,220.24,229.54,11
207,219.98,229.31,11
208,219.74,229.10,11
207,219.48,228.88,11
206,219.21,228.65,11
206,218.95,228.42,11
206,218.69,228.20,11
205,218.42,227.97,11
206,218.17,227.75,11
207,217.94,227.54,11
205,217.68,227.31,11
206,217.45,227.10,11
205,217.20,226.88,11
204,216.94,226.65,11
204,216.68,226.42,11
203,216.41,226.19,11
204,216.16,225.97,11
202,215.87,225.73,11
205,215.66,225.52,11
202,215.38,225.29,11
202,215.12,225.05,11
202,214.85,224.82,11
201,214.58,224.58,11
201,214.31,224.35,11
203,214.08,224.14,11
202,213.84,223.91,11
202,213.60,223.69,11
201,213.35,223.47,11
200,213.08,223.23,11
200,212.82,223.00,11
201,212.58,222.78,11
199,212.31,222.54,11
199,212.05,222.31,11
200,211.80,222.08,11
202,211.61,221.88,11
199,211.36,221.66,11
198,211.09,221.42,11
197,210.81,221.17,11
199,210.57,220.95,11
200,210.36,220.74,11
197,210.09,220.51,11
197,209.83,220.27,11
197,209.57,220.04,11
198,209.34,219.82,11
195,209.06,219.57,11
194,208.75,219.31,11
196,208.50,219.08,11
197,208.27,218.86,11
195,208.00,218.62,11
196,207.76,218.39,11
198,207.57,218.19,11
196,207.34,217.97,11
195,207.09,217.74,11
195,206.85,217.51,11
197,206.65,217.31,11
195,206.42,217.08,11
194,206.17,216.85,11
194,205.93,216.62,11
195,205.71,216.41,11
194,205.47,216.18,11
193,205.23,215.95,11
192,204.96,215.71,11
193,204.72,215.49,11
191,204.45,215.24,11
191,204.18,215.00,11
191,203.91,214.76,11
194,203.72,214.55,11
192,203.48,214.33,11
191,203.23,214.09,11
190,202.97,213.85,11
193,202.77,213.64,11
192,202.55,213.43,11
190,202.30,213.19,11
190,202.06,212.96,11
191,201.83,212.74,11
190,201.60,212.51,11
190,201.37,212.29,11
189,201.12,212.05,11
192,200.94,211.85,11
191,200.74,211.65,11
190,200.52,211.43,11
189,200.29,211.21,11
191,200.11,211.00,11
190,199.90,210.79,11
189,199.69,210.58,11
190,199.49,210.37,11
192,199.34,210.19,11
191,199.18,209.99,11
190,198.99,209.79,11
189,198.79,209.59,11
191,198.64,209.40,11
190,198.46,209.21,11
190,198.29,209.01,11
190,198.13,208.82,11
191,197.99,208.65,11
191,197.85,208.47,11
189,197.67,208.27,11
189,197.50,208.08,11
191,197.37,207.91,11
189,197.20,207.72,11
189,197.04,207.53,11
189,196.87,207.35,11
190,196.74,207.18,11
188,196.56,206.98,11
188,196.39,206.79,11
187,196.20,206.60,11
188,196.04,206.41,11
188,195.88,206.23,11
186,195.68,206.02,11
188,195.53,205.84,11
187,195.36,205.66,11
187,195.19,205.47,11
186,195.01,205.27,11
186,194.83,205.08,11
187,194.67,204.90,11
186,194.50,204.71,11
185,194.31,204.51,11
185,194.12,204.32,11
185,193.94,204.13,11
185,193.76,203.93,11
184,193.56,203.74,11
184,193.37,203.54,11
185,193.20,203.35,11
185,193.04,203.17,11
184,192.86,202.98,11
183,192.66,202.78,11
188,192.57,202.63,11
184,192.40,202.44,11
184,192.23,202.26,11
183,192.05,202.07,11
184,191.88,201.89,11
184,191.73,201.71,11
182,191.53,201.51,11
182,191.34,201.31,11
182,191.15,201.12,11
183,190.99,200.94,11
182,190.81,200.75,11
183,190.66,200.57,11
183,190.50,200.40,11
183,190.35,200.22,11
182,190.19,200.04,11
182,190.02,199.86,11
182,189.86,199.68,11
183,189.72,199.52,11
181,189.55,199.33,11
181,189.38,199.15,11
183,189.25,198.99,11
182,189.11,198.82,11
181,188.94,198.64,11
181,188.79,198.46,11
184,188.69,198.32,11
181,188.54,198.14,11
181,188.38,197.97,11
180,188.22,197.79,11
181,188.07,197.62,11
181,187.93,197.46,11
180,187.77,197.28,11
180,187.62,197.11,11
180,187.46,196.94,11
180,187.32,196.77,11
178,187.13,196.58,11
178,186.95,196.40,11
180,186.81,196.23,11
178,186.63,196.05,11
179,186.48,195.88,11
179,186.33,195.71,11
179,186.18,195.54,11
178,186.02,195.37,11
178,185.86,195.20,11
179,185.72,195.03,11
178,185.57,194.86,11
178,185.42,194.69,11
178,185.27,194.53,11
179,185.14,194.37,11
178,185.00,194.21,11
177,184.84,194.04,11
177,184.68,193.87,11
176,184.51,193.69,11
177,184.36,193.52,11
177,184.21,193.36,11
177,184.07,193.19,11
177,183.93,193.03,11
177,183.79,192.87,11
177,183.65,192.71,11
177,183.52,192.55,11
177,183.39,192.40,11
177,183.26,192.24,11
176,183.12,192.08,11
177,182.99,191.93,11
177,182.87,191.78,11
176,182.74,191.62,11
175,182.58,191.46,11
175,182.43,191.29,11
175,182.28,191.13,11
175,182.14,190.97,11
174,181.97,190.80,11
171,181.75,190.60,11
174,181.60,190.44,11
173,181.43,190.26,11
174,181.28,190.10,11
174,181.13,189.94,11
174,180.99,189.78,11
173,180.83,189.61,11
173,180.67,189.44,11
173,180.52,189.28,11
173,180.37,189.12,11
173,180.22,188.96,11
173,180.08,188.80,11
171,179.90,188.62,11
171,179.72,188.44,11
171,179.54,188.27,11
171,179.37,188.09,11
172,179.23,187.93,11
172,179.08,187.77,11
172,178.94,187.62,11
172,178.80,187.46,11
171,178.64,187.30,11
171,178.49,187.13,11
171,178.34,186.97,11
171,178.19,186.81,11
171,178.05,186.65,11
171,177.91,186.50,11
169,177.73,186.32,11
170,177.58,186.16,11
169,177.41,185.99,11
168,177.22,185.81,11
172,177.11,185.67,11
169,176.95,185.50,11
169,176.79,185.34,11
169,176.64,185.17,11
169,176.48,185.01,11
165,176.25,184.81,11
167,176.07,184.63,11
167,175.89,184.46,11
167,175.71,184.28,11
167,175.54,184.11,11
167,175.36,183.94,11
167,175.20,183.77,11
166,175.01,183.59,11
166,174.83,183.42,11
166,174.66,183.24,11
165,174.46,183.06,11
165,174.27,182.88,11
165,174.09,182.70,11
166,173.93,182.53,11
166,173.77,182.37,11
165,173.59,182.19,11
165,173.42,182.02,11
164,173.23,181.84,11
164,173.05,181.66,11
163,172.85,181.48,11
163,172.65,181.29,11
165,172.50,181.13,11
163,172.31,180.95,11
165,172.16,180.79,11
163,171.98,180.61,11
163,171.80,180.43,11
163,171.62,180.26,11
165,171.49,180.11,11
165,171.36,179.96,11
165,171.23,179.81,11
166,171.13,179.67,11
164,170.99,179.51,11
164,170.85,179.36,11
164,170.71,179.20,11
163,170.55,179.04,11
161,170.36,178.86,11
163,170.22,178.70,11
164,170.09,178.56,11
164,169.97,178.41,11
163,169.83,178.26,11
162,169.67,178.09,11
162,169.52,177.93,11
162,169.37,177.77,11
162,169.22,177.62,11
161,169.06,177.45,11
162,168.92,177.29,11
165,168.84,177.17,11
161,168.68,177.01,11
161,168.53,176.85,11
161,168.38,176.69,11
160,168.21,176.52,11
161,168.07,176.37,11
160,167.90,176.21,11
161,167.77,176.05,11
160,167.61,175.89,11
159,167.44,175.72,11
159,167.27,175.56,11
160,167.13,175.40,11
159,166.96,175.24,11
159,166.80,175.08,11
159,166.65,174.91,11
160,166.51,174.77,11
159,166.36,174.61,11
158,166.20,174.44,11
158,166.03,174.28,11
159,165.89,174.12,11
158,165.73,173.96,11
158,165.58,173.80,11
158,165.43,173.65,11
158,165.28,173.49,11
158,165.13,173.33,11
157,164.97,173.17,11
156,164.79,173.00,11
156,164.62,172.83,11
155,164.42,172.65,11
155,164.24,172.47,11
155,164.05,172.30,11
156,163.89,172.14,11
156,163.73,171.98,11
154,163.54,171.80,11
155,163.37,171.63,11
157,163.24,171.48,11
154,163.05,171.31,11
154,162.87,171.13,11
153,162.68,170.95,11
154,162.50,170.78,11
154,162.33,170.61,11
154,162.17,170.45,11
153,161.98,170.27,11
153,161.80,170.10,11
152,161.61,169.92,11
153,161.43,169.75,11
153,161.27,169.58,11
153,161.10,169.42,11
153,160.94,169.25,11
152,160.76,169.08,11
151,160.56,168.90,11
152,160.39,168.73,11
151,160.21,168.55,11
151,160.02,168.38,11
151,159.84,168.20,11
152,159.68,168.04,11
152,159.53,167.88,11
150,159.34,167.70,11
151,159.17,167.54,11
151,159.01,167.37,11
151,158.85,167.21,11
150,158.67,167.04,11
150,158.50,166.86,11
150,158.33,166.70,11
151,158.18,166.54,11
150,158.02,166.37,11
150,157.86,166.21,11
150,157.70,166.05,11
150,157.55,165.89,11
149,157.38,165.72,11
152,157.27,165.58,11
149,157.10,165.42,11
148,156.92,165.24,11
148,156.74,165.07,11
148,156.57,164.90,11
147,156.38,164.72,11
147,156.19,164.54,11
147,156.01,164.37,11
147,155.83,164.19,11
147,155.65,164.02,11
147,155.48,163.85,11
146,155.29,163.67,11
146,155.10,163.50,11
146,154.92,163.32,11
145,154.72,163.14,11
145,154.53,162.96,11
145,154.34,162.78,11
146,154.17,162.61,11
146,154.01,162.44,11
144,153.80,162.26,11
145,153.63,162.09,11
145,153.46,161.91,11
146,153.31,161.76,11
145,153.14,161.59,11
144,152.96,161.41,11
145,152.80,161.25,11
144,152.62,161.08,11
144,152.45,160.90,11
144,152.28,160.74,11
145,152.14,160.58,11
144,151.97,160.41,11
144,151.81,160.25,11
144,151.66,160.09,11
144,151.50,159.93,11
145,151.37,159.78,11
145,151.25,159.63,11
144,151.10,159.47,11
145,150.98,159.33,11
144,150.84,159.17,11
144,150.70,159.02,11
144,150.57,158.87,11
143,150.42,158.71,11
143,150.27,158.56,11
144,150.14,158.41,11
143,150.00,158.26,11
143,149.86,158.10,11
143,149.72,157.95,11
143,149.59,157.80,11
143,149.46,157.66,11
143,149.33,157.51,11
143,149.20,157.36,11
143,149.08,157.22,11
143,148.96,157.08,11
143,148.84,156.94,11
142,148.70,156.79,11
142,148.57,156.64,11
141,148.42,156.48,11
142,148.29,156.34,11
141,148.14,156.19,11
142,148.02,156.04,11
141,147.88,155.89,11
139,147.70,155.72,11
141,147.57,155.58,11
141,147.44,155.43,11
141,147.31,155.29,11
140,147.16,155.13,11
139,147.00,154.97,11
140,146.86,154.82,11
140,146.72,154.67,11
140,146.59,154.53,11
139,146.43,154.37,11
140,146.31,154.23,11
139,146.16,154.08,11
138,146.00,153.92,11
139,145.86,153.77,11
139,145.72,153.62,11
138,145.56,153.46,11
139,145.43,153.32,11
139,145.30,153.17,11
140,145.20,153.04,11
139,145.07,152.90,11
139,144.95,152.76,11
138,144.81,152.62,11
139,144.70,152.48,11
138,144.56,152.34,11
138,144.43,152.19,11
138,144.30,152.05,11
139,144.20,151.92,11
137,144.05,151.77,11
138,143.93,151.63,11
137,143.79,151.49,11
137,143.66,151.34,11
138,143.55,151.21,11
137,143.41,151.07,11
137,143.29,150.93,11
138,143.18,150.80,11
137,143.06,150.66,11
137,142.94,150.52,11
136,142.80,150.38,11
137,142.68,150.24,11
137,142.57,150.11,11
137,142.46,149.98,11
137,142.35,149.85,11
135,142.20,149.70,11
136,142.08,149.56,11
134,141.91,149.41,11
136,141.80,149.27,11
136,141.68,149.14,11
136,141.57,149.01,11
136,141.46,148.88,11
137,141.37,148.76,11
137,141.28,148.64,11
136,141.17,148.52,11
136,141.07,148.39,11
136,140.97,148.27,11
136,140.87,148.14,11
136,140.77,148.02,11
135,140.66,147.89,11
136,140.56,147.77,11
136,140.47,147.66,11
137,140.40,147.55,11
136,140.31,147.43,11
136,140.23,147.32,11
136,140.14,147.21,11
136,140.06,147.09,11
135,139.96,146.97,11
136,139.88,146.86,11
135,139.78,146.75,11
137,139.73,146.65,11
135,139.63,146.53,11
134,139.52,146.41,11
134,139.41,146.28,11
134,139.30,146.16,11
134,139.20,146.04,11
136,139.13,145.94,11
134,139.03,145.82,11
135,138.95,145.71,11
134,138.85,145.59,11
133,138.73,145.47,11
134,138.64,145.35,11
133,138.52,145.23,11
134,138.43,145.12,11
134,138.35,145.01,11
133,138.24,144.89,11
134,138.15,144.78,11
133,138.05,144.66,11
133,137.95,144.54,11
132,137.83,144.42,11
133,137.73,144.30,11
132,137.62,144.18,11
133,137.53,144.07,11
136,137.50,143.99,11
133,137.41,143.88,11
131,137.28,143.75,11
132,137.17,143.63,11
133,137.09,143.52,11
132,136.99,143.41,11
132,136.89,143.30,11
133,136.81,143.19,11
133,136.73,143.09,11
133,136.66,142.99,11
131,136.55,142.87,11
132,136.46,142.76,11
131,136.35,142.64,11
132,136.26,142.54,11
132,136.17,142.43,11
131,136.07,142.32,11
132,135.99,142.21,11
133,135.93,142.12,11
131,135.83,142.01,11
131,135.73,141.90,11
131,135.64,141.79,11
131,135.55,141.68,11
132,135.48,141.59,11
132,135.41,141.49,11
132,135.34,141.40,11
133,135.29,141.31,11
132,135.23,141.22,11
131,135.14,141.12,11
131,135.06,141.02,11
131,134.98,140.92,11
131,134.90,140.82,11
131,134.82,140.72,11
132,134.76,140.63,11
132,134.71,140.54,11
131,134.63,140.45,11
136,134.66,140.40,11
131,134.59,140.31,11
133,134.56,140.24,11
133,134.52,140.17,11
133,134.49,140.09,11
133,134.46,140.02,11
133,134.44,139.95,11
133,134.41,139.88,11
133,134.38,139.81,11
133,134.35,139.75,11
133,134.32,139.68,11
133,134.30,139.61,11
134,134.29,139.56,11
135,134.31,139.51,11
136,134.34,139.47,11
134,134.33,139.42,11
134,134.33,139.37,11
135,134.34,139.32,11
134,134.33,139.27,11
133,134.31,139.21,11
134,134.30,139.15,11
135,134.31,139.11,11
134,134.31,139.06,11
134,134.30,139.01,11
134,134.30,138.96,11
135,134.31,138.92,11
135,134.32,138.88,11
134,134.32,138.83,11
134,134.31,138.78,11
136,134.34,138.76,11
137,134.40,138.74,11
136,134.43,138.71,11
136,134.46,138.69,11
135,134.47,138.65,11
136,134.50,138.62,11
133,134.47,138.57,11
136,134.50,138.54,11
136,134.53,138.51,11
137,134.58,138.50,11
135,134.59,138.46,11
135,134.60,138.43,11
136,134.63,138.41,11
135,134.63,138.37,11
135,134.64,138.34,11
136,134.67,138.31,11
135,134.68,138.28,11
134,134.66,138.24,11
134,134.65,138.20,11
135,134.66,138.16,11
134,134.64,138.12,11
134,134.63,138.08,11
134,134.62,138.04,11
134,134.60,138.00,11
133,134.57,137.95,11
135,134.58,137.92,11
133,134.55,137.87,11
134,134.54,137.83,11
135,134.55,137.80,11
135,134.56,137.78,11
135,134.57,137.75,11
134,134.55,137.71,11
134,134.54,137.67,11
136,134.57,137.66,11
134,134.56,137.62,11
134,134.55,137.58,11
135,134.56,137.56,11
135,134.57,137.53,11
135,134.58,137.51,11
134,134.56,137.47,11
135,134.57,137.45,11
139,134.66,137.46,11
134,134.65,137.43,11
134,134.64,137.39,11
135,134.64,137.37,11
135,134.65,137.35,11
134,134.64,137.31,11
134,134.62,137.28,11
136,134.65,137.27,11
136,134.68,137.25,11
135,134.69,137.23,11
135,134.69,137.21,11
136,134.72,137.20,11
136,134.74,137.19,11
134,134.73,137.15,11
135,134.73,137.13,11
137,134.78,137.13,11
137,134.82,137.13,11
135,134.83,137.11,11
135,134.83,137.09,11
135,134.83,137.07,11
136,134.86,137.06,11
136,134.88,137.05,11
136,134.90,137.03,11
137,134.94,137.03,11
139,135.03,137.05,11
138,135.09,137.06,11
138,135.14,137.07,11
139,135.22,137.09,11
140,135.32,137.12,11
140,135.41,137.15,11
140,135.50,137.18,11
141,135.61,137.22,11
141,135.72,137.25,11
142,135.85,137.30,11
142,135.97,137.35,11
141,136.07,137.39,11
142,136.19,137.43,11
143,136.32,137.49,11
143,136.46,137.54,11
145,136.63,137.62,11
145,136.80,137.69,11
145,136.96,137.76,11
144,137.10,137.83,11
144,137.24,137.89,11
144,137.37,137.95,11
146,137.55,138.03,11
144,137.68,138.09,11
144,137.80,138.15,11
144,137.93,138.21,11
146,138.09,138.28,11
144,138.21,138.34,11
145,138.34,138.41,12
145,138.47,138.47,12
147,138.65,138.56,13
148,138.83,138.65,13
147,139.00,138.74,13
147,139.16,138.82,13
148,139.33,138.91,13
147,139.49,138.99,13
148,139.66,139.08,13
148,139.82,139.17,13
149,140.01,139.27,13
150,140.21,139.38,13
149,140.38,139.47,13
149,140.55,139.57,13
150,140.74,139.67,13
148,140.89,139.76,13
150,141.07,139.86,13
150,141.25,139.96,13
152,141.46,140.08,13
150,141.64,140.18,13
152,141.84,140.30,13
151,142.03,140.41,13
152,142.23,140.52,13
151,142.40,140.63,13
152,142.59,140.74,13
153,142.80,140.86,13
154,143.02,140.99,13
155,143.26,141.13,13
154,143.48,141.26,13
154,143.69,141.39,13
155,143.92,141.53,13
155,144.14,141.66,13
155,144.35,141.79,13
155,144.57,141.93,13
156,144.80,142.07,13
156,145.02,142.21,13
156,145.24,142.34,13
155,145.44,142.47,13
155,145.63,142.60,13
155,145.81,142.72,13
155,146.00,142.84,13
156,146.20,142.97,13
158,146.43,143.12,13
158,146.67,143.27,13
158,146.89,143.42,13
157,147.09,143.56,13
158,147.31,143.70,13
158,147.53,143.84,13
159,147.76,144.00,13
158,147.96,144.14,13
158,148.16,144.27,13
160,148.40,144.43,13
159,148.61,144.58,13
159,148.82,144.72,13
155,148.94,144.82,13
159,149.14,144.97,13
159,149.34,145.11,13
159,149.53,145.25,13
162,149.78,145.41,13
164,150.07,145.60,13
163,150.33,145.77,13
163,150.58,145.95,13
163,150.83,146.12,13
164,151.09,146.29,13
163,151.33,146.46,13
164,151.58,146.64,13
164,151.83,146.81,13
163,152.05,146.97,13
162,152.25,147.12,13
164,152.49,147.29,13
163,152.70,147.45,13
163,152.90,147.60,13
164,153.13,147.77,13
165,153.36,147.94,13
166,153.62,148.12,13
166,153.86,148.30,13
166,154.11,148.48,13
165,154.32,148.64,13
165,154.54,148.81,13
165,154.75,148.97,13
166,154.97,149.14,13
167,155.21,149.32,13
168,155.47,149.50,13
168,155.72,149.69,13
171,156.02,149.90,13
168,156.26,150.08,13
168,156.50,150.26,13
169,156.75,150.45,13
169,156.99,150.63,13
168,157.21,150.81,13
168,157.43,150.98,13
168,157.64,151.15,13
168,157.85,151.32,13
168,158.05,151.49,13
168,158.25,151.65,13
167,158.43,151.80,13
168,158.62,151.97,13
169,158.82,152.14,13
170,159.05,152.32,13
170,159.27,152.49,13
173,159.54,152.70,13
170,159.75,152.87,13
171,159.98,153.05,13
171,160.20,153.23,13
170,160.39,153.40,13
172,160.62,153.58,13
174,160.89,153.79,13
175,161.17,154.00,13
174,161.43,154.20,13
174,161.68,154.40,13
175,161.95,154.60,13
177,162.25,154.83,13
177,162.54,155.05,13
177,162.83,155.27,13
177,163.12,155.49,13
178,163.41,155.71,13
178,163.71,155.94,13
177,163.97,156.15,13
180,164.29,156.38,13
183,164.67,156.65,13
182,165.01,156.90,13
184,165.39,157.18,13
187,165.83,157.47,13
188,166.27,157.78,13
190,166.74,158.10,13
188,167.17,158.40,13
187,167.57,158.69,13
187,167.95,158.97,13
188,168.36,159.26,13
189,168.77,159.56,13
189,169.17,159.85,13
190,169.59,160.15,13
191,170.02,160.46,13
190,170.42,160.76,13
191,170.83,161.06,13
197,171.35,161.42,13
195,171.83,161.75,13
195,172.29,162.09,13
194,172.72,162.41,13
194,173.15,162.72,13
196,173.61,163.05,13
196,174.05,163.38,13
194,174.45,163.69,13
195,174.86,164.00,13
195,175.27,164.31,13
196,175.68,164.63,13
194,176.05,164.92,13
194,176.41,165.21,13
195,176.78,165.51,13
194,177.12,165.80,13
193,177.44,166.07,13
193,177.75,166.34,13
194,178.08,166.62,13
195,178.41,166.90,13
193,178.71,167.16,13
192,178.97,167.41,13
196,179.31,167.69,13
197,179.67,167.99,13
196,179.99,168.27,13
196,180.31,168.54,13
197,180.65,168.83,13
197,180.97,169.11,13
199,181.33,169.41,13
200,181.71,169.72,13
202,182.11,170.04,13
206,182.59,170.40,13
207,183.08,170.76,13
209,183.60,171.15,13
210,184.13,171.54,13
209,184.62,171.91,13
207,185.07,172.26,13
210,185.57,172.64,13
210,186.06,173.01,13
209,186.52,173.37,13
211,187.01,173.75,13
215,187.57,174.16,13
216,188.14,174.58,13
217,188.71,175.00,13
219,189.32,175.44,13
221,189.95,175.90,13
223,190.61,176.37,13
226,191.32,176.87,13
225,191.99,177.35,13
225,192.65,177.82,13
228,193.36,178.33,13
231,194.11,178.85,13
232,194.87,179.38,13
230,195.57,179.89,13
235,196.36,180.44,13
237,197.18,181.01,13
238,197.99,181.58,13
238,198.79,182.14,13
238,199.58,182.70,13
239,200.36,183.26,13
238,201.12,183.81,13
238,201.86,184.35,13
238,202.58,184.89,13
241,203.35,185.45,13
239,204.06,185.98,13
240,204.78,186.53,13
239,205.46,187.05,13
242,206.19,187.60,13
243,206.93,188.15,13
244,207.67,188.71,13
246,208.44,189.28,13
247,209.21,189.86,13
251,210.04,190.47,13
252,210.88,191.09,13
251,211.69,191.69,13
251,212.47,192.28,13
253,213.28,192.89,13
255,214.12,193.51,13
258,215.00,194.15,13
257,215.84,194.78,13
259,216.70,195.42,13
260,217.56,196.07,13
260,218.41,196.71,13
261,219.27,197.35,13
262,220.12,198.00,13
262,220.96,198.64,13
262,221.78,199.27,13
264,222.62,199.92,13
265,223.47,200.57,13
267,224.34,201.23,13
266,225.17,201.88,13
268,226.03,202.54,13
269,226.89,203.21,13
268,227.71,203.86,13
268,228.52,204.50,13
269,229.33,205.14,13
269,230.12,205.78,13
271,230.94,206.43,13
274,231.80,207.11,13
274,232.64,207.78,13
275,233.49,208.45,13
278,234.38,209.15,13
281,235.31,209.86,13
283,236.27,210.60,13
284,237.22,211.33,13
284,238.16,212.06,13
288,239.15,212.82,13
289,240.15,213.58,13
286,241.07,214.30,13
288,242.01,215.04,13
289,242.95,215.78,13
288,243.85,216.50,13
289,244.75,217.23,13
291,245.68,217.96,13
295,246.66,218.73,13
293,247.59,219.48,13
293,248.50,220.21,13
294,249.41,220.95,13
295,250.32,221.69,13
295,251.21,222.42,13
293,252.05,223.13,13
294,252.89,223.84,13
295,253.73,224.55,13
294,254.54,225.24,13
292,255.28,225.91,13
291,256.00,226.56,13
293,256.74,227.23,13
291,257.42,227.86,13
290,258.08,228.49,13
291,258.73,229.11,13
292,259.40,229.74,13
290,260.01,230.34,13
288,260.57,230.92,13
289,261.14,231.50,13
290,261.72,232.08,13
290,262.28,232.66,13
289,262.82,233.23,13
290,263.36,233.80,13
294,263.97,234.40,13
292,264.53,234.97,13
291,265.06,235.53,13
292,265.60,236.10,13
295,266.19,236.69,13
294,266.75,237.26,13
293,267.27,237.82,13
292,267.77,238.36,13
293,268.27,238.91,13
295,268.81,239.47,13
291,269.25,239.98,13
291,269.68,240.49,13
292,270.13,241.01,13
292,270.57,241.52,13
295,271.06,242.05,13
291,271.46,242.54,13
293,271.89,243.05,13
292,272.29,243.54,13
290,272.64,244.00,13
290,272.99,244.46,13
290,273.33,244.92,13
289,273.64,245.36,13
288,273.93,245.78,13
288,274.21,246.21,13
289,274.51,246.63,13
290,274.82,247.07,13
286,275.04,247.46,13
285,275.24,247.83,13
285,275.44,248.20,13
285,275.63,248.57,13
284,275.79,248.93,13
284,275.96,249.28,13
284,276.12,249.62,13
285,276.30,249.98,13
283,276.43,250.31,13
282,276.54,250.62,13
284,276.69,250.96,13
281,276.78,251.26,13
281,276.86,251.56,13
281,276.94,251.85,13
281,277.03,252.14,13
280,277.09,252.42,13
279,277.12,252.69,13
278,277.14,252.94,13
278,277.16,253.19,13
277,277.16,253.43,13
277,277.15,253.66,13
277,277.15,253.90,13
277,277.15,254.13,13
279,277.18,254.38,13
275,277.14,254.58,13
275,277.10,254.79,13
275,277.05,254.99,13
275,277.01,255.19,13
274,276.95,255.38,13
274,276.89,255.56,13
274,276.84,255.75,13
274,276.78,255.93,13
273,276.70,256.10,13
272,276.61,256.26,13
272,276.52,256.42,13
271,276.41,256.56,13
271,276.30,256.71,13
271,276.19,256.85,13
271,276.09,256.99,13
271,275.99,257.13,13
270,275.87,257.26,13
270,275.75,257.39,13
270,275.64,257.51,13
270,275.52,257.64,13
270,275.41,257.76,13
269,275.28,257.88,13
269,275.16,257.99,13
268,275.02,258.09,13
267,274.86,258.18,13
267,274.70,258.26,13
267,274.54,258.35,13
266,274.37,258.43,13
267,274.23,258.51,13
265,274.04,258.58,13
265,273.86,258.64,13
264,273.66,258.70,13
264,273.47,258.75,13
264,273.28,258.80,13
266,273.14,258.87,13
263,272.93,258.92,13
262,272.71,258.95,13
261,272.48,258.97,13
261,272.25,258.99,13
261,272.02,259.01,13
259,271.76,259.01,13
259,271.51,259.01,13
259,271.26,259.01,13
260,271.03,259.02,13
260,270.81,259.03,13
259,270.58,259.03,13
258,270.33,259.02,13
259,270.10,259.02,13
259,269.88,259.02,13
258,269.64,259.01,13
257,269.39,258.99,13
257,269.14,258.97,13
258,268.92,258.96,13
257,268.68,258.94,13
256,268.42,258.91,13
255,268.16,258.87,13
255,267.89,258.83,13
255,267.63,258.79,13
254,267.36,258.74,13
254,267.09,258.70,13
254,266.83,258.65,13
254,266.58,258.60,13
252,266.28,258.54,13
252,266.00,258.47,13
251,265.70,258.40,13
252,265.43,258.33,13
251,265.14,258.26,13
251,264.85,258.19,13
250,264.56,258.10,13
251,264.29,258.03,13
249,263.98,257.94,13
248,263.66,257.84,13
248,263.35,257.75,13
247,263.02,257.64,13
247,262.70,257.53,13
247,262.39,257.43,13
246,262.06,257.31,13
246,261.74,257.20,13
245,261.40,257.08,13
244,261.05,256.95,13
245,260.73,256.83,13
243,260.38,256.69,13
244,260.05,256.56,13
243,259.71,256.43,13
244,259.40,256.30,13
242,259.05,256.16,13
242,258.71,256.02,13
242,258.37,255.88,13
241,258.03,255.73,13
241,257.68,255.58,13
241,257.35,255.44,13
240,257.00,255.28,13
241,256.68,255.14,13
240,256.35,254.99,13
239,256.00,254.83,13
239,255.66,254.67,13
239,255.33,254.51,13
238,254.98,254.35,13
238,254.64,254.18,13
237,254.29,254.01,13
237,253.95,253.84,14
236,253.59,253.66,14
236,253.23,253.49,14
236,252.89,253.31,14
235,252.53,253.13,14
235,252.18,252.95,14
236,251.86,252.78,14
234,251.50,252.59,14
234,251.15,252.40,14
233,250.79,252.21,14
234,250.45,252.03,14
232,250.08,251.83,14
233,249.74,251.64,14
233,249.41,251.45,14
232,249.06,251.26,14
232,248.72,251.07,14
231,248.36,250.86,14
231,248.02,250.67,14
231,247.68,250.47,14
231,247.34,250.27,14
230,246.99,250.07,14
230,246.65,249.87,14
230,246.32,249.67,14
230,246.00,249.48,14
229,245.66,249.27,14
228,245.30,249.06,14
229,244.98,248.86,14
228,244.64,248.65,14
228,244.30,248.44,14
227,243.96,248.23,14
227,243.62,248.02,14
227,243.29,247.81,14
226,242.94,247.59,14
226,242.60,247.37,14
225,242.25,247.15,14
226,241.92,246.94,14
225,241.59,246.72,14
225,241.25,246.50,14
225,240.93,246.29,14
225,240.61,246.07,14
224,240.28,245.85,14
224,239.95,245.63,14
224,239.63,245.42,14
224,239.32,245.20,14
224,239.02,244.99,14
223,238.69,244.77,14
223,238.38,244.55,14
223,238.07,244.34,14
225,237.81,244.14,14
224,237.54,243.94,14
224,237.26,243.74,14
222,236.96,243.53,14
224,236.70,243.33,14
223,236.43,243.13,14
224,236.18,242.94,14
223,235.91,242.74,14
223,235.66,242.54,14
223,235.40,242.34,14
223,235.15,242.15,14
223,234.91,241.96,14
222,234.65,241.76,14
222,234.40,241.56,14
223,234.17,241.38,14
223,233.95,241.19,14
221,233.69,240.99,14
221,233.44,240.79,14
221,233.19,240.59,14
221,232.94,240.40,14
221,232.70,240.20,14
220,232.45,240.00,14
220,232.20,239.80,14
221,231.98,239.61,14
221,231.76,239.43,14
218,231.48,239.21,14
219,231.23,239.01,14
219,230.99,238.81,14
219,230.75,238.61,14
219,230.51,238.42,14
219,230.28,238.22,14
220,230.08,238.04,14
219,229.86,237.85,14
219,229.64,237.66,14
221,229.47,237.49,14
219,229.26,237.31,14
219,229.05,237.13,14
222,228.91,236.97,14
219,228.71,236.80,14
219,228.52,236.62,14
218,228.31,236.43,14
218,228.10,236.25,14
219,227.92,236.07,14
218,227.72,235.89,14
217,227.51,235.70,14
218,227.32,235.53,14
217,227.11,235.34,14
217,226.91,235.16,14
217,226.71,234.98,14
216,226.50,234.79,14
216,226.29,234.60,14
216,226.08,234.41,14
216,225.88,234.23,14
215,225.66,234.04,14
216,225.47,233.86,14
215,225.26,233.67,14
214,225.03,233.47,14
214,224.81,233.28,14
214,224.60,233.08,14
213,224.36,232.88,14
213,224.14,232.68,14
214,223.93,232.50,14
214,223.74,232.31,14
213,223.52,232.12,14
212,223.29,231.92,14
212,223.07,231.72,14
213,222.86,231.53,14
213,222.67,231.35,14
213,222.47,231.16,14
213,222.28,230.98,14
213,222.10,230.80,14
213,221.92,230.62,14
217,221.82,230.49,14
213,221.64,230.31,14
212,221.45,230.13,14
211,221.24,229.94,14
212,221.05,229.76,14
212,220.87,229.58,14
212,220.70,229.41,14
212,220.52,229.23,14
212,220.35,229.06,14
212,220.18,228.89,14
211,220.00,228.71,14
211,219.82,228.53,14
211,219.64,228.36,14
212,219.49,228.19,14
212,219.34,228.03,14
211,219.18,227.86,14
210,218.99,227.68,14
210,218.81,227.51,14
210,218.64,227.33,14
210,218.46,227.16,14
210,218.29,226.99,14
210,218.13,226.82,14
209,217.95,226.64,14
209,217.77,226.46,14
207,217.55,226.27,14
207,217.34,226.07,14
207,217.13,225.88,14
207,216.93,225.69,14
207,216.73,225.51,14
207,216.54,225.32,14
206,216.33,225.13,14
206,216.12,224.94,14
206,215.92,224.75,14
205,215.70,224.55,14
205,215.49,224.36,14
205,215.28,224.16,14
205,215.07,223.97,14
204,214.85,223.77,14
204,214.63,223.57,14
205,214.44,223.39,14
204,214.23,223.19,14
204,214.03,223.00,14
205,213.85,222.82,14
204,213.65,222.63,14
205,213.48,222.46,14
204,213.29,222.27,14
204,213.10,222.09,14
204,212.92,221.91,14
203,212.72,221.72,14
202,212.51,221.52,14
202,212.30,221.33,14
203,212.11,221.14,14
201,211.89,220.94,14
201,211.67,220.74,14
203,211.50,220.57,14
203,211.33,220.39,14
202,211.14,220.21,14
202,210.96,220.02,14
201,210.76,219.83,14
201,210.56,219.65,14
201,210.37,219.46,14
201,210.18,219.27,14
201,210.00,219.09,14
202,209.84,218.92,14
200,209.64,218.73,14
200,209.45,218.54,14
200,209.26,218.36,14
200,209.08,218.18,14
200,208.89,217.99,14
200,208.72,217.81,14
199,208.52,217.63,14
200,208.35,217.45,14
198,208.15,217.25,14
199,207.96,217.07,14
199,207.78,216.89,14
201,207.65,216.73,14
199,207.47,216.56,14
199,207.30,216.38,14
200,207.16,216.22,14
200,207.02,216.05,14
200,206.88,215.89,14
199,206.72,215.72,14
200,206.58,215.57,14
201,206.47,215.42,14
202,206.38,215.29,14
203,206.31,215.16,14
203,206.25,215.04,14
203,206.18,214.92,14
202,206.10,214.79,14
202,206.02,214.67,14
202,205.94,214.54,14
202,205.86,214.41,14
202,205.78,214.29,14
201,205.69,214.16,14
