Teste de posicionamento 1.1(EMG ao centro do bíceps (Verde A, Vermelho B) + Ref no pulso) - 16/09/2024 - teste4 - 5 contrações
long frequencia = 1000;                 //frequência de aquisição do sinal, neste caso, 1000 sinais por segundo
float fator1 = 0.02, fator2 = 0.01;
float incerteza = 0.13;
float pico_basal = 130; // Mínimo para ser considerado um pico de contração
int filtro_horizontal=200000; //intervalo de 200ms valores não pode ter mais de 1 contração

Biceps_D,mediaMovel_1,mediaMovel_2,Contracao
80,1.60,0.80,0
79,3.15,1.58,0
79,4.67,2.36,0
79,6.15,3.12,0
80,7.63,3.89,0
79,9.06,4.64,0
79,10.46,5.39,0
79,11.83,6.12,0
78,13.15,6.84,0
79,14.47,7.56,0
79,15.76,8.28,0
79,17.02,8.98,0
79,18.26,9.68,0
78,19.46,10.37,0
79,20.65,11.05,0
79,21.81,11.73,0
79,22.96,12.41,0
78,24.06,13.06,0
78,25.14,13.71,0
78,26.19,14.35,0
79,27.25,15.00,0
78,28.27,15.63,0
78,29.26,16.25,0
79,30.26,16.88,0
78,31.21,17.49,0
78,32.15,18.10,0
79,33.08,18.71,0
78,33.98,19.30,0
80,34.90,19.91,0
78,35.76,20.49,0
79,36.63,21.07,0
80,37.50,21.66,0
78,38.31,22.23,0
78,39.10,22.78,0
77,39.86,23.33,0
78,40.62,23.87,0
78,41.37,24.41,0
79,42.12,24.96,0
78,42.84,25.49,0
79,43.56,26.02,0
78,44.25,26.54,0
78,44.93,27.06,0
78,45.59,27.57,0
78,46.24,28.07,0
78,46.87,28.57,0
78,47.49,29.07,0
77,48.08,29.55,0
78,48.68,30.03,0
78,49.27,30.51,0
78,49.84,30.99,0
77,50.39,31.45,0
79,50.96,31.92,0
78,51.50,32.38,0
78,52.03,32.84,0
78,52.55,33.29,0
77,53.04,33.73,0
78,53.54,34.17,0
78,54.03,34.61,0
79,54.53,35.05,0
76,54.95,35.46,0
76,55.38,35.87,0
77,55.81,36.28,0
76,56.21,36.67,0
78,56.65,37.09,0
77,57.05,37.49,0
77,57.45,37.88,0
77,57.84,38.27,0
77,58.23,38.66,0
78,58.62,39.05,0
77,58.99,39.43,0
78,59.37,39.82,0
77,59.72,40.19,0
78,60.09,40.57,0
76,60.41,40.92,0
77,60.74,41.28,0
77,61.06,41.64,0
80,61.44,42.02,0
77,61.75,42.37,0
76,62.04,42.71,0
76,62.32,43.04,0
76,62.59,43.37,0
76,62.86,43.70,0
76,63.12,44.02,0
77,63.40,44.35,0
76,63.65,44.67,0
76,63.90,44.98,0
76,64.14,45.29,0
76,64.38,45.60,0
76,64.61,45.90,0
76,64.84,46.20,0
76,65.06,46.50,0
78,65.32,46.82,0
74,65.49,47.09,0
76,65.70,47.38,0
76,65.91,47.66,0
77,66.13,47.96,0
76,66.33,48.24,0
75,66.50,48.51,0
76,66.69,48.78,0
76,66.88,49.05,0
75,67.04,49.31,0
74,67.18,49.56,0
77,67.38,49.83,0
77,67.57,50.11,0
76,67.74,50.36,0
74,67.86,50.60,0
76,68.03,50.85,0
76,68.19,51.11,0
75,68.32,51.35,0
74,68.44,51.57,0
76,68.59,51.82,0
75,68.72,52.05,0
76,68.86,52.29,0
76,69.00,52.52,0
75,69.12,52.75,0
75,69.24,52.97,0
74,69.34,53.18,0
74,69.43,53.39,0
76,69.56,53.62,0
76,69.69,53.84,0
74,69.78,54.04,0
74,69.86,54.24,0
75,69.96,54.45,0
76,70.08,54.66,0
76,70.20,54.88,0
76,70.32,55.09,0
75,70.41,55.29,0
76,70.52,55.50,0
74,70.59,55.68,0
74,70.66,55.86,0
75,70.75,56.05,0
74,70.81,56.23,0
74,70.88,56.41,0
76,70.98,56.61,0
75,71.06,56.79,0
74,71.12,56.96,0
76,71.22,57.15,0
74,71.27,57.32,0
74,71.33,57.49,0
74,71.38,57.65,0
74,71.43,57.82,0
74,71.48,57.98,0
74,71.53,58.14,0
75,71.60,58.31,0
74,71.65,58.47,0
74,71.70,58.62,0
74,71.74,58.77,0
75,71.81,58.94,0
74,71.85,59.09,0
73,71.88,59.23,0
75,71.94,59.38,0
74,71.98,59.53,0
73,72.00,59.67,0
73,72.02,59.80,0
73,72.04,59.93,0
77,72.14,60.10,0
75,72.20,60.25,0
73,72.21,60.38,0
74,72.25,60.51,0
74,72.28,60.65,0
74,72.32,60.78,0
74,72.35,60.91,0
74,72.38,61.05,0
77,72.48,61.21,0
74,72.51,61.33,0
74,72.54,61.46,0
74,72.57,61.59,0
75,72.61,61.72,0
74,72.64,61.84,0
73,72.65,61.95,0
73,72.66,62.06,0
73,72.66,62.17,0
73,72.67,62.28,0
74,72.70,62.40,0
73,72.70,62.50,0
73,72.71,62.61,0
73,72.71,62.71,0
73,72.72,62.82,0
75,72.77,62.94,0
73,72.77,63.04,0
73,72.78,63.14,0
74,72.80,63.25,0
72,72.78,63.33,0
73,72.79,63.43,0
73,72.79,63.53,0
72,72.78,63.61,0
74,72.80,63.72,0
73,72.80,63.81,0
73,72.81,63.90,0
74,72.83,64.00,0
72,72.82,64.08,0
75,72.86,64.19,0
72,72.84,64.27,0
72,72.83,64.35,0
73,72.83,64.43,0
72,72.81,64.51,0
72,72.80,64.58,0
72,72.78,64.66,0
72,72.76,64.73,0
73,72.77,64.81,0
72,72.75,64.89,0
72,72.74,64.96,0
72,72.72,65.03,0
72,72.71,65.10,0
72,72.70,65.17,0
72,72.68,65.23,0
73,72.69,65.31,0
71,72.65,65.37,0
72,72.64,65.43,0
72,72.63,65.50,0
73,72.64,65.58,0
72,72.62,65.64,0
72,72.61,65.70,0
72,72.60,65.77,0
74,72.63,65.85,0
72,72.61,65.91,0
72,72.60,65.97,0
72,72.59,66.03,0
72,72.58,66.09,0
72,72.57,66.15,0
72,72.55,66.21,0
72,72.54,66.27,0
72,72.53,66.32,0
72,72.52,66.38,0
72,72.51,66.44,0
73,72.52,66.50,0
72,72.51,66.56,0
72,72.50,66.61,0
72,72.49,66.67,0
70,72.44,66.70,0
72,72.43,66.75,0
72,72.42,66.80,0
72,72.42,66.86,0
72,72.41,66.91,0
72,72.40,66.96,0
71,72.37,67.00,0
70,72.32,67.03,0
70,72.28,67.06,0
72,72.27,67.11,0
70,72.23,67.14,0
70,72.18,67.17,0
72,72.18,67.21,0
71,72.15,67.25,0
72,72.15,67.30,0
72,72.15,67.35,0
70,72.11,67.37,0
71,72.08,67.41,0
71,72.06,67.45,0
72,72.06,67.49,0
71,72.04,67.53,0
70,72.00,67.55,0
70,71.96,67.58,0
71,71.94,67.61,0
71,71.92,67.64,0
71,71.90,67.68,0
70,71.86,67.70,0
70,71.83,67.72,0
70,71.79,67.75,0
71,71.77,67.78,0
71,71.76,67.81,0
71,71.74,67.84,0
70,71.71,67.86,0
71,71.69,67.90,0
70,71.66,67.92,0
71,71.65,67.95,0
72,71.65,67.99,0
71,71.64,68.02,0
70,71.61,68.04,0
70,71.58,68.06,0
70,71.54,68.08,0
71,71.53,68.11,0
72,71.54,68.15,0
70,71.51,68.16,0
70,71.48,68.18,0
71,71.47,68.21,0
71,71.46,68.24,0
72,71.47,68.28,0
70,71.44,68.29,0
70,71.42,68.31,0
70,71.39,68.33,0
70,71.36,68.34,0
70,71.33,68.36,0
71,71.33,68.39,0
72,71.34,68.42,0
70,71.31,68.44,0
70,71.29,68.45,0
70,71.26,68.47,0
71,71.26,68.49,0
70,71.23,68.51,0
70,71.21,68.52,0
71,71.20,68.55,0
70,71.18,68.56,0
70,71.15,68.58,0
70,71.13,68.59,0
70,71.11,68.61,0
70,71.09,68.62,0
70,71.06,68.63,0
70,71.04,68.65,0
71,71.04,68.67,0
72,71.06,68.70,0
70,71.04,68.72,0
70,71.02,68.73,0
71,71.02,68.75,0
70,71.00,68.77,0
70,70.98,68.78,0
70,70.96,68.79,0
74,71.02,68.84,0
69,70.98,68.84,0
70,70.96,68.86,0
70,70.94,68.87,0
70,70.92,68.88,0
70,70.90,68.89,0
70,70.89,68.90,0
70,70.87,68.91,0
71,70.87,68.93,0
70,70.85,68.94,0
70,70.84,68.95,0
70,70.82,68.96,0
69,70.78,68.96,0
70,70.77,68.97,0
70,70.75,68.99,0
70,70.74,69.00,0
67,70.66,68.98,0
70,70.65,68.99,0
70,70.64,69.00,0
70,70.62,69.01,0
71,70.63,69.03,0
70,70.62,69.04,0
70,70.61,69.05,0
70,70.59,69.05,0
71,70.60,69.07,0
70,70.59,69.08,0
70,70.58,69.09,0
70,70.57,69.10,0
70,70.55,69.11,0
70,70.54,69.12,0
72,70.57,69.15,0
70,70.56,69.16,0
69,70.53,69.16,0
70,70.52,69.16,0
70,70.51,69.17,0
70,70.50,69.18,0
70,70.49,69.19,0
68,70.44,69.18,0
70,70.43,69.18,0
70,70.42,69.19,0
70,70.41,69.20,0
70,70.41,69.21,0
69,70.38,69.21,0
67,70.31,69.18,0
70,70.30,69.19,0
70,70.30,69.20,0
70,70.29,69.21,0
69,70.27,69.21,0
70,70.26,69.22,0
70,70.26,69.22,0
70,70.25,69.23,0
70,70.24,69.24,0
70,70.24,69.25,0
69,70.22,69.24,0
68,70.17,69.23,0
69,70.15,69.23,0
70,70.14,69.24,0
69,70.12,69.23,0
70,70.12,69.24,0
70,70.12,69.25,0
69,70.09,69.25,0
69,70.07,69.24,0
69,70.05,69.24,0
69,70.03,69.24,0
70,70.03,69.25,0
69,70.01,69.24,0
68,69.97,69.23,0
68,69.93,69.22,0
70,69.93,69.23,0
69,69.91,69.23,0
68,69.87,69.21,0
68,69.84,69.20,0
68,69.80,69.19,0
69,69.78,69.19,0
69,69.77,69.19,0
68,69.73,69.17,0
68,69.70,69.16,0
69,69.68,69.16,0
70,69.69,69.17,0
68,69.66,69.16,0
68,69.62,69.15,0
69,69.61,69.14,0
69,69.60,69.14,0
68,69.57,69.13,0
71,69.60,69.15,0
69,69.58,69.15,0
68,69.55,69.14,0
68,69.52,69.13,0
69,69.51,69.12,0
69,69.50,69.12,0
68,69.47,69.11,0
68,69.44,69.10,0
69,69.43,69.10,0
68,69.40,69.09,0
69,69.40,69.09,0
68,69.37,69.08,0
69,69.36,69.08,0
68,69.33,69.07,0
70,69.35,69.07,0
68,69.32,69.06,0
69,69.31,69.06,0
69,69.31,69.06,0
68,69.28,69.05,0
68,69.25,69.04,0
69,69.25,69.04,0
69,69.24,69.04,0
68,69.22,69.03,0
68,69.20,69.02,0
68,69.17,69.01,0
67,69.13,68.99,0
68,69.11,68.98,0
70,69.12,68.99,0
68,69.10,68.98,0
67,69.06,68.96,0
68,69.04,68.95,0
72,69.10,68.98,0
68,69.08,68.97,0
67,69.03,68.95,0
68,69.01,68.94,0
69,69.01,68.94,0
68,68.99,68.93,0
67,68.95,68.91,0
68,68.93,68.90,0
68,68.91,68.90,0
69,68.92,68.90,0
68,68.90,68.89,0
68,68.88,68.88,0
68,68.86,68.87,0
67,68.83,68.85,0
67,68.79,68.83,0
70,68.81,68.84,0
64,68.72,68.80,0
67,68.68,68.78,0
68,68.67,68.77,0
68,68.66,68.76,0
68,68.64,68.75,0
68,68.63,68.75,0
66,68.58,68.72,0
68,68.57,68.71,0
68,68.55,68.71,0
67,68.52,68.69,0
69,68.53,68.69,0
67,68.50,68.67,0
68,68.49,68.67,0
67,68.46,68.65,0
68,68.45,68.64,0
68,68.44,68.64,0
68,68.43,68.63,0
67,68.41,68.62,0
68,68.40,68.61,0
67,68.37,68.59,0
67,68.34,68.58,0
66,68.30,68.55,0
68,68.29,68.55,0
68,68.28,68.54,0
67,68.26,68.53,0
67,68.23,68.51,0
69,68.25,68.51,0
66,68.20,68.49,0
66,68.16,68.46,0
68,68.16,68.46,0
66,68.11,68.44,0
66,68.07,68.41,0
66,68.03,68.39,0
66,67.99,68.36,0
65,67.93,68.33,0
66,67.89,68.31,0
66,67.85,68.28,0
66,67.82,68.26,0
67,67.80,68.25,0
66,67.76,68.23,0
66,67.73,68.20,0
65,67.67,68.17,0
65,67.62,68.14,0
66,67.59,68.12,0
66,67.56,68.10,0
67,67.54,68.09,0
67,67.53,68.08,0
66,67.50,68.05,0
66,67.47,68.03,0
66,67.44,68.01,0
66,67.41,67.99,0
66,67.39,67.97,0
67,67.38,67.96,0
66,67.35,67.94,0
66,67.32,67.92,0
66,67.30,67.91,0
66,67.27,67.89,0
66,67.25,67.87,0
67,67.24,67.86,0
66,67.22,67.84,0
66,67.19,67.82,0
65,67.15,67.79,0
65,67.11,67.77,0
65,67.06,67.74,0
64,67.00,67.70,0
66,66.98,67.68,0
65,66.94,67.66,0
64,66.88,67.62,0
64,66.83,67.58,0
65,66.79,67.56,0
64,66.73,67.52,0
64,66.68,67.49,0
64,66.63,67.45,0
65,66.59,67.43,0
64,66.54,67.39,0
64,66.49,67.36,0
64,66.44,67.33,0
64,66.39,67.29,0
65,66.36,67.27,0
66,66.36,67.26,0
66,66.35,67.24,0
65,66.32,67.22,0
64,66.28,67.19,0
64,66.23,67.16,0
66,66.23,67.15,0
65,66.20,67.13,0
65,66.18,67.10,0
64,66.13,67.07,0
64,66.09,67.04,0
64,66.05,67.01,0
66,66.05,67.00,0
64,66.01,66.97,0
64,65.97,66.94,0
65,65.95,66.92,0
65,65.93,66.90,0
64,65.89,66.87,0
64,65.85,66.85,0
64,65.82,66.82,0
64,65.78,66.79,0
68,65.82,66.80,0
66,65.83,66.79,0
65,65.81,66.77,0
66,65.81,66.77,0
64,65.78,66.74,0
64,65.74,66.71,0
65,65.73,66.70,0
64,65.69,66.67,0
70,65.78,66.70,0
64,65.74,66.67,0
64,65.71,66.65,0
65,65.69,66.63,0
66,65.70,66.62,0
64,65.67,66.60,0
64,65.63,66.57,0
67,65.66,66.58,0
64,65.63,66.55,0
64,65.59,66.53,0
64,65.56,66.50,0
64,65.53,66.48,0
64,65.50,66.45,0
64,65.47,66.43,0
64,65.44,66.40,0
66,65.45,66.40,0
66,65.46,66.39,0
65,65.45,66.38,0
65,65.45,66.37,0
64,65.42,66.34,0
64,65.39,66.32,0
64,65.36,66.30,0
64,65.33,66.27,0
64,65.31,66.25,0
65,65.30,66.24,0
64,65.27,66.22,0
64,65.25,66.19,0
64,65.22,66.17,0
64,65.20,66.15,0
64,65.18,66.13,0
65,65.17,66.12,0
65,65.17,66.11,0
63,65.13,66.07,0
64,65.10,66.05,0
64,65.08,66.03,0
64,65.06,66.01,0
64,65.04,65.99,0
64,65.02,65.97,0
65,65.02,65.96,0
64,65.00,65.94,0
64,64.98,65.92,0
64,64.96,65.90,0
64,64.94,65.89,0
64,64.92,65.87,0
64,64.90,65.85,0
64,64.88,65.83,0
65,64.89,65.82,0
66,64.91,65.82,0
64,64.89,65.81,0
64,64.87,65.79,0
64,64.85,65.77,0
66,64.88,65.77,0
66,64.90,65.77,0
64,64.88,65.76,0
65,64.88,65.75,0
65,64.89,65.74,0
64,64.87,65.72,0
64,64.85,65.71,0
67,64.89,65.72,0
65,64.90,65.71,0
64,64.88,65.69,0
64,64.86,65.68,0
65,64.86,65.67,0
64,64.85,65.65,0
66,64.87,65.66,0
64,64.85,65.64,0
66,64.87,65.64,0
65,64.88,65.64,0
64,64.86,65.62,0
66,64.88,65.63,0
66,64.90,65.63,0
66,64.93,65.63,0
64,64.91,65.62,0
66,64.93,65.62,0
65,64.93,65.61,0
65,64.93,65.61,0
64,64.91,65.59,0
64,64.90,65.58,0
65,64.90,65.57,0
65,64.90,65.57,0
64,64.88,65.55,0
66,64.90,65.55,0
65,64.91,65.55,0
65,64.91,65.54,0
66,64.93,65.55,0
66,64.95,65.55,0
66,64.97,65.56,0
66,64.99,65.56,0
64,64.97,65.55,0
66,64.99,65.55,0
66,65.01,65.55,0
71,65.13,65.61,0
66,65.15,65.61,0
66,65.17,65.62,0
66,65.18,65.62,0
66,65.20,65.62,0
68,65.26,65.65,0
66,65.27,65.65,0
65,65.27,65.65,0
66,65.28,65.65,0
66,65.30,65.65,0
66,65.31,65.66,0
66,65.32,65.66,0
69,65.40,65.69,0
65,65.39,65.69,0
66,65.40,65.69,0
66,65.41,65.69,0
70,65.50,65.73,0
68,65.55,65.76,0
66,65.56,65.76,0
66,65.57,65.76,0
68,65.62,65.78,0
66,65.63,65.79,0
67,65.66,65.80,0
66,65.66,65.80,0
72,65.79,65.86,0
66,65.79,65.86,0
66,65.80,65.87,0
67,65.82,65.88,0
69,65.89,65.91,0
68,65.93,65.93,0
66,65.93,65.93,0
67,65.95,65.94,0
67,65.97,65.95,0
68,66.01,65.97,0
66,66.01,65.97,0
68,66.05,65.99,0
67,66.07,66.00,0
68,66.11,66.02,0
67,66.13,66.03,0
67,66.14,66.04,0
65,66.12,66.03,0
68,66.16,66.05,0
66,66.16,66.05,0
68,66.19,66.07,0
69,66.25,66.10,0
68,66.28,66.12,0
66,66.28,66.12,0
66,66.27,66.12,0
68,66.31,66.13,0
68,66.34,66.15,0
67,66.35,66.16,0
68,66.39,66.18,0
68,66.42,66.20,0
67,66.43,66.21,0
68,66.46,66.22,0
68,66.49,66.24,0
69,66.54,66.27,0
68,66.57,66.29,0
68,66.60,66.30,0
68,66.63,66.32,0
68,66.66,66.34,0
68,66.68,66.35,0
68,66.71,66.37,0
69,66.76,66.40,0
69,66.80,66.42,0
70,66.86,66.46,0
70,66.93,66.49,0
69,66.97,66.52,0
68,66.99,66.53,0
68,67.01,66.55,0
70,67.07,66.58,0
69,67.11,66.61,0
70,67.17,66.64,0
68,67.18,66.66,0
70,67.24,66.69,0
70,67.29,66.72,0
70,67.35,66.75,0
70,67.40,66.79,0
70,67.45,66.82,0
70,67.50,66.85,0
70,67.55,66.88,0
70,67.60,66.91,0
71,67.67,66.95,0
71,67.74,66.99,0
70,67.78,67.03,0
70,67.83,67.05,0
70,67.87,67.08,0
70,67.91,67.11,0
71,67.97,67.15,0
70,68.02,67.18,0
70,68.06,67.21,0
70,68.09,67.24,0
70,68.13,67.26,0
70,68.17,67.29,0
70,68.21,67.32,0
71,68.26,67.36,0
70,68.30,67.38,0
70,68.33,67.41,0
70,68.36,67.43,0
71,68.42,67.47,0
70,68.45,67.50,0
70,68.48,67.52,0
70,68.51,67.55,0
71,68.56,67.58,0
71,68.61,67.61,0
72,68.68,67.66,0
70,68.70,67.68,0
71,68.75,67.71,0
72,68.81,67.76,0
72,68.88,67.80,0
71,68.92,67.83,0
70,68.94,67.85,0
72,69.00,67.89,0
72,69.06,67.94,0
72,69.12,67.98,0
71,69.16,68.01,0
74,69.26,68.07,0
72,69.31,68.11,0
70,69.32,68.12,0
72,69.38,68.16,0
72,69.43,68.20,0
72,69.48,68.24,0
71,69.51,68.27,0
71,69.54,68.29,0
73,69.61,68.34,0
72,69.66,68.38,0
72,69.71,68.41,0
72,69.75,68.45,0
73,69.82,68.50,0
72,69.86,68.53,0
72,69.90,68.57,0
76,70.03,68.64,0
73,70.08,68.68,0
71,70.10,68.71,0
71,70.12,68.73,0
71,70.14,68.75,0
73,70.20,68.80,0
72,70.23,68.83,0
72,70.27,68.86,0
72,70.30,68.89,0
72,70.34,68.92,0
72,70.37,68.95,0
72,70.40,68.98,0
70,70.39,68.99,0
71,70.41,69.01,0
72,70.44,69.04,0
71,70.45,69.06,0
69,70.42,69.06,0
72,70.45,69.09,0
71,70.46,69.11,0
71,70.47,69.13,0
73,70.52,69.17,0
72,70.55,69.20,0
72,70.58,69.22,0
72,70.61,69.25,0
70,70.60,69.26,0
72,70.63,69.29,0
72,70.65,69.31,0
72,70.68,69.34,0
73,70.73,69.38,0
72,70.75,69.40,0
71,70.76,69.42,0
72,70.78,69.45,0
73,70.83,69.48,0
72,70.85,69.51,0
71,70.85,69.52,0
72,70.88,69.55,0
73,70.92,69.58,0
72,70.94,69.60,0
72,70.96,69.63,0
72,70.98,69.65,0
72,71.00,69.68,0
72,71.02,69.70,0
71,71.02,69.71,0
72,71.04,69.73,0
74,71.10,69.78,0
72,71.12,69.80,0
72,71.14,69.82,0
72,71.15,69.84,0
72,71.17,69.87,0
72,71.19,69.89,0
72,71.20,69.91,0
72,71.22,69.93,0
73,71.26,69.96,0
74,71.31,70.00,0
74,71.36,70.04,0
72,71.38,70.06,0
72,71.39,70.08,0
72,71.40,70.10,0
72,71.41,70.12,0
72,71.42,70.14,0
73,71.46,70.16,0
72,71.47,70.18,0
72,71.48,70.20,0
73,71.51,70.23,0
72,71.52,70.25,0
72,71.53,70.26,0
74,71.58,70.30,0
72,71.59,70.32,0
72,71.59,70.34,0
72,71.60,70.35,0
73,71.63,70.38,0
72,71.64,70.39,0
72,71.64,70.41,0
72,71.65,70.43,0
72,71.66,70.44,0
72,71.67,70.46,0
73,71.69,70.48,0
72,71.70,70.50,0
73,71.72,70.52,0
72,71.73,70.54,0
73,71.76,70.56,0
72,71.76,70.58,0
73,71.79,70.60,0
72,71.79,70.62,0
72,71.79,70.63,0
72,71.80,70.64,0
74,71.84,70.68,0
73,71.87,70.70,0
73,71.89,70.72,0
73,71.91,70.75,0
72,71.91,70.76,0
74,71.95,70.79,0
74,71.99,70.82,0
73,72.01,70.84,0
74,72.05,70.88,0
72,72.05,70.89,0
73,72.07,70.91,0
73,72.09,70.93,0
73,72.11,70.95,0
74,72.15,70.98,0
73,72.16,71.00,0
75,72.22,71.04,0
72,72.22,71.05,0
74,72.25,71.08,0
72,72.25,71.09,0
72,72.24,71.10,0
72,72.24,71.11,0
73,72.25,71.13,0
74,72.29,71.15,0
73,72.30,71.17,0
72,72.30,71.18,0
72,72.29,71.19,0
73,72.30,71.21,0
72,72.30,71.22,0
72,72.29,71.22,0
72,72.29,71.23,0
73,72.30,71.25,0
73,72.31,71.27,0
74,72.35,71.29,0
72,72.34,71.30,0
73,72.35,71.32,0
73,72.37,71.33,0
72,72.36,71.34,0
72,72.35,71.35,0
73,72.37,71.36,0
73,72.38,71.38,0
73,72.39,71.40,0
72,72.38,71.40,0
72,72.38,71.41,0
73,72.39,71.43,0
74,72.42,71.45,0
70,72.37,71.44,0
75,72.42,71.47,0
74,72.46,71.50,0
72,72.45,71.50,0
72,72.44,71.51,0
73,72.45,71.52,0
73,72.46,71.54,0
72,72.45,71.54,0
72,72.44,71.55,0
74,72.47,71.57,0
73,72.48,71.58,0
72,72.47,71.59,0
72,72.46,71.59,0
72,72.45,71.60,0
73,72.47,71.61,0
72,72.46,71.62,0
72,72.45,71.62,0
72,72.44,71.62,0
72,72.43,71.63,0
72,72.42,71.63,0
74,72.45,71.65,0
72,72.44,71.66,0
72,72.43,71.66,0
72,72.43,71.66,0
72,72.42,71.67,0
73,72.43,71.68,0
72,72.42,71.68,0
72,72.41,71.69,0
72,72.40,71.69,0
72,72.40,71.69,0
71,72.37,71.69,0
72,72.36,71.69,0
72,72.35,71.69,0
72,72.35,71.70,0
72,72.34,71.70,0
72,72.33,71.70,0
72,72.33,71.71,0
73,72.34,71.72,0
72,72.33,71.72,0
72,72.33,71.72,0
72,72.32,71.73,0
72,72.31,71.73,0
71,72.29,71.72,0
71,72.26,71.71,0
71,72.24,71.71,0
71,72.21,71.70,0
73,72.23,71.71,0
72,72.22,71.72,0
71,72.20,71.71,0
71,72.17,71.70,0
70,72.13,71.68,0
70,72.09,71.67,0
71,72.07,71.66,0
71,72.04,71.65,0
73,72.06,71.67,0
72,72.06,71.67,0
71,72.04,71.66,0
71,72.02,71.66,0
71,72.00,71.65,0
70,71.96,71.64,0
71,71.94,71.63,0
70,71.90,71.61,0
72,71.90,71.62,0
71,71.89,71.61,0
71,71.87,71.60,0
71,71.85,71.60,0
71,71.83,71.59,0
72,71.84,71.60,0
70,71.80,71.58,0
71,71.78,71.57,0
71,71.77,71.57,0
70,71.73,71.55,0
70,71.70,71.54,0
70,71.66,71.52,0
71,71.65,71.52,0
70,71.62,71.50,0
70,71.59,71.49,0
69,71.53,71.46,0
71,71.52,71.46,0
70,71.49,71.44,0
70,71.46,71.43,0
72,71.47,71.43,0
71,71.46,71.43,0
71,71.46,71.43,0
70,71.43,71.41,0
71,71.42,71.41,0
72,71.43,71.41,0
70,71.40,71.40,0
70,71.37,71.38,0
70,71.35,71.37,0
71,71.34,71.37,0
71,71.33,71.36,0
70,71.30,71.35,0
71,71.30,71.35,0
70,71.27,71.33,0
70,71.25,71.32,0
70,71.22,71.31,0
71,71.22,71.30,0
71,71.21,71.30,0
70,71.19,71.29,0
70,71.17,71.27,0
70,71.14,71.26,0
71,71.14,71.26,0
70,71.12,71.25,0
69,71.07,71.22,0
70,71.05,71.21,0
70,71.03,71.20,0
70,71.01,71.19,0
72,71.03,71.20,0
71,71.03,71.19,0
70,71.01,71.18,0
70,70.99,71.17,0
70,70.97,71.16,0
70,70.95,71.15,0
71,70.95,71.15,0
71,70.95,71.14,0
70,70.93,71.13,0
72,70.95,71.14,0
71,70.96,71.14,0
70,70.94,71.13,0
70,70.92,71.12,0
70,70.90,71.11,0
70,70.88,71.09,0
70,70.86,71.08,0
70,70.85,71.07,0
71,70.85,71.07,0
71,70.85,71.07,0
70,70.84,71.06,0
70,70.82,71.05,0
70,70.80,71.04,0
70,70.79,71.03,0
70,70.77,71.02,0
70,70.76,71.01,0
70,70.74,71.00,0
73,70.79,71.02,0
71,70.79,71.02,0
70,70.77,71.01,0
71,70.78,71.01,0
72,70.80,71.02,0
72,70.83,71.03,0
71,70.83,71.03,0
71,70.83,71.03,0
70,70.82,71.02,0
69,70.78,71.00,0
70,70.76,70.99,0
70,70.75,70.98,0
70,70.73,70.97,0
71,70.74,70.97,0
70,70.73,70.96,0
70,70.71,70.95,0
70,70.70,70.94,0
70,70.68,70.93,0
70,70.67,70.92,0
70,70.66,70.91,0
71,70.66,70.91,0
70,70.65,70.90,0
70,70.64,70.89,0
70,70.62,70.88,0
70,70.61,70.88,0
70,70.60,70.87,0
70,70.59,70.86,0
70,70.58,70.85,0
70,70.56,70.84,0
70,70.55,70.83,0
70,70.54,70.82,0
70,70.53,70.82,0
70,70.52,70.81,0
70,70.51,70.80,0
70,70.50,70.79,0
71,70.51,70.79,0
69,70.48,70.78,0
70,70.47,70.77,0
70,70.46,70.76,0
70,70.45,70.75,0
71,70.46,70.76,0
69,70.43,70.74,0
68,70.38,70.71,0
69,70.36,70.69,0
69,70.33,70.68,0
70,70.32,70.67,0
70,70.32,70.66,0
68,70.27,70.64,0
70,70.26,70.63,0
70,70.26,70.62,0
70,70.25,70.62,0
69,70.23,70.60,0
69,70.20,70.59,0
69,70.18,70.57,0
70,70.18,70.56,0
70,70.17,70.56,0
70,70.17,70.55,0
69,70.15,70.54,0
68,70.10,70.51,0
70,70.10,70.51,0
69,70.08,70.49,0
70,70.08,70.49,0
70,70.08,70.48,0
70,70.07,70.48,0
70,70.07,70.47,0
70,70.07,70.47,0
70,70.07,70.46,0
69,70.05,70.45,0
69,70.03,70.43,0
68,69.99,70.41,0
69,69.97,70.40,0
69,69.95,70.38,0
69,69.93,70.37,0
70,69.93,70.36,0
68,69.89,70.34,0
69,69.87,70.33,0
70,69.88,70.32,0
70,69.88,70.32,0
69,69.86,70.31,0
69,69.84,70.29,0
70,69.85,70.29,0
70,69.85,70.29,0
70,69.85,70.29,0
71,69.88,70.29,0
69,69.86,70.28,0
68,69.82,70.26,0
70,69.83,70.25,0
69,69.81,70.24,0
69,69.79,70.23,0
70,69.80,70.23,0
68,69.76,70.20,0
69,69.75,70.19,0
70,69.75,70.19,0
70,69.76,70.19,0
70,69.76,70.19,0
69,69.75,70.18,0
67,69.69,70.14,0
68,69.66,70.12,0
70,69.66,70.12,0
69,69.65,70.11,0
70,69.66,70.11,0
68,69.62,70.09,0
68,69.59,70.07,0
68,69.56,70.05,0
69,69.55,70.04,0
69,69.54,70.02,0
69,69.53,70.01,0
68,69.50,69.99,0
68,69.47,69.97,0
68,69.44,69.95,0
69,69.43,69.95,0
68,69.40,69.93,0
68,69.37,69.91,0
68,69.34,69.89,0
68,69.32,69.87,0
69,69.31,69.86,0
69,69.30,69.85,0
68,69.28,69.83,0
68,69.25,69.81,0
69,69.25,69.81,0
69,69.24,69.80,0
68,69.22,69.78,0
68,69.19,69.76,0
68,69.17,69.74,0
68,69.15,69.73,0
68,69.12,69.71,0
68,69.10,69.69,0
69,69.10,69.69,0
68,69.08,69.67,0
68,69.06,69.65,0
68,69.03,69.64,0
69,69.03,69.63,0
69,69.03,69.62,0
68,69.01,69.61,0
67,68.97,69.58,0
67,68.93,69.56,0
68,68.91,69.54,0
68,68.90,69.52,0
68,68.88,69.51,0
71,68.92,69.52,0
68,68.90,69.51,0
68,68.88,69.49,0
68,68.87,69.48,0
68,68.85,69.46,0
68,68.83,69.45,0
67,68.80,69.42,0
67,68.76,69.40,0
68,68.74,69.39,0
69,68.75,69.38,0
68,68.73,69.37,0
66,68.68,69.34,0
68,68.67,69.32,0
68,68.65,69.31,0
68,68.64,69.30,0
66,68.59,69.26,0
68,68.58,69.25,0
68,68.56,69.24,0
67,68.53,69.22,0
66,68.48,69.18,0
69,68.49,69.18,0
68,68.48,69.17,0
67,68.45,69.15,0
66,68.40,69.12,0
68,68.40,69.11,0
68,68.39,69.09,0
67,68.36,69.07,0
68,68.35,69.06,0
68,68.35,69.05,0
68,68.34,69.04,0
67,68.31,69.02,0
68,68.31,69.01,0
69,68.32,69.01,0
67,68.29,68.99,0
68,68.29,68.98,0
66,68.24,68.95,0
68,68.24,68.94,0
67,68.21,68.92,0
67,68.19,68.90,0
68,68.18,68.89,0
68,68.18,68.88,0
67,68.16,68.87,0
68,68.15,68.86,0
66,68.11,68.83,0
67,68.09,68.81,0
67,68.07,68.79,0
68,68.07,68.78,0
68,68.06,68.78,0
68,68.06,68.77,0
66,68.02,68.74,0
66,67.98,68.71,0
68,67.98,68.71,0
68,67.98,68.70,0
68,67.98,68.69,0
70,68.02,68.71,0
68,68.02,68.70,0
71,68.08,68.72,0
68,68.08,68.71,0
66,68.04,68.69,0
66,68.00,68.66,0
67,67.98,68.64,0
68,67.98,68.64,0
68,67.98,68.63,0
68,67.98,68.62,0
68,67.98,68.62,0
70,68.02,68.63,0
68,68.02,68.63,0
67,68.00,68.61,0
68,68.00,68.60,0
67,67.98,68.59,0
66,67.94,68.56,0
67,67.92,68.55,0
63,67.82,68.49,0
70,67.87,68.51,0
68,67.87,68.50,0
66,67.83,68.48,0
67,67.81,68.46,0
66,67.78,68.44,0
67,67.76,68.42,0
67,67.75,68.41,0
68,67.75,68.40,0
69,67.78,68.41,0
66,67.74,68.39,0
66,67.71,68.36,0
67,67.69,68.35,0
69,67.72,68.35,0
67,67.70,68.34,0
66,67.67,68.32,0
69,67.70,68.32,0
68,67.70,68.32,0
66,67.67,68.30,0
67,67.66,68.28,0
69,67.68,68.29,0
67,67.67,68.28,0
67,67.66,68.27,0
66,67.62,68.24,0
66,67.59,68.22,0
67,67.58,68.21,0
66,67.55,68.19,0
66,67.52,68.16,0
66,67.49,68.14,0
67,67.48,68.13,0
66,67.45,68.11,0
66,67.42,68.09,0
66,67.39,68.07,0
67,67.38,68.06,0
66,67.35,68.04,0
66,67.33,68.02,0
67,67.32,68.01,0
67,67.31,68.00,0
66,67.29,67.98,0
66,67.26,67.96,0
66,67.24,67.94,0
67,67.23,67.93,0
66,67.21,67.91,0
66,67.18,67.89,0
68,67.20,67.89,0
68,67.22,67.89,0
66,67.19,67.87,0
66,67.17,67.85,0
66,67.14,67.84,0
67,67.14,67.83,0
66,67.12,67.81,0
66,67.10,67.79,0
65,67.05,67.76,0
66,67.03,67.75,0
66,67.01,67.73,0
66,66.99,67.71,0
67,66.99,67.70,0
66,66.97,67.69,0
66,66.95,67.67,0
66,66.93,67.65,0
66,66.91,67.64,0
66,66.90,67.62,0
66,66.88,67.60,0
66,66.86,67.59,0
66,66.84,67.57,0
66,66.83,67.56,0
66,66.81,67.54,0
68,66.83,67.55,0
68,66.86,67.55,0
66,66.84,67.53,0
66,66.82,67.52,0
66,66.81,67.50,0
65,66.77,67.48,0
66,66.76,67.46,0
66,66.74,67.45,0
66,66.73,67.43,0
65,66.69,67.41,0
66,66.68,67.40,0
65,66.64,67.37,0
66,66.63,67.36,0
66,66.62,67.35,0
66,66.61,67.33,0
66,66.59,67.32,0
66,66.58,67.31,0
66,66.57,67.29,0
66,66.56,67.28,0
65,66.53,67.26,0
64,66.48,67.22,0
65,66.45,67.20,0
66,66.44,67.19,0
65,66.41,67.17,0
66,66.40,67.16,0
66,66.39,67.14,0
66,66.39,67.13,0
66,66.38,67.12,0
65,66.35,67.10,0
66,66.34,67.09,0
68,66.38,67.10,0
65,66.35,67.08,0
65,66.32,67.06,0
66,66.32,67.05,0
65,66.29,67.03,0
64,66.24,67.00,0
65,66.22,66.98,0
65,66.19,66.96,0
67,66.21,66.96,0
66,66.21,66.95,0
68,66.24,66.96,0
65,66.22,66.94,0
65,66.19,66.92,0
64,66.15,66.89,0
65,66.13,66.87,0
65,66.10,66.85,0
68,66.14,66.86,0
65,66.12,66.84,0
65,66.10,66.83,0
67,66.11,66.83,0
65,66.09,66.81,0
66,66.09,66.80,0
64,66.05,66.77,0
64,66.01,66.75,0
67,66.03,66.75,0
66,66.03,66.74,0
64,65.99,66.71,0
64,65.95,66.69,0
65,65.93,66.67,0
66,65.93,66.66,0
64,65.89,66.64,0
65,65.87,66.62,0
65,65.86,66.60,0
64,65.82,66.58,0
64,65.78,66.55,0
65,65.77,66.54,0
65,65.75,66.52,0
64,65.72,66.50,0
64,65.68,66.47,0
64,65.65,66.45,0
65,65.63,66.43,0
64,65.60,66.41,0
64,65.57,66.38,0
64,65.54,66.36,0
65,65.53,66.35,0
64,65.50,66.32,0
64,65.47,66.30,0
65,65.46,66.29,0
65,65.45,66.27,0
64,65.42,66.25,0
64,65.39,66.23,0
65,65.38,66.22,0
64,65.36,66.19,0
65,65.35,66.18,0
64,65.32,66.16,0
66,65.34,66.16,0
64,65.31,66.14,0
66,65.32,66.14,0
64,65.30,66.11,0
66,65.31,66.11,0
64,65.28,66.09,0
64,65.26,66.07,0
66,65.27,66.07,0
65,65.27,66.06,0
66,65.28,66.06,0
64,65.26,66.04,0
64,65.23,66.02,0
64,65.21,66.00,0
66,65.22,66.00,0
64,65.20,65.98,0
64,65.17,65.96,0
65,65.17,65.95,0
65,65.17,65.94,0
64,65.14,65.92,0
64,65.12,65.90,0
65,65.12,65.89,0
64,65.10,65.87,0
64,65.07,65.85,0
64,65.05,65.83,0
65,65.05,65.83,0
65,65.05,65.82,0
64,65.03,65.80,0
65,65.03,65.79,0
65,65.03,65.78,0
64,65.01,65.77,0
64,64.99,65.75,0
66,65.01,65.75,0
64,64.99,65.73,0
64,64.97,65.72,0
65,64.97,65.71,0
66,64.99,65.71,0
64,64.97,65.70,0
64,64.95,65.68,0
64,64.93,65.66,0
64,64.91,65.64,0
64,64.89,65.63,0
64,64.88,65.61,0
64,64.86,65.60,0
64,64.84,65.58,0
64,64.83,65.56,0
67,64.87,65.58,0
64,64.85,65.56,0
64,64.83,65.55,0
64,64.82,65.53,0
63,64.78,65.51,0
64,64.77,65.49,0
64,64.75,65.48,0
64,64.74,65.46,0
66,64.76,65.47,0
64,64.75,65.45,0
64,64.73,65.44,0
64,64.72,65.42,0
64,64.70,65.41,0
64,64.69,65.40,0
64,64.67,65.38,0
63,64.64,65.36,0
64,64.63,65.34,0
68,64.69,65.37,0
64,64.68,65.36,0
64,64.67,65.34,0
65,64.67,65.34,0
64,64.66,65.33,0
64,64.65,65.31,0
64,64.63,65.30,0
64,64.62,65.29,0
66,64.65,65.29,0
64,64.64,65.28,0
65,64.64,65.28,0
65,64.65,65.28,0
64,64.64,65.26,0
64,64.62,65.25,0
64,64.61,65.24,0
64,64.60,65.23,0
64,64.59,65.21,0
64,64.58,65.20,0
65,64.58,65.20,0
64,64.57,65.19,0
64,64.56,65.17,0
64,64.55,65.16,0
64,64.54,65.15,0
64,64.53,65.14,0
64,64.52,65.13,0
64,64.51,65.12,0
64,64.50,65.11,0
64,64.49,65.10,0
64,64.48,65.08,0
62,64.43,65.05,0
64,64.42,65.04,0
64,64.41,65.03,0
64,64.40,65.02,0
64,64.40,65.01,0
64,64.39,65.00,0
63,64.36,64.98,0
62,64.31,64.95,0
62,64.27,64.92,0
63,64.24,64.90,0
64,64.24,64.89,0
64,64.23,64.89,0
64,64.23,64.88,0
64,64.22,64.87,0
64,64.22,64.86,0
64,64.21,64.85,0
64,64.21,64.84,0
63,64.18,64.82,0
63,64.16,64.81,0
62,64.12,64.78,0
64,64.12,64.77,0
64,64.11,64.76,0
63,64.09,64.74,0
62,64.05,64.72,0
62,64.01,64.69,0
63,63.99,64.67,0
63,63.97,64.66,0
62,63.93,64.63,0
63,63.91,64.61,0
64,63.91,64.61,0
65,63.93,64.61,0
62,63.90,64.58,0
64,63.90,64.58,0
64,63.90,64.57,0
62,63.86,64.55,0
64,63.86,64.54,0
64,63.87,64.54,0
64,63.87,64.53,0
64,63.87,64.53,0
63,63.85,64.51,0
64,63.86,64.51,0
63,63.84,64.49,0
64,63.84,64.49,0
64,63.85,64.48,0
64,63.85,64.48,0
63,63.83,64.46,0
63,63.82,64.45,0
64,63.82,64.44,0
64,63.82,64.44,0
64,63.83,64.43,0
63,63.81,64.42,0
64,63.81,64.41,0
64,63.82,64.41,0
64,63.82,64.41,0
64,63.83,64.40,0
64,63.83,64.40,0
63,63.81,64.38,0
64,63.82,64.38,0
64,63.82,64.38,0
64,63.82,64.37,0
64,63.83,64.37,0
63,63.81,64.36,0
63,63.79,64.34,0
64,63.80,64.34,0
64,63.80,64.34,0
64,63.81,64.33,0
65,63.83,64.34,0
64,63.83,64.34,0
64,63.84,64.33,0
64,63.84,64.33,0
64,63.84,64.33,0
64,63.85,64.32,0
64,63.85,64.32,0
63,63.83,64.31,0
64,63.84,64.30,0
64,63.84,64.30,0
64,63.84,64.30,0
65,63.87,64.30,0
63,63.85,64.29,0
64,63.85,64.29,0
64,63.85,64.28,0
61,63.80,64.25,0
64,63.80,64.25,0
63,63.79,64.24,0
63,63.77,64.22,0
64,63.77,64.22,0
66,63.82,64.24,0
64,63.82,64.24,0
62,63.79,64.22,0
63,63.77,64.20,0
64,63.77,64.20,0
64,63.78,64.20,0
64,63.78,64.20,0
63,63.77,64.19,0
64,63.77,64.18,0
64,63.78,64.18,0
64,63.78,64.18,0
64,63.79,64.18,0
63,63.77,64.17,0
63,63.75,64.15,0
62,63.72,64.13,0
64,63.73,64.13,0
64,63.73,64.13,0
63,63.72,64.12,0
62,63.68,64.10,0
62,63.65,64.08,0
63,63.64,64.07,0
64,63.64,64.07,0
64,63.65,64.06,0
64,63.66,64.06,0
59,63.56,64.01,0
62,63.53,63.99,0
62,63.50,63.97,0
64,63.51,63.97,0
63,63.50,63.96,0
64,63.51,63.96,0
64,63.52,63.96,0
62,63.49,63.94,0
63,63.48,63.94,0
62,63.45,63.92,0
62,63.42,63.90,0
64,63.43,63.90,0
63,63.43,63.89,0
62,63.40,63.87,0
64,63.41,63.87,0
63,63.40,63.86,0
62,63.37,63.84,0
62,63.35,63.83,0
63,63.34,63.82,0
63,63.33,63.81,0
64,63.34,63.81,0
62,63.32,63.79,0
62,63.29,63.78,0
63,63.29,63.77,0
62,63.26,63.75,0
62,63.23,63.73,0
62,63.21,63.71,0
63,63.21,63.71,0
62,63.18,63.69,0
62,63.16,63.67,0
62,63.13,63.66,0
63,63.13,63.65,0
64,63.15,63.65,0
62,63.13,63.64,0
64,63.14,63.64,0
63,63.14,63.63,0
62,63.12,63.62,0
61,63.08,63.59,0
62,63.05,63.58,0
62,63.03,63.56,0
63,63.03,63.55,0
64,63.05,63.56,0
64,63.07,63.56,0
63,63.07,63.56,0
64,63.09,63.56,0
62,63.07,63.55,0
62,63.05,63.53,0
63,63.04,63.53,0
66,63.10,63.55,0
64,63.12,63.56,0
62,63.10,63.54,0
61,63.06,63.51,0
64,63.08,63.52,0
64,63.09,63.52,0
62,63.07,63.51,0
62,63.05,63.49,0
64,63.07,63.50,0
64,63.09,63.50,0
62,63.07,63.49,0
64,63.09,63.49,0
61,63.04,63.47,0
64,63.06,63.47,0
62,63.04,63.46,0
62,63.02,63.44,0
63,63.02,63.44,0
62,63.00,63.43,0
62,62.98,63.41,0
62,62.96,63.40,0
64,62.98,63.40,0
62,62.96,63.39,0
62,62.94,63.38,0
61,62.90,63.35,0
63,62.91,63.35,0
62,62.89,63.33,0
62,62.87,63.32,0
63,62.87,63.32,0
62,62.85,63.31,0
62,62.84,63.29,0
62,62.82,63.28,0
62,62.80,63.27,0
63,62.81,63.26,0
62,62.79,63.25,0
62,62.78,63.24,0
63,62.78,63.24,0
63,62.79,63.23,0
62,62.77,63.22,0
62,62.75,63.21,0
64,62.78,63.22,0
62,62.76,63.20,0
62,62.75,63.19,0
61,62.71,63.17,0
63,62.72,63.17,0
62,62.70,63.16,0
62,62.69,63.15,0
62,62.68,63.13,0
64,62.70,63.14,0
62,62.69,63.13,0
62,62.68,63.12,0
62,62.66,63.11,0
62,62.65,63.10,0
62,62.64,63.09,0
62,62.62,63.08,0
62,62.61,63.07,0
62,62.60,63.05,0
62,62.59,63.04,0
62,62.57,63.03,0
62,62.56,63.02,0
62,62.55,63.01,0
63,62.56,63.01,0
62,62.55,63.00,0
62,62.54,62.99,0
62,62.53,62.98,0
62,62.52,62.97,0
62,62.51,62.96,0
62,62.50,62.95,0
59,62.43,62.91,0
62,62.42,62.91,0
62,62.41,62.90,0
62,62.40,62.89,0
61,62.37,62.87,0
62,62.37,62.86,0
62,62.36,62.85,0
62,62.35,62.84,0
62,62.34,62.83,0
62,62.34,62.83,0
62,62.33,62.82,0
62,62.32,62.81,0
62,62.32,62.80,0
62,62.31,62.79,0
61,62.29,62.78,0
62,62.28,62.77,0
62,62.27,62.76,0
62,62.27,62.75,0
63,62.28,62.75,0
62,62.28,62.75,0
62,62.27,62.74,0
62,62.27,62.73,0
62,62.26,62.73,0
61,62.24,62.71,0
62,62.23,62.70,0
62,62.23,62.69,0
62,62.22,62.69,0
62,62.22,62.68,0
62,62.21,62.67,0
63,62.23,62.68,0
62,62.22,62.67,0
62,62.22,62.66,0
62,62.22,62.66,0
62,62.21,62.65,0
62,62.21,62.64,0
62,62.20,62.64,0
62,62.20,62.63,0
61,62.17,62.61,0
62,62.17,62.61,0
61,62.15,62.59,0
62,62.15,62.59,0
61,62.12,62.57,0
62,62.12,62.56,0
62,62.12,62.56,0
62,62.11,62.55,0
63,62.13,62.56,0
62,62.13,62.55,0
62,62.13,62.55,0
61,62.10,62.53,0
61,62.08,62.52,0
62,62.08,62.51,0
62,62.08,62.51,0
61,62.06,62.49,0
62,62.06,62.49,0
62,62.06,62.48,0
62,62.05,62.48,0
61,62.03,62.46,0
62,62.03,62.46,0
61,62.01,62.44,0
61,61.99,62.43,0
61,61.97,62.41,0
62,61.97,62.41,0
62,61.97,62.41,0
62,61.97,62.40,0
61,61.95,62.39,0
61,61.94,62.37,0
61,61.92,62.36,0
62,61.92,62.36,0
62,61.92,62.35,0
61,61.90,62.34,0
62,61.90,62.34,0
62,61.91,62.33,0
61,61.89,62.32,0
62,61.89,62.32,0
62,61.89,62.31,0
62,61.89,62.31,0
62,61.90,62.31,0
62,61.90,62.30,0
62,61.90,62.30,0
62,61.90,62.30,0
62,61.90,62.29,0
61,61.89,62.28,0
60,61.85,62.26,0
62,61.85,62.26,0
61,61.83,62.24,0
62,61.84,62.24,0
62,61.84,62.24,0
60,61.80,62.22,0
61,61.79,62.20,0
62,61.79,62.20,0
62,61.80,62.20,0
60,61.76,62.18,0
62,61.77,62.18,0
62,61.77,62.17,0
60,61.73,62.15,0
62,61.74,62.15,0
61,61.73,62.14,0
60,61.69,62.12,0
60,61.66,62.10,0
64,61.70,62.12,0
61,61.69,62.10,0
62,61.70,62.10,0
60,61.66,62.08,0
62,61.67,62.08,0
61,61.66,62.07,0
60,61.62,62.05,0
60,61.59,62.03,0
62,61.60,62.03,0
61,61.59,62.02,0
60,61.55,62.00,0
60,61.52,61.98,0
62,61.53,61.98,0
61,61.52,61.97,0
60,61.49,61.95,0
60,61.46,61.93,0
59,61.41,61.90,0
61,61.40,61.89,0
63,61.44,61.90,0
62,61.45,61.90,0
61,61.44,61.89,0
61,61.43,61.89,0
60,61.40,61.87,0
60,61.37,61.85,0
61,61.37,61.84,0
60,61.34,61.82,0
62,61.35,61.82,0
60,61.32,61.81,0
60,61.30,61.79,0
61,61.29,61.78,0
61,61.29,61.77,0
62,61.30,61.77,0
60,61.27,61.76,0
61,61.27,61.75,0
63,61.30,61.76,0
60,61.28,61.74,0
60,61.25,61.73,0
61,61.25,61.72,0
61,61.24,61.71,0
60,61.22,61.69,0
61,61.21,61.69,0
61,61.21,61.68,0
60,61.18,61.66,0
60,61.16,61.65,0
61,61.16,61.64,0
60,61.13,61.62,0
61,61.13,61.62,0
60,61.11,61.60,0
60,61.09,61.59,0
60,61.07,61.57,0
62,61.08,61.57,0
62,61.10,61.58,0
60,61.08,61.56,0
61,61.08,61.56,0
62,61.10,61.56,0
60,61.08,61.55,0
60,61.05,61.53,0
61,61.05,61.53,0
60,61.03,61.51,0
60,61.01,61.49,0
60,60.99,61.48,0
60,60.97,61.46,0
61,60.97,61.46,0
60,60.95,61.45,0
60,60.93,61.43,0
59,60.89,61.41,0
61,60.90,61.40,0
60,60.88,61.39,0
60,60.86,61.37,0
60,60.84,61.36,0
60,60.83,61.35,0
60,60.81,61.33,0
60,60.79,61.32,0
61,60.80,61.32,0
60,60.78,61.30,0
60,60.77,61.29,0
60,60.75,61.28,0
62,60.78,61.29,0
61,60.78,61.28,0
60,60.77,61.27,0
60,60.75,61.26,0
61,60.75,61.25,0
61,60.76,61.25,0
60,60.74,61.24,0
60,60.73,61.23,0
62,60.76,61.23,0
60,60.74,61.22,0
60,60.73,61.21,0
60,60.71,61.20,0
62,60.74,61.21,0
60,60.72,61.19,0
60,60.71,61.18,0
62,60.73,61.19,0
61,60.74,61.19,0
60,60.72,61.18,0
60,60.71,61.16,0
60,60.70,61.15,0
61,60.70,61.15,0
60,60.69,61.14,0
61,60.69,61.14,0
62,60.72,61.15,0
59,60.69,61.13,0
62,60.71,61.13,0
62,60.74,61.14,0
60,60.72,61.13,0
61,60.73,61.13,0
60,60.71,61.12,0
60,60.70,61.11,0
62,60.73,61.12,0
61,60.73,61.12,0
60,60.72,61.10,0
62,60.74,61.11,0
60,60.73,61.10,0
61,60.73,61.10,0
60,60.72,61.09,0
63,60.76,61.11,0
60,60.75,61.10,0
60,60.73,61.09,0
60,60.72,61.08,0
60,60.70,61.07,0
60,60.69,61.06,0
61,60.70,61.05,0
60,60.68,61.04,0
60,60.67,61.03,0
60,60.66,61.02,0
61,60.66,61.02,0
63,60.71,61.04,0
60,60.69,61.03,0
60,60.68,61.02,0
60,60.67,61.01,0
61,60.67,61.01,0
59,60.64,60.99,0
60,60.63,60.98,0
60,60.62,60.97,0
60,60.60,60.96,0
60,60.59,60.95,0
60,60.58,60.94,0
60,60.57,60.93,0
61,60.58,60.93,0
60,60.56,60.92,0
59,60.53,60.91,0
61,60.54,60.91,0
61,60.55,60.91,0
60,60.54,60.90,0
60,60.53,60.89,0
60,60.52,60.88,0
60,60.51,60.87,0
60,60.50,60.86,0
60,60.49,60.85,0
60,60.48,60.85,0
60,60.47,60.84,0
60,60.46,60.83,0
60,60.45,60.82,0
61,60.46,60.82,0
60,60.45,60.81,0
60,60.44,60.81,0
60,60.43,60.80,0
60,60.43,60.79,0
60,60.42,60.78,0
59,60.39,60.76,0
58,60.34,60.74,0
59,60.31,60.72,0
60,60.31,60.71,0
59,60.28,60.70,0
60,60.28,60.69,0
61,60.29,60.69,0
59,60.27,60.67,0
59,60.24,60.66,0
60,60.23,60.65,0
61,60.25,60.65,0
60,60.25,60.65,0
59,60.22,60.63,0
58,60.18,60.61,0
60,60.17,60.60,0
60,60.17,60.59,0
59,60.15,60.58,0
60,60.14,60.57,0
59,60.12,60.56,0
59,60.10,60.54,0
58,60.06,60.51,0
60,60.05,60.51,0
60,60.05,60.50,0
59,60.03,60.49,0
58,59.99,60.46,0
60,59.99,60.46,0
60,59.99,60.46,0
59,59.97,60.44,0
60,59.97,60.44,0
60,59.97,60.43,0
60,59.97,60.43,0
59,59.95,60.41,0
58,59.92,60.39,0
60,59.92,60.39,0
60,59.92,60.38,0
59,59.90,60.37,0
58,59.86,60.34,0
60,59.86,60.34,0
60,59.87,60.34,0
60,59.87,60.33,0
58,59.83,60.31,0
60,59.84,60.31,0
59,59.82,60.29,0
60,59.82,60.29,0
62,59.87,60.31,0
60,59.87,60.31,0
59,59.85,60.29,0
60,59.85,60.29,0
60,59.86,60.29,0
60,59.86,60.28,0
59,59.84,60.27,0
58,59.81,60.25,0
58,59.77,60.23,0
60,59.78,60.22,0
59,59.76,60.21,0
60,59.76,60.21,0
60,59.77,60.21,0
59,59.75,60.19,0
59,59.74,60.18,0
59,59.72,60.17,0
60,59.73,60.17,0
60,59.73,60.17,0
59,59.72,60.16,0
59,59.71,60.14,0
60,59.71,60.14,0
59,59.70,60.13,0
59,59.68,60.12,0
60,59.69,60.12,0
60,59.70,60.12,0
58,59.66,60.10,0
59,59.65,60.09,0
65,59.76,60.13,0
59,59.74,60.12,0
60,59.75,60.12,0
59,59.73,60.11,0
59,59.72,60.10,0
58,59.68,60.08,0
60,59.69,60.08,0
58,59.65,60.06,0
60,59.66,60.06,0
58,59.63,60.04,0
59,59.62,60.03,0
60,59.62,60.03,0
59,59.61,60.02,0
60,59.62,60.02,0
58,59.59,60.00,0
60,59.59,60.00,0
57,59.54,59.97,0
60,59.55,59.97,0
60,59.56,59.97,0
59,59.55,59.96,0
58,59.52,59.94,0
59,59.51,59.93,0
59,59.50,59.92,0
59,59.49,59.91,0
60,59.50,59.91,0
58,59.47,59.89,0
58,59.44,59.87,0
60,59.45,59.87,0
58,59.42,59.85,0
58,59.39,59.84,0
58,59.36,59.82,0
60,59.38,59.82,0
60,59.39,59.82,0
60,59.40,59.82,0
58,59.37,59.80,0
59,59.37,59.80,0
60,59.38,59.80,0
59,59.37,59.79,0
60,59.38,59.79,0
60,59.40,59.79,0
60,59.41,59.80,0
59,59.40,59.79,0
58,59.37,59.77,0
60,59.39,59.77,0
60,59.40,59.78,0
58,59.37,59.76,0
60,59.38,59.76,0
60,59.39,59.76,0
59,59.39,59.75,0
58,59.36,59.74,0
60,59.37,59.74,0
60,59.38,59.74,0
60,59.40,59.75,0
58,59.37,59.73,0
60,59.38,59.73,0
60,59.39,59.73,0
59,59.39,59.73,0
58,59.36,59.71,0
61,59.39,59.72,0
60,59.40,59.72,0
60,59.42,59.73,0
58,59.39,59.71,0
60,59.40,59.71,0
60,59.41,59.72,0
60,59.42,59.72,0
62,59.47,59.74,0
62,59.52,59.76,0
60,59.53,59.77,0
59,59.52,59.76,0
60,59.53,59.76,0
58,59.50,59.74,0
59,59.49,59.74,0
59,59.48,59.73,0
61,59.51,59.74,0
60,59.52,59.74,0
60,59.53,59.75,0
62,59.58,59.77,0
60,59.59,59.77,0
60,59.60,59.77,0
59,59.59,59.77,0
62,59.63,59.79,0
61,59.66,59.80,0
61,59.69,59.81,0
61,59.71,59.82,0
62,59.76,59.85,0
61,59.79,59.86,0
61,59.81,59.87,0
60,59.81,59.87,0
60,59.82,59.87,0
61,59.84,59.88,0
61,59.86,59.89,0
61,59.89,59.90,0
61,59.91,59.92,0
62,59.95,59.94,0
61,59.97,59.95,0
62,60.01,59.97,0
61,60.03,59.98,0
62,60.07,60.00,0
61,60.09,60.01,0
61,60.11,60.02,0
63,60.17,60.05,0
62,60.20,60.07,0
62,60.24,60.09,0
62,60.27,60.11,0
61,60.29,60.12,0
60,60.28,60.11,0
62,60.32,60.13,0
62,60.35,60.15,0
64,60.42,60.19,0
62,60.46,60.21,0
62,60.49,60.23,0
62,60.52,60.24,0
62,60.55,60.26,0
62,60.58,60.28,0
62,60.60,60.30,0
67,60.73,60.36,0
61,60.74,60.37,0
62,60.76,60.39,0
62,60.79,60.40,0
64,60.85,60.44,0
62,60.87,60.45,0
62,60.90,60.47,0
62,60.92,60.48,0
63,60.96,60.51,0
63,61.00,60.53,0
62,61.02,60.55,0
62,61.04,60.56,0
63,61.08,60.59,0
63,61.12,60.61,0
62,61.14,60.63,0
62,61.15,60.64,0
60,61.13,60.63,0
64,61.19,60.67,0
63,61.22,60.69,0
64,61.28,60.72,0
64,61.33,60.76,0
66,61.43,60.81,0
64,61.48,60.84,0
64,61.53,60.87,0
64,61.58,60.90,0
64,61.63,60.93,0
64,61.67,60.96,0
62,61.68,60.98,0
65,61.75,61.02,0
64,61.79,61.05,0
64,61.84,61.07,0
64,61.88,61.10,0
65,61.94,61.14,0
64,61.98,61.17,0
64,62.02,61.20,0
64,62.06,61.23,0
64,62.10,61.26,0
65,62.16,61.29,0
64,62.20,61.32,0
64,62.23,61.35,0
64,62.27,61.37,0
66,62.34,61.42,0
62,62.34,61.43,0
64,62.37,61.45,0
63,62.38,61.47,0
63,62.39,61.48,0
64,62.43,61.51,0
64,62.46,61.53,0
64,62.49,61.56,0
66,62.56,61.60,0
62,62.55,61.61,0
64,62.58,61.63,0
64,62.61,61.65,0
64,62.63,61.68,0
64,62.66,61.70,0
66,62.73,61.74,0
65,62.77,61.78,0
64,62.80,61.80,0
64,62.82,61.82,0
64,62.84,61.84,0
65,62.89,61.87,0
64,62.91,61.89,0
64,62.93,61.92,0
64,62.95,61.94,0
63,62.95,61.95,0
66,63.02,61.99,0
65,63.05,62.02,0
65,63.09,62.05,0
63,63.09,62.06,0
64,63.11,62.08,0
65,63.15,62.11,0
66,63.20,62.14,0
67,63.28,62.19,0
68,63.38,62.25,0
66,63.43,62.29,0
66,63.48,62.33,0
66,63.53,62.36,0
68,63.62,62.42,0
65,63.65,62.44,0
65,63.67,62.47,0
66,63.72,62.51,0
67,63.79,62.55,0
68,63.87,62.60,0
67,63.93,62.65,0
67,63.99,62.69,0
69,64.09,62.76,0
68,64.17,62.81,0
68,64.25,62.86,0
67,64.30,62.90,0
69,64.40,62.96,0
68,64.47,63.01,0
68,64.54,63.06,0
66,64.57,63.09,0
68,64.64,63.14,0
68,64.71,63.19,0
67,64.75,63.23,0
66,64.78,63.26,0
67,64.82,63.29,0
66,64.84,63.32,0
66,64.87,63.35,0
66,64.89,63.37,0
68,64.95,63.42,0
66,64.97,63.45,0
66,64.99,63.47,0
68,65.05,63.52,0
68,65.11,63.56,0
67,65.15,63.60,0
66,65.17,63.62,0
67,65.20,63.65,0
68,65.26,63.70,0
67,65.29,63.73,0
66,65.31,63.75,0
67,65.34,63.78,0
68,65.40,63.83,0
67,65.43,63.86,0
70,65.52,63.92,0
68,65.57,63.96,0
67,65.60,63.99,0
66,65.61,64.01,0
66,65.61,64.03,0
68,65.66,64.07,0
68,65.71,64.11,0
66,65.71,64.13,0
63,65.66,64.12,0
66,65.67,64.14,0
66,65.67,64.16,0
67,65.70,64.18,0
66,65.71,64.20,0
65,65.69,64.21,0
66,65.70,64.23,0
66,65.70,64.25,0
64,65.67,64.24,0
66,65.68,64.26,0
66,65.68,64.28,0
66,65.69,64.30,0
66,65.70,64.31,0
67,65.72,64.34,0
67,65.75,64.37,0
66,65.75,64.38,0
68,65.80,64.42,0
66,65.80,64.43,0
66,65.81,64.45,0
66,65.81,64.47,0
66,65.81,64.48,0
66,65.82,64.50,0
66,65.82,64.51,0
66,65.82,64.53,0
66,65.83,64.54,0
65,65.81,64.55,0
65,65.79,64.55,0
66,65.80,64.56,0
66,65.80,64.58,0
65,65.79,64.58,0
68,65.83,64.62,0
66,65.83,64.63,0
66,65.84,64.64,0
66,65.84,64.66,0
66,65.84,64.67,0
65,65.83,64.67,0
66,65.83,64.69,0
65,65.81,64.69,0
64,65.78,64.68,0
65,65.76,64.69,0
65,65.75,64.69,0
65,65.73,64.69,0
68,65.78,64.73,0
64,65.74,64.72,0
65,65.73,64.72,0
65,65.71,64.72,0
67,65.74,64.75,0
64,65.70,64.74,0
65,65.69,64.74,0
64,65.66,64.74,0
64,65.62,64.73,0
64,65.59,64.72,0
64,65.56,64.71,0
63,65.51,64.70,0
64,65.48,64.69,0
66,65.49,64.70,0
64,65.46,64.70,0
64,65.43,64.69,0
65,65.42,64.69,0
64,65.39,64.68,0
64,65.36,64.68,0
65,65.36,64.68,0
64,65.33,64.67,0
65,65.32,64.68,0
64,65.30,64.67,0
64,65.27,64.66,0
65,65.26,64.67,0
64,65.24,64.66,0
64,65.21,64.65,0
64,65.19,64.65,0
64,65.17,64.64,0
64,65.14,64.63,0
64,65.12,64.63,0
65,65.12,64.63,0
65,65.12,64.64,0
64,65.09,64.63,0
64,65.07,64.62,0
65,65.07,64.63,0
65,65.07,64.63,0
65,65.07,64.63,0
64,65.05,64.63,0
66,65.07,64.64,0
66,65.08,64.66,0
68,65.14,64.69,0
66,65.16,64.70,0
68,65.22,64.73,0
67,65.25,64.76,0
67,65.29,64.78,0
68,65.34,64.81,0
68,65.39,64.84,0
67,65.43,64.87,0
68,65.48,64.90,0
66,65.49,64.91,0
69,65.56,64.95,0
69,65.63,64.99,0
68,65.67,65.02,0
68,65.72,65.05,0
68,65.77,65.08,0
69,65.83,65.12,0
70,65.91,65.17,0
70,66.00,65.22,0
71,66.10,65.27,0
71,66.19,65.33,0
70,66.27,65.38,0
70,66.35,65.42,0
70,66.42,65.47,0
70,66.49,65.51,0
72,66.60,65.58,0
70,66.67,65.62,0
70,66.73,65.67,0
71,66.82,65.72,0
70,66.88,65.76,0
70,66.95,65.81,0
70,67.01,65.85,0
70,67.07,65.89,0
71,67.15,65.94,0
71,67.22,65.99,0
71,67.30,66.04,0
70,67.35,66.08,0
70,67.41,66.12,0
70,67.46,66.16,0
72,67.55,66.22,0
70,67.60,66.25,0
68,67.61,66.27,0
72,67.69,66.33,0
70,67.74,66.37,0
70,67.78,66.40,0
70,67.83,66.44,0
71,67.89,66.48,0
70,67.93,66.52,0
72,68.02,66.57,0
70,68.06,66.61,0
70,68.09,66.64,0
71,68.15,66.69,0
70,68.19,66.72,0
69,68.21,66.74,0
70,68.24,66.77,0
70,68.28,66.81,0
72,68.35,66.86,0
69,68.36,66.88,0
70,68.40,66.91,0
70,68.43,66.94,0
70,68.46,66.97,0
71,68.51,67.01,0
69,68.52,67.03,0
69,68.53,67.05,0
69,68.54,67.07,0
69,68.55,67.09,0
69,68.56,67.11,0
70,68.59,67.14,0
69,68.60,67.16,0
70,68.62,67.19,0
69,68.63,67.20,0
70,68.66,67.23,0
72,68.73,67.28,0
70,68.75,67.31,0
70,68.78,67.33,0
71,68.82,67.37,0
72,68.88,67.42,0
70,68.91,67.44,0
70,68.93,67.47,0
70,68.95,67.49,0
71,68.99,67.53,0
70,69.01,67.55,0
69,69.01,67.57,0
70,69.03,67.59,0
73,69.11,67.65,0
73,69.19,67.70,0
72,69.24,67.74,0
70,69.26,67.77,0
72,69.31,67.81,0
73,69.39,67.86,0
72,69.44,67.90,0
72,69.49,67.94,0
72,69.54,67.98,0
73,69.61,68.03,0
74,69.70,68.09,0
74,69.78,68.15,0
73,69.85,68.20,0
73,69.91,68.25,0
72,69.95,68.29,0
73,70.01,68.33,0
73,70.07,68.38,0
73,70.13,68.43,0
72,70.17,68.46,0
75,70.27,68.53,0
73,70.32,68.57,0
72,70.35,68.61,0
74,70.43,68.66,0
74,70.50,68.71,0
74,70.57,68.77,0
74,70.64,68.82,0
74,70.70,68.87,0
74,70.77,68.92,0
74,70.84,68.97,0
74,70.90,69.02,0
74,70.96,69.07,0
73,71.00,69.11,0
75,71.08,69.17,0
74,71.14,69.22,0
74,71.20,69.27,0
74,71.25,69.31,0
75,71.33,69.37,0
74,71.38,69.42,0
74,71.43,69.46,0
74,71.49,69.51,0
75,71.56,69.56,0
74,71.60,69.61,0
74,71.65,69.65,0
75,71.72,69.70,0
75,71.78,69.76,0
74,71.83,69.80,0
74,71.87,69.84,0
76,71.96,69.90,0
78,72.08,69.98,0
78,72.19,70.07,0
76,72.27,70.12,0
77,72.37,70.19,0
80,72.52,70.29,0
78,72.63,70.37,0
78,72.73,70.44,0
77,72.82,70.51,0
80,72.96,70.61,0
82,73.14,70.72,0
82,73.32,70.83,0
79,73.44,70.91,0
82,73.61,71.02,0
84,73.81,71.15,0
84,74.02,71.28,0
83,74.20,71.40,0
82,74.35,71.51,0
82,74.51,71.61,0
82,74.66,71.71,0
83,74.82,71.83,0
82,74.97,71.93,0
84,75.15,72.05,0
84,75.32,72.17,0
83,75.48,72.28,0
81,75.59,72.36,0
84,75.76,72.48,0
84,75.92,72.60,0
83,76.06,72.70,0
86,76.26,72.83,0
84,76.42,72.95,0
84,76.57,73.06,0
86,76.76,73.19,0
84,76.90,73.29,0
87,77.10,73.43,0
88,77.32,73.58,0
85,77.48,73.69,0
87,77.67,73.82,0
86,77.83,73.95,0
89,78.06,74.10,0
92,78.33,74.27,0
93,78.63,74.46,0
96,78.98,74.68,0
92,79.24,74.85,0
92,79.49,75.02,0
93,79.76,75.20,0
96,80.09,75.41,0
98,80.44,75.64,0
100,80.84,75.88,0
96,81.14,76.08,0
99,81.50,76.31,0
98,81.83,76.53,0
98,82.15,76.74,0
98,82.47,76.95,0
98,82.78,77.16,0
97,83.06,77.36,0
98,83.36,77.57,0
98,83.65,77.77,0
100,83.98,78.00,0
99,84.28,78.21,0
99,84.58,78.41,0
99,84.86,78.62,0
100,85.17,78.83,0
99,85.44,79.04,0
100,85.73,79.24,0
101,86.04,79.46,0
102,86.36,79.69,0
101,86.65,79.90,0
103,86.98,80.13,0
105,87.34,80.38,0
108,87.75,80.66,0
102,88.04,80.87,0
103,88.34,81.09,0
103,88.63,81.31,0
103,88.92,81.53,0
102,89.18,81.73,0
105,89.50,81.96,0
104,89.79,82.19,0
105,90.09,82.41,0
105,90.39,82.64,0
106,90.70,82.87,0
105,90.99,83.09,0
105,91.27,83.31,0
104,91.52,83.52,0
105,91.79,83.73,0
107,92.09,83.97,0
106,92.37,84.19,0
105,92.63,84.40,0
109,92.95,84.64,0
109,93.27,84.89,0
107,93.55,85.11,0
108,93.84,85.34,0
107,94.10,85.55,0
109,94.40,85.79,0
111,94.73,86.04,0
109,95.02,86.27,0
108,95.28,86.49,0
109,95.55,86.71,0
108,95.80,86.92,0
108,96.04,87.13,0
109,96.30,87.35,0
113,96.64,87.61,0
111,96.92,87.84,0
110,97.19,88.07,0
109,97.42,88.27,0
109,97.65,88.48,0
113,97.96,88.73,0
111,98.22,88.95,0
117,98.60,89.23,0
116,98.94,89.50,0
116,99.29,89.76,0
118,99.66,90.05,0
116,99.99,90.30,0
117,100.33,90.57,0
118,100.68,90.85,0
119,101.05,91.13,0
120,101.43,91.42,0
116,101.72,91.66,0
119,102.06,91.94,0
118,102.38,92.20,0
118,102.69,92.45,0
122,103.08,92.75,0
119,103.40,93.01,0
120,103.73,93.28,0
122,104.10,93.57,0
124,104.49,93.87,0
120,104.80,94.13,0
122,105.15,94.41,0
120,105.45,94.67,0
120,105.74,94.92,0
120,106.02,95.17,0
120,106.30,95.42,0
121,106.60,95.68,0
120,106.86,95.92,0
121,107.15,96.17,0
126,107.52,96.47,0
128,107.93,96.79,0
124,108.25,97.06,0
124,108.57,97.33,0
125,108.90,97.60,0
130,109.32,97.93,0
130,109.73,98.25,0
129,110.12,98.56,0
128,110.48,98.85,0
128,110.83,99.14,0
128,111.17,99.43,0
128,111.51,99.72,0
128,111.84,100.00,0
131,112.22,100.31,0
131,112.60,100.62,0
135,113.04,100.96,0
135,113.48,101.30,0
133,113.87,101.62,0
135,114.30,101.95,0
139,114.79,102.32,0
137,115.23,102.67,0
136,115.65,103.00,0
138,116.10,103.35,0
137,116.51,103.69,0
137,116.92,104.02,0
137,117.33,104.35,0
137,117.72,104.68,0
137,118.10,105.00,0
137,118.48,105.32,0
139,118.89,105.66,0
138,119.27,105.98,0
145,119.79,106.37,0
147,120.33,106.78,0
143,120.79,107.14,0
141,121.19,107.48,0
141,121.59,107.81,0
150,122.16,108.24,0
151,122.73,108.66,0
151,123.30,109.09,0
153,123.89,109.53,0
149,124.39,109.92,0
151,124.93,110.33,0
157,125.57,110.80,0
157,126.20,111.26,0
153,126.73,111.68,0
158,127.36,112.14,0
161,128.03,112.63,0
159,128.65,113.09,0
160,129.28,113.56,0
157,129.83,114.00,0
161,130.45,114.47,0
164,131.13,114.96,0
168,131.86,115.49,0
165,132.53,115.99,0
167,133.22,116.50,0
171,133.97,117.04,0
171,134.71,117.58,0
168,135.38,118.09,0
168,136.03,118.58,0
169,136.69,119.09,0
169,137.34,119.59,0
167,137.93,120.06,0
175,138.67,120.61,0
178,139.46,121.19,0
176,140.19,121.73,0
178,140.94,122.30,0
178,141.69,122.85,0
182,142.49,123.44,0
185,143.34,124.06,0
186,144.19,124.68,0
184,144.99,125.27,0
181,145.71,125.83,0
185,146.50,126.42,0
189,147.35,127.05,0
189,148.18,127.67,0
189,149.00,128.28,0
189,149.80,128.89,0
189,150.58,129.49,0
187,151.31,130.06,0
187,152.02,130.63,0
193,152.84,131.26,0
192,153.63,131.86,0
190,154.35,132.45,0
191,155.09,133.03,0
193,155.84,133.63,0
193,156.59,134.22,0
192,157.30,134.80,0
194,158.03,135.39,0
195,158.77,135.99,0
195,159.49,136.58,0
193,160.16,137.14,0
193,160.82,137.70,0
191,161.42,138.24,0
193,162.06,138.78,0
192,162.65,139.32,0
192,163.24,139.84,0
192,163.82,140.36,0
191,164.36,140.87,0
191,164.89,141.37,0
190,165.40,141.86,0
192,165.93,142.36,0
191,166.43,142.85,0
195,167.00,143.37,0
195,167.56,143.88,0
193,168.07,144.38,0
193,168.57,144.86,0
197,169.14,145.38,0
198,169.71,145.91,0
196,170.24,146.41,0
199,170.81,146.94,0
200,171.40,147.47,0
201,171.99,148.00,0
199,172.53,148.51,0
199,173.06,149.02,0
201,173.62,149.54,0
205,174.25,150.09,0
204,174.84,150.63,0
203,175.40,151.15,0
201,175.92,151.65,0
201,176.42,152.15,0
202,176.93,152.64,0
201,177.41,153.13,0
201,177.88,153.61,0
201,178.35,154.08,0
201,178.80,154.55,0
201,179.24,155.01,0
200,179.66,155.46,0
200,180.06,155.91,0
199,180.44,156.34,0
199,180.81,156.77,0
199,181.18,157.19,0
202,181.59,157.64,0
197,181.90,158.03,0
197,182.20,158.42,0
198,182.52,158.82,0
198,182.83,159.21,0
197,183.11,159.59,0
197,183.39,159.96,0
197,183.66,160.33,0
197,183.93,160.70,0
197,184.19,161.06,0
197,184.45,161.42,0
196,184.68,161.77,0
195,184.89,162.10,0
197,185.13,162.45,0
195,185.32,162.77,0
197,185.56,163.11,0
195,185.75,163.43,0
195,185.93,163.75,0
196,186.13,164.07,0
194,186.29,164.37,0
195,186.47,164.68,0
197,186.68,165.00,0
195,186.84,165.30,0
193,186.97,165.58,0
194,187.11,165.86,0
193,187.22,166.13,0
194,187.36,166.41,0
193,187.47,166.68,0
193,187.58,166.94,0
192,187.67,167.19,0
192,187.76,167.44,0
191,187.82,167.68,0
192,187.91,167.92,0
191,187.97,168.15,0
191,188.03,168.38,0
192,188.11,168.61,0
192,188.19,168.85,0
190,188.22,169.06,0
190,188.26,169.27,0
191,188.31,169.49,0
191,188.37,169.70,0
192,188.44,169.92,0
190,188.47,170.13,0
190,188.50,170.32,0
190,188.53,170.52,0
191,188.58,170.73,0
189,188.59,170.91,0
189,188.60,171.09,0
189,188.61,171.27,0
189,188.61,171.45,0
188,188.60,171.61,0
188,188.59,171.77,0
187,188.56,171.93,0
187,188.53,172.08,0
187,188.50,172.23,0
190,188.53,172.40,0
187,188.49,172.55,0
185,188.43,172.68,0
186,188.38,172.81,0
186,188.33,172.94,0
185,188.26,173.06,0
185,188.20,173.18,0
184,188.11,173.29,0
184,188.03,173.40,0
185,187.97,173.51,0
183,187.87,173.61,0
183,187.77,173.70,0
183,187.68,173.79,0
183,187.58,173.89,0
183,187.49,173.98,0
182,187.38,174.06,0
179,187.22,174.11,0
181,187.09,174.18,0
182,186.99,174.25,0
182,186.89,174.33,0
181,186.77,174.40,0
182,186.68,174.47,0
181,186.56,174.54,0
181,186.45,174.60,0
181,186.34,174.67,0
180,186.22,174.72,0
182,186.13,174.79,0
180,186.01,174.85,0
181,185.91,174.91,0
179,185.77,174.95,0
179,185.63,174.99,0
179,185.50,175.03,0
179,185.37,175.07,0
177,185.20,175.09,0
178,185.06,175.12,0
178,184.92,175.15,0
178,184.78,175.17,0
177,184.63,175.19,0
177,184.47,175.21,0
176,184.30,175.22,0
176,184.14,175.23,0
177,183.99,175.24,0
175,183.81,175.24,0
175,183.64,175.24,0
175,183.47,175.24,0
176,183.32,175.24,0
175,183.15,175.24,0
175,182.99,175.24,0
173,182.79,175.22,0
173,182.59,175.20,0
173,182.40,175.17,0
173,182.21,175.15,0
173,182.03,175.13,0
172,181.83,175.10,0
173,181.65,175.08,0
172,181.46,175.05,0
172,181.27,175.02,0
171,181.06,174.98,0
171,180.86,174.94,0
171,180.66,174.90,0
171,180.47,174.86,0
170,180.26,174.81,0
169,180.04,174.75,0
169,179.82,174.69,0
169,179.60,174.64,0
169,179.39,174.58,0
169,179.18,174.53,0
169,178.98,174.47,0
167,178.74,174.40,0
168,178.52,174.33,0
167,178.29,174.26,0
165,178.03,174.17,0
167,177.81,174.09,0
168,177.61,174.03,0
167,177.40,173.96,0
167,177.19,173.89,0
166,176.97,173.81,0
167,176.77,173.75,0
165,176.53,173.66,0
167,176.34,173.59,0
165,176.11,173.51,0
164,175.87,173.41,0
165,175.65,173.33,0
164,175.42,173.23,0
165,175.21,173.15,0
164,174.99,173.06,0
163,174.75,172.96,0
163,174.51,172.86,0
163,174.28,172.76,0
163,174.06,172.66,0
164,173.86,172.58,0
163,173.64,172.48,0
162,173.41,172.38,0
162,173.18,172.27,0
162,172.95,172.17,0
161,172.72,172.06,0
162,172.50,171.96,0
161,172.27,171.85,0
161,172.05,171.74,0
161,171.82,171.63,0
160,171.59,171.52,1
160,171.36,171.40,1
160,171.13,171.29,1
160,170.91,171.17,1
160,170.69,171.06,1
160,170.47,170.95,1
159,170.25,170.83,1
160,170.04,170.72,1
159,169.82,170.61,1
159,169.60,170.49,1
155,169.31,170.33,1
159,169.10,170.22,1
157,168.86,170.09,1
157,168.63,169.96,1
157,168.39,169.83,1
157,168.17,169.70,1
157,167.94,169.57,1
156,167.70,169.44,1
156,167.47,169.30,1
156,167.24,169.17,1
156,167.01,169.04,1
155,166.77,168.90,1
156,166.56,168.77,1
155,166.33,168.63,1
155,166.10,168.50,1
155,165.88,168.36,1
155,165.66,168.23,1
154,165.43,168.08,1
156,165.24,167.96,1
153,165.00,167.81,1
153,164.76,167.67,1
154,164.54,167.53,1
153,164.31,167.38,1
153,164.08,167.24,1
153,163.86,167.10,1
153,163.64,166.96,1
152,163.41,166.81,1
153,163.20,166.67,1
153,163.00,166.53,1
152,162.78,166.39,1
151,162.54,166.23,1
151,162.31,166.08,1
151,162.09,165.93,1
152,161.88,165.79,1
151,161.67,165.64,1
151,161.45,165.50,1
149,161.20,165.33,1
151,161.00,165.19,1
150,160.78,165.04,1
153,160.62,164.92,1
149,160.39,164.76,1
149,160.16,164.60,1
150,159.96,164.45,1
149,159.74,164.30,1
149,159.53,164.15,1
149,159.32,163.99,1
149,159.11,163.84,1
149,158.91,163.70,1
149,158.71,163.55,1
147,158.48,163.38,1
149,158.29,163.24,1
148,158.08,163.09,1
147,157.86,162.93,1
147,157.64,162.77,1
147,157.43,162.61,1
146,157.20,162.44,1
148,157.02,162.30,1
148,156.84,162.16,1
147,156.64,162.00,1
149,156.49,161.87,1
149,156.34,161.75,1
150,156.21,161.63,1
148,156.05,161.49,1
148,155.88,161.36,1
147,155.71,161.21,1
147,155.53,161.07,1
147,155.36,160.93,1
148,155.22,160.80,1
145,155.01,160.64,1
146,154.83,160.50,1
146,154.65,160.35,1
147,154.50,160.22,1
145,154.31,160.07,1
145,154.12,159.92,1
145,153.94,159.77,1
145,153.76,159.62,1
145,153.59,159.47,1
145,153.42,159.33,1
145,153.25,159.18,1
145,153.08,159.04,1
145,152.92,158.90,1
144,152.74,158.75,1
145,152.59,158.62,1
144,152.42,158.47,1
145,152.27,158.33,1
144,152.10,158.19,1
144,151.94,158.05,1
143,151.76,157.90,1
144,151.61,157.76,1
143,151.43,157.61,1
144,151.29,157.48,1
143,151.12,157.33,1
143,150.96,157.19,1
143,150.80,157.05,1
143,150.64,156.91,1
143,150.49,156.77,1
142,150.32,156.62,1
141,150.13,156.46,1
141,149.95,156.31,1
141,149.77,156.16,1
141,149.60,156.00,1
141,149.42,155.85,1
141,149.26,155.71,1
142,149.11,155.57,1
141,148.95,155.42,1
141,148.79,155.28,1
141,148.63,155.14,1
142,148.50,155.00,1
141,148.35,154.86,1
141,148.20,154.73,1
141,148.06,154.59,1
141,147.92,154.45,1
141,147.78,154.32,1
140,147.63,154.17,1
141,147.49,154.04,1
139,147.32,153.89,1
140,147.18,153.75,1
142,147.07,153.64,1
139,146.91,153.49,1
139,146.75,153.34,1
140,146.62,153.21,1
139,146.47,153.07,1
138,146.30,152.92,1
137,146.11,152.76,1
139,145.97,152.62,1
139,145.83,152.49,1
138,145.67,152.34,1
137,145.50,152.19,1
138,145.35,152.05,1
137,145.18,151.89,1
137,145.02,151.75,1
139,144.90,151.62,1
137,144.74,151.47,1
138,144.61,151.34,1
137,144.45,151.19,1
138,144.32,151.06,1
137,144.18,150.92,1
137,144.03,150.78,1
136,143.87,150.63,1
136,143.72,150.49,1
136,143.56,150.34,1
136,143.41,150.20,1
136,143.26,150.06,1
135,143.10,149.91,1
135,142.93,149.76,1
136,142.80,149.62,1
135,142.64,149.47,1
135,142.49,149.33,1
135,142.34,149.19,1
133,142.15,149.02,1
134,141.99,148.87,1
135,141.85,148.74,1
136,141.73,148.61,1
133,141.56,148.45,1
134,141.41,148.31,1
133,141.24,148.15,1
134,141.09,148.01,1
133,140.93,147.86,1
134,140.79,147.72,1
133,140.64,147.58,1
133,140.48,147.43,1
133,140.33,147.29,1
133,140.19,147.14,1
131,140.00,146.98,1
132,139.84,146.83,1
132,139.69,146.68,1
132,139.53,146.54,1
132,139.38,146.39,1
131,139.21,146.24,1
132,139.07,146.10,1
131,138.91,145.95,1
131,138.75,145.80,1
131,138.60,145.65,1
130,138.42,145.49,1
131,138.28,145.35,1
130,138.11,145.19,1
129,137.93,145.03,1
131,137.79,144.89,1
132,137.67,144.76,1
129,137.50,144.60,1
130,137.35,144.46,1
130,137.20,144.31,1
131,137.08,144.18,1
130,136.94,144.04,1
130,136.80,143.90,1
129,136.64,143.75,1
129,136.49,143.60,1
129,136.34,143.46,1
131,136.23,143.33,1
129,136.09,143.19,1
129,135.95,143.05,1
129,135.81,142.91,1
129,135.67,142.77,1
129,135.54,142.63,1
129,135.41,142.49,1
129,135.28,142.36,1
129,135.15,142.22,1
127,134.99,142.07,1
128,134.85,141.93,1
128,134.71,141.79,1
128,134.58,141.65,1
127,134.43,141.51,1
127,134.28,141.36,1
128,134.15,141.23,1
125,133.97,141.07,1
128,133.85,140.94,1
127,133.71,140.80,1
127,133.58,140.66,1
127,133.45,140.52,1
127,133.32,140.39,1
127,133.19,140.25,1
126,133.05,140.11,1
127,132.93,139.98,1
126,132.79,139.84,1
126,132.65,139.70,1
126,132.52,139.56,1
125,132.37,139.42,1
125,132.22,139.27,1
125,132.08,139.13,1
125,131.94,138.99,1
124,131.78,138.84,1
125,131.64,138.70,1
126,131.53,138.57,1
124,131.38,138.43,1
124,131.23,138.28,1
126,131.13,138.16,1
125,131.00,138.03,1
124,130.86,137.89,1
123,130.71,137.74,1
124,130.57,137.60,1
124,130.44,137.47,1
124,130.31,137.33,1
123,130.17,137.19,1
124,130.04,137.06,1
123,129.90,136.92,1
124,129.78,136.79,1
123,129.65,136.65,1
122,129.50,136.50,1
124,129.39,136.38,1
123,129.26,136.24,1
122,129.11,136.10,1
121,128.95,135.95,1
121,128.79,135.80,1
123,128.68,135.67,1
123,128.56,135.55,1
121,128.41,135.40,1
122,128.28,135.27,1
121,128.14,135.12,1
121,127.99,134.98,1
121,127.85,134.84,1
121,127.72,134.71,1
121,127.58,134.57,1
121,127.45,134.43,1
121,127.32,134.30,1
120,127.18,134.16,1
120,127.03,134.01,1
121,126.91,133.88,1
121,126.79,133.75,1
121,126.68,133.63,1
121,126.56,133.50,1
120,126.43,133.37,1
121,126.32,133.24,1
121,126.22,133.12,1
121,126.11,133.00,1
120,125.99,132.87,1
121,125.89,132.75,1
120,125.77,132.62,1
122,125.70,132.52,1
120,125.58,132.39,1
119,125.45,132.26,1
121,125.36,132.14,1
121,125.28,132.03,1
119,125.15,131.90,1
121,125.07,131.79,1
120,124.97,131.68,1
119,124.85,131.55,1
120,124.75,131.43,1
119,124.63,131.31,1
119,124.52,131.19,1
119,124.41,131.06,1
120,124.32,130.95,1
119,124.22,130.83,1
120,124.13,130.73,1
119,124.03,130.61,1
120,123.95,130.50,1
119,123.85,130.39,1
118,123.73,130.26,1
118,123.62,130.14,1
119,123.53,130.03,1
117,123.40,129.90,1
119,123.31,129.79,1
117,123.18,129.66,1
118,123.08,129.55,1
119,123.00,129.44,1
118,122.90,129.33,1
117,122.78,129.20,1
117,122.66,129.08,1
117,122.55,128.96,1
115,122.40,128.82,1
117,122.29,128.70,1
117,122.19,128.59,1
117,122.08,128.47,1
117,121.98,128.35,1
117,121.88,128.24,1
115,121.74,128.11,1
115,121.61,127.98,1
116,121.50,127.86,1
116,121.39,127.74,1
117,121.30,127.63,1
115,121.17,127.51,1
115,121.05,127.38,1
115,120.93,127.26,1
115,120.81,127.13,1
115,120.69,127.01,1
115,120.58,126.89,1
115,120.47,126.77,1
116,120.38,126.67,1
115,120.27,126.55,1
115,120.17,126.43,1
115,120.06,126.32,1
116,119.98,126.22,1
114,119.86,126.09,1
117,119.80,126.00,1
116,119.73,125.90,1
115,119.63,125.79,1
116,119.56,125.70,1
115,119.47,125.59,1
116,119.40,125.49,1
115,119.31,125.39,1
115,119.23,125.28,1
115,119.14,125.18,1
116,119.08,125.09,1
115,119.00,124.99,1
115,118.92,124.89,1
115,118.84,124.79,1
115,118.76,124.69,1
115,118.69,124.60,1
114,118.59,124.49,1
115,118.52,124.39,1
115,118.45,124.30,1
113,118.34,124.19,1
114,118.25,124.09,1
114,118.17,123.98,1
114,118.09,123.88,1
114,118.00,123.79,1
116,117.96,123.71,1
116,117.93,123.63,1
115,117.87,123.54,1
116,117.83,123.47,1
116,117.79,123.39,1
117,117.78,123.33,1
116,117.74,123.26,1
116,117.71,123.18,1
112,117.59,123.07,1
117,117.58,123.01,1
116,117.55,122.94,1
114,117.48,122.85,1
116,117.45,122.78,1
116,117.42,122.72,1
114,117.35,122.63,1
114,117.28,122.54,1
114,117.22,122.46,1
114,117.15,122.37,1
115,117.11,122.30,1
113,117.03,122.21,1
116,117.01,122.14,1
114,116.95,122.06,1
112,116.85,121.96,1
113,116.77,121.87,1
115,116.74,121.80,1
113,116.66,121.72,1
113,116.59,121.63,1
113,116.52,121.54,1
113,116.45,121.46,1
113,116.38,121.37,1
113,116.31,121.29,1
113,116.24,121.21,1
112,116.16,121.11,1
112,116.08,121.02,1
112,115.99,120.93,1
111,115.89,120.83,1
113,115.84,120.75,1
111,115.74,120.66,1
113,115.68,120.58,1
111,115.59,120.48,1
111,115.50,120.39,1
112,115.43,120.31,1
111,115.34,120.21,1
111,115.25,120.12,1
111,115.17,120.03,1
111,115.09,119.94,1
111,115.00,119.85,1
112,114.94,119.77,1
112,114.88,119.69,1
111,114.81,119.61,1
111,114.73,119.52,1
113,114.70,119.46,1
111,114.62,119.37,1
113,114.59,119.31,1
111,114.52,119.22,1
111,114.45,119.14,1
113,114.42,119.08,1
113,114.39,119.02,1
114,114.38,118.97,1
113,114.36,118.91,1
112,114.31,118.84,1
112,114.26,118.77,1
113,114.24,118.71,1
113,114.21,118.66,1
113,114.19,118.60,1
113,114.16,118.54,1
111,114.10,118.47,1
111,114.04,118.39,1
112,114.00,118.33,1
112,113.96,118.27,1
111,113.90,118.19,1
111,113.84,118.12,1
111,113.78,118.05,1
113,113.77,118.00,1
111,113.71,117.93,1
111,113.66,117.86,1
109,113.57,117.77,1
111,113.51,117.71,1
110,113.44,117.63,1
111,113.40,117.56,1
111,113.35,117.50,1
110,113.28,117.42,1
109,113.19,117.34,1
109,113.11,117.25,1
109,113.03,117.17,1
110,112.97,117.10,1
109,112.89,117.02,1
109,112.81,116.94,1
109,112.73,116.86,1
109,112.66,116.78,1
109,112.59,116.70,1
111,112.55,116.65,1
109,112.48,116.57,1
109,112.41,116.49,1
110,112.37,116.43,1
109,112.30,116.35,1
110,112.25,116.29,1
109,112.19,116.22,1
109,112.12,116.15,1
109,112.06,116.07,1
109,112.00,116.00,1
109,111.94,115.93,1
109,111.88,115.86,1
111,111.86,115.82,1
109,111.81,115.75,1
109,111.75,115.68,1
110,111.72,115.62,1
111,111.70,115.58,1
111,111.69,115.53,1
110,111.65,115.48,1
110,111.62,115.42,1
111,111.61,115.38,1
111,111.60,115.33,1
111,111.58,115.29,1
109,111.53,115.23,1
109,111.48,115.16,1
109,111.43,115.10,1
110,111.40,115.05,1
109,111.36,114.99,1
110,111.33,114.94,1
109,111.28,114.88,1
109,111.24,114.82,1
109,111.19,114.76,1
109,111.15,114.71,1
109,111.10,114.65,1
109,111.06,114.59,1
109,111.02,114.54,1
107,110.94,114.46,1
109,110.90,114.41,1
109,110.86,114.35,1
109,110.83,114.30,1
109,110.79,114.25,1
109,110.75,114.19,1
108,110.70,114.13,1
108,110.65,114.07,1
108,110.59,114.01,1
108,110.54,113.95,1
109,110.51,113.90,1
107,110.44,113.83,1
109,110.41,113.78,1
108,110.36,113.73,1
112,110.40,113.71,1
107,110.33,113.64,1
109,110.30,113.60,1
108,110.25,113.54,1
107,110.19,113.47,1
108,110.15,113.42,1
107,110.08,113.35,1
108,110.04,113.30,1
107,109.98,113.24,1
107,109.92,113.18,1
108,109.88,113.12,1
107,109.82,113.06,1
109,109.81,113.02,1
109,109.79,112.98,1
107,109.74,112.92,1
111,109.76,112.90,1
106,109.69,112.83,1
109,109.67,112.80,1
107,109.62,112.74,1
109,109.61,112.70,1
109,109.59,112.66,1
109,109.58,112.63,1
109,109.57,112.59,1
111,109.60,112.57,1
111,109.63,112.56,1
109,109.62,112.52,1
110,109.62,112.50,1
109,109.61,112.46,1
109,109.60,112.43,1
109,109.59,112.39,1
109,109.57,112.36,1
109,109.56,112.33,1
109,109.55,112.29,1
109,109.54,112.26,1
109,109.53,112.23,1
109,109.52,112.20,1
110,109.53,112.17,1
109,109.52,112.14,1
109,109.51,112.11,1
114,109.60,112.13,1
112,109.65,112.13,1
110,109.65,112.11,1
111,109.68,112.10,1
112,109.73,112.09,1
112,109.77,112.09,1
111,109.80,112.08,1
111,109.82,112.07,1
111,109.84,112.06,1
111,109.87,112.05,1
111,109.89,112.04,1
111,109.91,112.03,1
113,109.97,112.04,1
111,109.99,112.03,1
111,110.01,112.02,1
109,109.99,111.99,1
111,110.01,111.98,1
111,110.03,111.97,1
111,110.05,111.96,1
111,110.07,111.95,1
111,110.09,111.94,1
111,110.11,111.93,1
111,110.13,111.92,1
111,110.14,111.91,1
111,110.16,111.90,1
111,110.18,111.89,1
113,110.23,111.91,1
114,110.31,111.93,1
112,110.34,111.93,1
113,110.40,111.94,1
112,110.43,111.94,1
112,110.46,111.94,1
113,110.51,111.95,1
113,110.56,111.96,1
113,110.61,111.97,1
116,110.72,112.01,1
117,110.84,112.06,1
116,110.95,112.10,1
116,111.05,112.14,1
116,111.15,112.18,1
118,111.28,112.24,1
121,111.48,112.32,1
122,111.69,112.42,1
118,111.81,112.48,1
119,111.96,112.54,1
119,112.10,112.61,1
119,112.24,112.67,1
117,112.33,112.71,1
119,112.47,112.78,1
118,112.58,112.83,1
122,112.76,112.92,1
121,112.93,113.00,1
123,113.13,113.10,1
121,113.29,113.18,1
121,113.44,113.26,1
124,113.65,113.37,1
123,113.84,113.46,1
125,114.06,113.58,1
126,114.30,113.70,1
127,114.56,113.83,1
125,114.77,113.95,1
127,115.01,114.08,1
125,115.21,114.19,1
125,115.41,114.29,1
125,115.60,114.40,1
126,115.81,114.52,1
127,116.03,114.64,1
125,116.21,114.75,1
125,116.38,114.85,1
125,116.56,114.95,1
125,116.73,115.05,1
123,116.85,115.13,1
129,117.09,115.27,1
128,117.31,115.40,1
129,117.55,115.53,1
128,117.76,115.66,1
131,118.02,115.81,1
135,118.36,116.00,1
137,118.73,116.21,1
135,119.06,116.40,1
133,119.34,116.57,1
135,119.65,116.75,1
135,119.96,116.93,1
134,120.24,117.10,1
134,120.51,117.27,1
135,120.80,117.45,1
136,121.11,117.63,1
135,121.38,117.81,1
134,121.64,117.97,1
135,121.90,118.14,1
139,122.25,118.35,1
136,122.52,118.53,1
137,122.81,118.71,1
140,123.15,118.92,1
140,123.49,119.13,1
141,123.84,119.35,1
140,124.16,119.56,1
141,124.50,119.77,1
144,124.89,120.02,1
141,125.21,120.23,1
143,125.57,120.45,1
145,125.96,120.70,1
141,126.26,120.90,1
143,126.59,121.12,1
147,127.00,121.38,1
147,127.40,121.64,1
149,127.83,121.91,1
147,128.22,122.16,1
149,128.63,122.43,1
147,129.00,122.68,1
149,129.40,122.94,1
151,129.83,123.22,1
153,130.30,123.52,1
155,130.79,123.83,1
156,131.29,124.15,1
152,131.71,124.43,1
156,132.19,124.75,1
158,132.71,125.08,1
160,133.26,125.43,1
157,133.73,125.75,1
155,134.16,126.04,1
158,134.63,126.36,1
156,135.06,126.65,1
156,135.48,126.95,1
159,135.95,127.27,1
160,136.43,127.60,1
157,136.84,127.89,1
159,137.29,128.20,1
162,137.78,128.54,1
164,138.30,128.89,1
163,138.80,129.23,1
161,139.24,129.55,1
159,139.64,129.85,1
165,140.14,130.20,1
165,140.64,130.55,1
163,141.09,130.87,1
165,141.57,131.21,1
163,142.00,131.53,1
165,142.46,131.86,1
166,142.93,132.21,1
167,143.41,132.55,1
166,143.86,132.89,1
165,144.28,133.21,1
165,144.70,133.53,1
169,145.18,133.88,1
169,145.66,134.23,1
169,146.13,134.58,1
169,146.58,134.93,1
169,147.03,135.27,1
170,147.49,135.61,1
173,148.00,135.99,1
173,148.50,136.36,1
175,149.03,136.74,1
172,149.49,137.10,1
174,149.98,137.47,1
176,150.50,137.85,1
179,151.07,138.26,1
177,151.59,138.65,1
176,152.08,139.02,1
177,152.58,139.40,1
177,153.06,139.78,1
179,153.58,140.17,1
182,154.15,140.59,1
179,154.65,140.97,1
182,155.20,141.38,1
185,155.79,141.82,1
181,156.30,142.21,1
183,156.83,142.62,1
185,157.39,143.04,1
183,157.91,143.44,1
183,158.41,143.84,1
184,158.92,144.24,1
188,159.50,144.68,1
191,160.13,145.14,1
192,160.77,145.61,1
189,161.33,146.04,1
192,161.95,146.50,1
195,162.61,146.99,1
199,163.34,147.51,1
199,164.05,148.02,1
199,164.75,148.53,1
197,165.39,149.02,1
199,166.06,149.52,1
201,166.76,150.03,1
203,167.49,150.56,1
201,168.16,151.07,1
198,168.76,151.54,1
201,169.40,152.03,1
201,170.03,152.52,1
200,170.63,152.99,1
199,171.20,153.45,1
201,171.80,153.93,1
201,172.38,154.40,1
200,172.93,154.86,1
205,173.57,155.36,1
207,174.24,155.87,1
206,174.88,156.38,1
205,175.48,156.86,1
204,176.05,157.33,1
205,176.63,157.81,1
205,177.20,158.28,1
206,177.77,158.76,1
204,178.30,159.21,1
204,178.81,159.66,1
207,179.37,160.13,1
207,179.93,160.60,1
205,180.43,161.05,1
206,180.94,161.50,1
207,181.46,161.95,1
208,181.99,162.41,1
208,182.51,162.87,1
206,182.98,163.30,1
207,183.46,163.74,1
207,183.93,164.17,1
207,184.39,164.60,1
205,184.81,165.00,1
208,185.27,165.43,1
207,185.70,165.85,1
206,186.11,166.25,1
209,186.57,166.67,1
206,186.96,167.07,1
209,187.40,167.49,1
210,187.85,167.91,1
215,188.39,168.38,1
211,188.85,168.81,1
213,189.33,169.25,1
218,189.90,169.74,1
217,190.44,170.21,1
213,190.89,170.64,1
219,191.46,171.12,1
218,191.99,171.59,1
216,192.47,172.04,1
216,192.94,172.48,1
216,193.40,172.91,1
218,193.89,173.36,1
219,194.39,173.82,1
217,194.85,174.25,1
217,195.29,174.68,1
219,195.76,175.12,1
223,196.31,175.60,1
222,196.82,176.06,1
223,197.35,176.53,1
221,197.82,176.98,1
224,198.34,177.45,1
228,198.94,177.95,1
227,199.50,178.44,1
227,200.05,178.93,1
223,200.51,179.37,1
225,201.00,179.83,1
227,201.52,180.30,1
233,202.15,180.83,1
232,202.74,181.34,1
235,203.39,181.87,1
231,203.94,182.36,1
235,204.56,182.89,1
239,205.25,183.45,1
238,205.91,184.00,1
238,206.55,184.54,1
238,207.18,185.07,1
238,207.79,185.60,1
237,208.38,186.12,1
240,209.01,186.65,1
238,209.59,187.17,1
238,210.16,187.68,1
239,210.73,188.19,1
242,211.36,188.73,1
239,211.91,189.23,1
238,212.43,189.72,1
240,212.99,190.22,1
241,213.55,190.73,1
240,214.07,191.22,1
240,214.59,191.71,1
241,215.12,192.20,1
241,215.64,192.69,1
240,216.13,193.16,1
242,216.64,193.65,1
245,217.21,194.17,1
243,217.73,194.65,1
241,218.19,195.12,1
245,218.73,195.62,1
245,219.25,196.11,1
243,219.73,196.58,1
242,220.17,197.03,1
241,220.59,197.47,1
241,221.00,197.91,1
243,221.44,198.36,1
241,221.83,198.78,1
244,222.27,199.24,1
245,222.73,199.69,1
245,223.17,200.15,1
242,223.55,200.57,1
244,223.96,201.00,1
243,224.34,201.42,1
249,224.83,201.90,1
248,225.30,202.36,1
245,225.69,202.78,1
247,226.12,203.23,1
251,226.61,203.70,1
252,227.12,204.19,1
257,227.72,204.71,1
251,228.19,205.18,1
249,228.60,205.62,1
249,229.01,206.05,1
249,229.41,206.48,1
248,229.78,206.89,1
248,230.15,207.31,1
249,230.52,207.72,1
251,230.93,208.16,1
249,231.29,208.56,1
249,231.65,208.97,1
249,231.99,209.37,1
248,232.31,209.75,1
248,232.63,210.14,1
247,232.92,210.51,1
246,233.18,210.86,1
246,233.43,211.21,1
247,233.71,211.57,1
245,233.93,211.90,1
245,234.15,212.24,1
245,234.37,212.56,1
244,234.56,212.88,1
245,234.77,213.20,1
244,234.96,213.51,1
244,235.14,213.81,1
243,235.29,214.10,1
244,235.47,214.40,1
243,235.62,214.69,1
243,235.77,214.97,1
243,235.91,215.25,1
242,236.03,215.52,1
241,236.13,215.77,1
242,236.25,216.04,1
241,236.34,216.29,1
241,236.44,216.53,1
241,236.53,216.78,1
240,236.60,217.01,1
241,236.69,217.25,1
241,236.77,217.49,1
239,236.82,217.70,1
239,236.86,217.92,1
239,236.90,218.13,1
239,236.95,218.34,1
239,236.99,218.54,1
238,237.01,218.74,1
238,237.03,218.93,1
237,237.03,219.11,1
237,237.03,219.29,1
238,237.05,219.48,1
238,237.06,219.66,1
236,237.04,219.82,1
236,237.02,219.99,1
236,237.00,220.15,1
235,236.96,220.29,1
237,236.96,220.46,1
234,236.90,220.60,1
233,236.83,220.72,1
233,236.75,220.84,1
233,236.67,220.97,1
232,236.58,221.08,1
233,236.51,221.20,1
232,236.42,221.30,1
231,236.31,221.40,1
231,236.20,221.50,1
231,236.10,221.59,1
229,235.96,221.67,1
231,235.86,221.76,1
229,235.72,221.83,1
229,235.59,221.90,1
229,235.46,221.97,1
227,235.29,222.02,1
228,235.14,222.08,1
228,235.00,222.14,1
228,234.86,222.20,1
227,234.70,222.25,1
229,234.59,222.32,1
228,234.45,222.37,1
228,234.33,222.43,1
227,234.18,222.48,1
227,234.04,222.52,1
225,233.85,222.55,1
225,233.68,222.57,1
225,233.50,222.59,1
225,233.33,222.62,1
224,233.15,222.63,1
224,232.96,222.65,1
224,232.79,222.66,1
224,232.61,222.67,1
223,232.42,222.68,1
223,232.23,222.68,1
223,232.04,222.68,1
223,231.86,222.69,1
223,231.69,222.69,1
222,231.49,222.68,1
221,231.28,222.67,1
220,231.06,222.64,1
221,230.86,222.62,1
219,230.62,222.59,1
221,230.43,222.57,1
219,230.20,222.53,1
219,229.97,222.50,1
217,229.71,222.44,1
218,229.48,222.40,1
218,229.25,222.36,1
218,229.03,222.31,1
217,228.79,222.26,1
217,228.55,222.21,1
217,228.32,222.15,1
216,228.07,222.09,1
220,227.91,222.07,1
215,227.65,222.00,1
215,227.40,221.93,1
215,227.15,221.86,1
215,226.91,221.79,1
214,226.65,221.72,1
215,226.42,221.65,1
213,226.15,221.56,1
213,225.89,221.48,1
211,225.59,221.37,1
214,225.36,221.30,1
212,225.09,221.20,1
212,224.83,221.11,1
211,224.55,221.01,1
211,224.28,220.91,1
212,224.03,220.82,1
211,223.77,220.72,1
210,223.50,220.62,1
210,223.23,220.51,1
211,222.98,220.42,1
209,222.70,220.30,1
209,222.43,220.19,1
209,222.16,220.08,1
208,221.88,219.96,1
209,221.62,219.85,1
209,221.37,219.74,1
208,221.10,219.62,1
209,220.86,219.51,1
207,220.58,219.39,1
207,220.31,219.27,1
207,220.04,219.14,1
206,219.76,219.01,1
207,219.51,218.89,1
206,219.24,218.76,1
205,218.95,218.62,1
205,218.67,218.49,1
205,218.40,218.35,2
203,218.09,218.20,2
205,217.83,218.07,2
204,217.55,217.93,2
203,217.26,217.78,2
203,216.98,217.63,2
204,216.72,217.49,2
202,216.42,217.34,2
202,216.14,217.19,2
201,215.83,217.02,2
202,215.56,216.87,2
201,215.26,216.71,2
201,214.98,216.56,2
201,214.70,216.40,2
200,214.41,216.24,2
200,214.12,216.08,2
199,213.82,215.90,2
199,213.52,215.74,2
199,213.23,215.57,2
199,212.94,215.40,2
198,212.65,215.23,2
199,212.37,215.07,2
197,212.06,214.89,2
199,211.80,214.73,2
197,211.51,214.55,2
197,211.22,214.37,2
197,210.93,214.20,2
197,210.65,214.03,2
197,210.38,213.86,2
197,210.11,213.69,2
196,209.83,213.51,2
195,209.53,213.33,2
196,209.26,213.15,2
196,209.00,212.98,2
196,208.74,212.81,2
195,208.46,212.63,2
195,208.19,212.46,2
195,207.93,212.28,2
195,207.67,212.11,2
193,207.38,211.92,2
195,207.13,211.75,2
193,206.85,211.56,2
193,206.57,211.38,2
193,206.30,211.19,2
191,205.99,210.99,2
192,205.71,210.80,2
191,205.42,210.60,2
191,205.13,210.41,2
191,204.85,210.21,2
191,204.57,210.02,2
190,204.28,209.82,2
191,204.02,209.63,2
189,203.71,209.43,2
190,203.44,209.23,2
189,203.15,209.03,2
190,202.89,208.84,2
189,202.61,208.64,2
189,202.34,208.45,2
190,202.09,208.26,2
187,201.79,208.05,2
188,201.51,207.85,2
188,201.24,207.65,2
187,200.96,207.44,2
187,200.68,207.24,2
187,200.41,207.04,2
186,200.12,206.83,2
185,199.82,206.61,2
186,199.54,206.40,2
186,199.27,206.20,2
185,198.98,205.99,2
185,198.70,205.78,2
184,198.41,205.56,2
184,198.12,205.34,2
183,197.82,205.12,2
181,197.48,204.88,2
184,197.21,204.67,2
183,196.93,204.45,2
183,196.65,204.24,2
182,196.36,204.02,2
182,196.07,203.79,2
182,195.79,203.58,2
181,195.49,203.35,2
181,195.20,203.13,2
181,194.92,202.91,2
181,194.64,202.69,2
180,194.35,202.46,2
181,194.08,202.25,2
181,193.82,202.03,2
179,193.52,201.80,2
181,193.27,201.60,2
180,193.01,201.38,2
179,192.73,201.16,2
179,192.45,200.93,2
179,192.18,200.71,2
179,191.92,200.50,2
179,191.66,200.28,2
177,191.37,200.05,2
177,191.08,199.82,2
177,190.80,199.59,2
177,190.52,199.36,2
177,190.25,199.14,2
176,189.97,198.91,2
177,189.71,198.69,2
175,189.41,198.45,2
176,189.15,198.23,2
175,188.86,198.00,2
175,188.59,197.77,2
175,188.31,197.54,2
175,188.05,197.31,2
175,187.79,197.09,2
175,187.53,196.87,2
175,187.28,196.65,2
174,187.01,196.42,2
177,186.81,196.23,2
173,186.54,196.00,2
174,186.29,195.78,2
173,186.02,195.55,2
174,185.78,195.33,2
173,185.53,195.11,2
173,185.28,194.89,2
173,185.03,194.67,2
174,184.81,194.46,2
172,184.55,194.24,2
173,184.32,194.03,2
173,184.10,193.82,2
173,183.87,193.61,2
173,183.66,193.40,2
173,183.44,193.20,2
172,183.21,192.99,2
171,182.97,192.77,2
172,182.75,192.56,2
171,182.52,192.34,2
173,182.33,192.15,2
173,182.14,191.96,2
173,181.96,191.77,2
171,181.74,191.56,2
172,181.54,191.37,2
173,181.37,191.18,2
173,181.20,191.00,2
172,181.02,190.81,2
171,180.82,190.61,2
172,180.64,190.43,2
173,180.49,190.25,2
171,180.30,190.06,2
171,180.11,189.87,2
171,179.93,189.68,2
170,179.73,189.48,2
171,179.56,189.30,2
170,179.37,189.11,2
170,179.18,188.91,2
169,178.98,188.72,2
169,178.78,188.52,2
169,178.58,188.32,2
169,178.39,188.13,2
168,178.18,187.93,2
168,177.98,187.73,2
169,177.80,187.54,2
168,177.60,187.35,2
167,177.39,187.14,2
167,177.18,186.94,2
168,177.00,186.75,2
168,176.82,186.56,2
167,176.62,186.37,2
167,176.43,186.18,2
167,176.24,185.98,2
166,176.04,185.78,2
165,175.82,185.58,2
166,175.62,185.38,2
167,175.45,185.20,2
165,175.24,184.99,2
165,175.03,184.79,2
166,174.85,184.61,2
165,174.66,184.41,2
166,174.48,184.23,2
167,174.33,184.05,2
165,174.15,183.86,2
165,173.96,183.68,2
165,173.78,183.49,2
165,173.61,183.30,2
165,173.44,183.12,2
165,173.27,182.94,2
164,173.08,182.75,2
163,172.88,182.55,2
164,172.70,182.37,2
163,172.51,182.17,2
165,172.36,182.00,2
163,172.17,181.81,2
164,172.01,181.63,2
163,171.83,181.45,2
163,171.65,181.26,2
163,171.48,181.08,2
162,171.29,180.89,2
162,171.10,180.70,2
162,170.92,180.51,2
161,170.72,180.32,2
161,170.53,180.12,2
161,170.34,179.93,2
161,170.15,179.74,2
159,169.93,179.54,2
161,169.75,179.35,2
161,169.57,179.17,2
160,169.38,178.98,2
161,169.22,178.80,2
161,169.05,178.62,2
160,168.87,178.43,2
160,168.69,178.25,2
160,168.52,178.07,2
160,168.35,177.88,2
160,168.18,177.71,2
159,168.00,177.52,2
158,167.80,177.32,2
157,167.58,177.12,2
158,167.39,176.93,2
158,167.20,176.74,2
158,167.02,176.55,2
159,166.86,176.38,2
158,166.68,176.19,2
157,166.49,176.00,2
157,166.30,175.81,2
158,166.13,175.63,2
158,165.97,175.46,2
159,165.83,175.29,2
158,165.67,175.12,2
156,165.48,174.93,2
157,165.31,174.75,2
157,165.14,174.57,2
157,164.98,174.40,2
157,164.82,174.22,2
156,164.64,174.04,2
158,164.51,173.88,2
157,164.36,173.71,2
156,164.19,173.53,2
157,164.05,173.37,2
156,163.89,173.19,2
157,163.75,173.03,2
155,163.58,172.85,2
157,163.45,172.69,2
157,163.32,172.54,2
156,163.17,172.37,2
155,163.01,172.20,2
156,162.87,172.04,2
155,162.71,171.87,2
155,162.55,171.70,2
153,162.36,171.51,2
155,162.22,171.34,2
154,162.05,171.17,2
153,161.87,170.99,2
153,161.69,170.81,2
153,161.52,170.63,2
153,161.35,170.46,2
152,161.16,170.27,2
153,161.00,170.10,2
153,160.84,169.93,2
153,160.68,169.76,2
152,160.51,169.58,2
152,160.34,169.40,2
152,160.17,169.23,2
153,160.03,169.07,2
151,159.85,168.89,2
151,159.67,168.71,2
151,159.50,168.53,2
151,159.33,168.36,2
155,159.24,168.22,2
151,159.08,168.05,2
151,158.91,167.88,2
151,158.76,167.71,2
151,158.60,167.54,2
151,158.45,167.38,2
150,158.28,167.20,2
151,158.13,167.04,2
150,157.97,166.87,2
150,157.81,166.70,2
150,157.66,166.54,2
149,157.48,166.36,2
149,157.31,166.19,2
149,157.15,166.02,2
149,156.98,165.85,2
148,156.80,165.67,2
148,156.63,165.49,2
149,156.48,165.33,2
148,156.31,165.15,2
149,156.16,164.99,2
147,155.98,164.81,2
147,155.80,164.63,2
147,155.62,164.46,2
148,155.47,164.29,2
147,155.30,164.12,2
147,155.13,163.95,2
146,154.95,163.77,2
148,154.81,163.61,2
147,154.66,163.44,2
145,154.46,163.26,2
145,154.27,163.08,2
146,154.11,162.91,2
146,153.95,162.74,2
146,153.79,162.57,2
145,153.61,162.39,2
145,153.44,162.22,2
145,153.27,162.05,2
145,153.10,161.88,2
143,152.90,161.69,2
147,152.78,161.54,2
145,152.63,161.38,2
144,152.46,161.20,2
145,152.31,161.04,2
143,152.12,160.86,2
143,151.94,160.68,2
143,151.76,160.51,2
143,151.58,160.33,2
143,151.41,160.16,2
144,151.26,160.00,2
143,151.10,159.83,2
143,150.94,159.66,2
141,150.74,159.47,2
142,150.56,159.30,2
142,150.39,159.12,2
142,150.22,158.95,2
141,150.04,158.77,2
141,149.86,158.59,2
141,149.68,158.42,2
141,149.51,158.24,2
143,149.38,158.09,2
141,149.21,157.92,2
141,149.05,157.75,2
140,148.87,157.57,2
141,148.71,157.41,2
140,148.53,157.23,2
141,148.38,157.07,2
140,148.22,156.90,2
140,148.05,156.73,2
140,147.89,156.56,2
140,147.73,156.40,2
140,147.58,156.24,2
140,147.43,156.07,2
139,147.26,155.90,2
139,147.09,155.73,2
140,146.95,155.58,2
138,146.77,155.40,2
140,146.64,155.25,2
138,146.46,155.07,2
138,146.29,154.90,2
138,146.13,154.73,2
139,145.99,154.58,2
137,145.81,154.40,2
137,145.63,154.23,2
137,145.46,154.05,2
137,145.29,153.88,2
137,145.12,153.71,2
137,144.96,153.55,2
137,144.80,153.38,2
137,144.65,153.22,2
137,144.49,153.06,2
138,144.36,152.91,2
137,144.22,152.75,2
137,144.07,152.59,2
137,143.93,152.43,2
137,143.79,152.28,2
136,143.64,152.12,2
137,143.50,151.97,2
137,143.37,151.82,2
136,143.22,151.66,2
135,143.06,151.49,2
135,142.90,151.33,2
135,142.74,151.16,2
136,142.61,151.01,2
136,142.47,150.86,2
135,142.32,150.70,2
135,142.18,150.55,2
135,142.03,150.39,2
134,141.87,150.23,2
135,141.74,150.07,2
133,141.56,149.90,2
132,141.37,149.72,2
133,141.20,149.56,2
135,141.08,149.41,2
133,140.92,149.25,2
132,140.74,149.07,2
133,140.58,148.91,2
133,140.43,148.75,2
133,140.28,148.60,2
133,140.14,148.44,2
132,139.98,148.28,2
133,139.84,148.12,2
133,139.70,147.97,2
132,139.55,147.81,2
133,139.41,147.66,2
132,139.27,147.51,2
132,139.12,147.35,2
132,138.98,147.20,2
131,138.82,147.04,2
131,138.66,146.88,2
132,138.53,146.73,2
131,138.38,146.57,2
131,138.23,146.42,2
129,138.05,146.24,2
131,137.91,146.09,2
131,137.77,145.94,2
130,137.61,145.78,2
130,137.46,145.62,2
129,137.29,145.45,2
129,137.12,145.29,2
129,136.96,145.13,2
129,136.80,144.97,2
129,136.65,144.81,2
129,136.49,144.65,2
129,136.34,144.49,2
129,136.20,144.34,2
128,136.03,144.17,2
129,135.89,144.02,2
128,135.73,143.86,2
128,135.58,143.70,2
131,135.49,143.58,2
128,135.34,143.42,2
127,135.17,143.26,2
128,135.03,143.10,2
128,134.89,142.95,2
128,134.75,142.80,2
127,134.60,142.64,2
127,134.44,142.49,2
127,134.29,142.33,2
128,134.17,142.19,2
128,134.05,142.05,2
128,133.92,141.91,2
127,133.79,141.76,2
127,133.65,141.61,2
127,133.52,141.46,2
127,133.39,141.32,2
127,133.26,141.18,2
128,133.15,141.05,2
127,133.03,140.90,2
127,132.91,140.77,2
126,132.77,140.62,2
127,132.66,140.48,2
127,132.54,140.35,2
127,132.43,140.21,2
127,132.32,140.08,2
127,132.22,139.95,2
127,132.11,139.82,2
129,132.05,139.71,2
128,131.97,139.60,2
127,131.87,139.47,2
127,131.77,139.35,2
127,131.68,139.22,2
129,131.62,139.12,2
129,131.57,139.02,2
129,131.52,138.92,2
128,131.45,138.81,2
128,131.38,138.70,2
128,131.31,138.59,2
127,131.23,138.48,2
127,131.14,138.36,2
127,131.06,138.25,2
127,130.98,138.14,2
127,130.90,138.03,2
126,130.80,137.91,2
127,130.72,137.80,2
126,130.63,137.68,2
127,130.56,137.57,2
127,130.49,137.47,2
125,130.38,137.34,2
125,130.27,137.22,2
127,130.20,137.12,2
127,130.14,137.01,2
127,130.08,136.91,2
127,130.02,136.82,2
127,129.96,136.72,2
127,129.90,136.62,2
127,129.84,136.52,2
127,129.78,136.43,2
127,129.73,136.33,2
127,129.67,136.24,2
127,129.62,136.15,2
127,129.57,136.06,2
128,129.53,135.98,2
128,129.50,135.90,2
127,129.45,135.81,2
127,129.40,135.72,2
127,129.36,135.63,2
127,129.31,135.55,2
128,129.28,135.47,2
128,129.26,135.40,2
127,129.21,135.31,2
127,129.17,135.23,2
127,129.12,135.15,2
129,129.12,135.09,2
128,129.10,135.01,2
127,129.06,134.93,2
127,129.02,134.85,2
127,128.98,134.78,2
127,128.94,134.70,2
127,128.90,134.62,2
127,128.86,134.55,2
125,128.78,134.45,2
126,128.73,134.37,2
127,128.69,134.29,2
127,128.66,134.22,2
127,128.63,134.15,2
127,128.59,134.08,2
127,128.56,134.00,2
127,128.53,133.93,2
127,128.50,133.87,2
127,128.47,133.80,2
127,128.44,133.73,2
126,128.39,133.65,2
127,128.36,133.58,2
128,128.36,133.53,2
127,128.33,133.46,2
126,128.28,133.39,2
127,128.26,133.33,2
127,128.23,133.26,2
126,128.19,133.19,2
127,128.16,133.13,2
125,128.10,133.05,2
125,128.04,132.97,2
125,127.98,132.89,2
126,127.94,132.82,2
127,127.92,132.76,2
128,127.92,132.71,2
127,127.90,132.65,2
127,127.88,132.60,2
126,127.85,132.53,2
125,127.79,132.46,2
125,127.73,132.38,2
126,127.70,132.32,2
127,127.69,132.26,2
127,127.67,132.21,2
127,127.66,132.16,2
127,127.64,132.11,2
125,127.59,132.04,2
125,127.54,131.97,2
125,127.49,131.90,2
125,127.44,131.83,2
127,127.43,131.78,2
125,127.38,131.71,2
127,127.37,131.67,2
125,127.33,131.60,2
125,127.28,131.53,2
125,127.23,131.47,2
127,127.23,131.42,2
127,127.23,131.38,2
126,127.20,131.32,2
125,127.16,131.26,2
125,127.11,131.20,2
125,127.07,131.14,2
125,127.03,131.08,2
125,126.99,131.01,2
125,126.95,130.95,2
127,126.95,130.91,2
127,126.95,130.88,2
126,126.93,130.83,2
124,126.87,130.76,2
126,126.86,130.71,2
127,126.86,130.67,2
129,126.90,130.66,2
127,126.90,130.62,2
127,126.91,130.58,2
127,126.91,130.55,2
126,126.89,130.50,2
126,126.87,130.46,2
127,126.87,130.42,2
129,126.92,130.41,2
127,126.92,130.38,2
125,126.88,130.32,2
125,126.84,130.27,2
125,126.81,130.22,2
125,126.77,130.16,2
127,126.77,130.13,2
125,126.74,130.08,2
127,126.74,130.05,2
128,126.77,130.03,2
127,126.77,130.00,2
127,126.78,129.97,2
128,126.80,129.95,2
128,126.83,129.93,2
127,126.83,129.90,2
129,126.87,129.89,2
132,126.98,129.91,2
131,127.06,129.92,2
129,127.10,129.91,2
129,127.13,129.91,2
129,127.17,129.90,2
129,127.21,129.89,2
129,127.24,129.88,2
128,127.26,129.86,2
129,127.29,129.85,2
129,127.33,129.84,2
129,127.36,129.83,2
131,127.43,129.85,2
131,127.51,129.86,2
132,127.59,129.88,2
131,127.66,129.89,2
132,127.75,129.91,2
129,127.77,129.90,2
133,127.88,129.93,2
133,127.98,129.96,2
135,128.12,130.01,2
133,128.22,130.04,2
134,128.34,130.08,2
133,128.43,130.11,2
133,128.52,130.14,2
132,128.59,130.16,2
133,128.68,130.19,2
133,128.76,130.22,2
131,128.81,130.22,2
135,128.93,130.27,2
133,129.01,130.30,2
135,129.13,130.35,2
136,129.27,130.40,2
135,129.39,130.45,2
135,129.50,130.49,2
134,129.59,130.53,2
135,129.70,130.57,2
137,129.84,130.64,2
137,129.99,130.70,2
139,130.17,130.78,2
137,130.30,130.85,2
136,130.42,130.90,2
136,130.53,130.95,2
136,130.64,131.00,2
141,130.84,131.10,2
138,130.99,131.17,2
139,131.15,131.25,3
137,131.27,131.30,3
137,131.38,131.36,4
137,131.49,131.42,4
140,131.66,131.50,4
140,131.83,131.59,4
139,131.97,131.66,4
137,132.07,131.72,4
139,132.21,131.79,4
139,132.35,131.86,4
139,132.48,131.93,4
138,132.59,131.99,4
140,132.74,132.07,4
139,132.86,132.14,4
138,132.97,132.20,4
139,133.09,132.27,4
140,133.23,132.35,4
138,133.32,132.40,4
139,133.44,132.47,4
139,133.55,132.53,4
139,133.66,132.60,4
137,133.72,132.64,4
137,133.79,132.69,4
140,133.91,132.76,4
141,134.05,132.84,4
140,134.17,132.91,4
139,134.27,132.97,4
139,134.36,133.03,4
141,134.50,133.11,4
144,134.69,133.22,4
143,134.85,133.32,4
143,135.02,133.42,4
142,135.16,133.50,4
141,135.27,133.58,4
143,135.43,133.67,4
141,135.54,133.75,4
141,135.65,133.82,4
141,135.75,133.89,4
141,135.86,133.96,4
141,135.96,134.03,4
141,136.06,134.10,4
141,136.16,134.17,4
142,136.28,134.25,4
141,136.37,134.32,4
142,136.49,134.39,4
143,136.62,134.48,4
141,136.70,134.54,4
141,136.79,134.61,4
142,136.89,134.68,4
139,136.94,134.73,4
141,137.02,134.79,4
141,137.10,134.85,4
141,137.18,134.91,4
141,137.25,134.97,4
141,137.33,135.03,4
141,137.40,135.09,4
143,137.51,135.17,4
146,137.68,135.28,4
143,137.79,135.36,4
144,137.91,135.44,4
145,138.05,135.54,4
145,138.19,135.63,4
145,138.33,135.73,4
145,138.46,135.82,4
143,138.55,135.89,4
144,138.66,135.97,4
145,138.79,136.06,4
145,138.91,136.15,4
147,139.08,136.26,4
149,139.27,136.39,4
148,139.45,136.51,4
151,139.68,136.65,4
152,139.93,136.80,4
149,140.11,136.93,4
153,140.36,137.09,4
153,140.62,137.25,4
159,140.99,137.46,4
160,141.37,137.69,4
159,141.72,137.90,4
158,142.04,138.10,4
159,142.38,138.31,4
161,142.76,138.54,4
158,143.06,138.73,4
160,143.40,138.95,4
159,143.71,139.15,4
159,144.02,139.34,4
163,144.40,139.58,4
160,144.71,139.79,4
163,145.07,140.02,4
163,145.43,140.25,4
162,145.76,140.47,4
162,146.09,140.68,4
161,146.39,140.88,4
163,146.72,141.10,4
161,147.01,141.30,4
163,147.32,141.52,4
169,147.76,141.80,4
168,148.16,142.06,4
166,148.52,142.30,4
165,148.85,142.52,4
173,149.33,142.83,4
173,149.81,143.13,4
175,150.31,143.45,4
175,150.80,143.76,4
172,151.23,144.05,4
175,151.70,144.36,4
176,152.19,144.67,4
180,152.75,145.03,4
183,153.35,145.41,4
179,153.86,145.74,4
177,154.33,146.05,4
182,154.88,146.41,4
187,155.52,146.82,4
189,156.19,147.24,4
187,156.81,147.64,4
185,157.37,148.01,4
187,157.96,148.40,4
187,158.54,148.79,4
185,159.07,149.15,4
184,159.57,149.50,4
184,160.06,149.84,4
184,160.54,150.19,4
184,161.01,150.52,4
188,161.55,150.90,4
188,162.08,151.27,4
188,162.60,151.64,4
188,163.10,152.00,4
186,163.56,152.34,4
188,164.05,152.70,4
189,164.55,153.06,4
189,165.04,153.42,4
187,165.48,153.76,4
188,165.93,154.10,4
187,166.35,154.43,4
187,166.76,154.75,4
188,167.19,155.09,4
190,167.64,155.43,4
187,168.03,155.75,4
191,168.49,156.10,4
189,168.90,156.43,4
191,169.34,156.78,4
189,169.74,157.10,4
193,170.20,157.46,4
193,170.66,157.81,4
194,171.12,158.18,4
193,171.56,158.52,4
193,171.99,158.87,4
197,172.49,159.25,4
198,173.00,159.64,4
197,173.48,160.01,4
195,173.91,160.36,4
196,174.35,160.72,4
197,174.81,161.08,4
197,175.25,161.44,4
195,175.64,161.78,4
195,176.03,162.11,4
198,176.47,162.47,4
197,176.88,162.81,4
197,177.28,163.15,4
199,177.72,163.51,4
199,178.14,163.87,4
203,178.64,164.26,4
207,179.21,164.69,4
207,179.76,165.11,4
203,180.23,165.49,4
210,180.82,165.93,4
211,181.43,166.38,4
211,182.02,166.83,4
213,182.64,167.29,4
216,183.31,167.78,4
215,183.94,168.25,4
214,184.54,168.71,4
215,185.15,169.17,4
221,185.87,169.69,4
222,186.59,170.21,4
221,187.28,170.72,4
219,187.91,171.20,4
225,188.65,171.74,4
228,189.44,172.30,4
228,190.21,172.86,4
224,190.89,173.37,4
231,191.69,173.95,4
231,192.48,174.52,4
234,193.31,175.11,4
234,194.12,175.70,4
233,194.90,176.28,4
232,195.64,176.83,4
237,196.47,177.43,4
235,197.24,178.01,4
233,197.95,178.56,4
233,198.65,179.10,4
237,199.42,179.68,4
234,200.11,180.23,4
235,200.81,180.77,4
239,201.57,181.36,4
235,202.24,181.89,4
233,202.86,182.40,4
237,203.54,182.95,4
237,204.21,183.49,4
238,204.89,184.04,4
238,205.55,184.58,4
240,206.24,185.13,4
241,206.93,185.69,4
241,207.61,186.24,4
243,208.32,186.81,4
239,208.94,187.33,4
240,209.56,187.86,4
243,210.23,188.41,4
249,211.00,189.01,4
249,211.76,189.61,4
244,212.41,190.16,4
244,213.04,190.70,4
247,213.72,191.26,4
249,214.42,191.84,4
247,215.07,192.39,4
247,215.71,192.94,4
251,216.42,193.52,4
255,217.19,194.13,4
253,217.91,194.72,4
252,218.59,195.29,4
253,219.28,195.87,4
251,219.91,196.42,4
253,220.57,196.99,4
256,221.28,197.58,4
253,221.92,198.13,4
257,222.62,198.72,4
259,223.34,199.32,4
257,224.02,199.90,4
260,224.74,200.50,4
256,225.36,201.05,4
264,226.14,201.68,4
265,226.91,202.32,4
264,227.65,202.93,4
262,228.34,203.53,4
261,228.99,204.10,4
260,229.61,204.66,4
263,230.28,205.24,4
262,230.92,205.81,4
268,231.66,206.43,4
271,232.45,207.08,4
266,233.12,207.67,4
267,233.79,208.26,4
270,234.52,208.88,4
273,235.29,209.52,4
272,236.02,210.14,4
269,236.68,210.73,4
277,237.49,211.39,4
280,238.34,212.08,4
282,239.21,212.78,4
280,240.03,213.45,4
281,240.85,214.13,4
285,241.73,214.84,4
283,242.56,215.52,4
284,243.38,216.20,4
284,244.20,216.88,4
284,244.99,217.55,4
282,245.73,218.20,4
281,246.44,218.82,4
284,247.19,219.48,4
284,247.93,220.12,4
287,248.71,220.79,4
290,249.53,221.48,4
286,250.26,222.13,4
287,251.00,222.78,4
287,251.72,223.42,4
291,252.50,224.09,4
289,253.23,224.74,4
287,253.91,225.37,4
289,254.61,226.00,4
287,255.26,226.61,4
285,255.85,227.20,4
287,256.48,227.79,4
285,257.05,228.37,4
286,257.63,228.94,4
287,258.21,229.52,4
284,258.73,230.07,4
284,259.23,230.61,4
284,259.73,231.14,4
283,260.19,231.66,4
285,260.69,232.19,4
284,261.16,232.71,4
283,261.59,233.21,4
282,262.00,233.70,4
281,262.38,234.17,4
281,262.75,234.64,4
283,263.16,235.13,4
281,263.52,235.59,4
282,263.89,236.05,4
281,264.23,236.50,4
281,264.56,236.94,4
280,264.87,237.37,4
281,265.19,237.81,4
279,265.47,238.22,4
278,265.72,238.62,4
279,265.99,239.02,4
279,266.25,239.42,4
278,266.48,239.81,4
278,266.71,240.19,4
277,266.92,240.56,4
277,267.12,240.92,4
277,267.32,241.29,4
275,267.47,241.62,4
275,267.62,241.96,4
275,267.77,242.29,4
275,267.91,242.61,4
276,268.08,242.95,4
276,268.23,243.28,4
276,268.39,243.61,4
275,268.52,243.92,4
273,268.61,244.21,4
273,268.70,244.50,4
273,268.79,244.78,4
273,268.87,245.07,4
273,268.95,245.34,4
272,269.01,245.61,4
271,269.05,245.86,4
271,269.09,246.12,4
271,269.13,246.37,4
270,269.15,246.60,4
270,269.16,246.84,4
269,269.16,247.06,4
269,269.16,247.28,4
269,269.15,247.49,4
269,269.15,247.71,4
268,269.13,247.91,4
267,269.09,248.10,4
265,269.00,248.27,4
266,268.94,248.45,4
265,268.87,248.61,4
265,268.79,248.78,4
265,268.71,248.94,4
268,268.70,249.13,4
265,268.62,249.29,4
264,268.53,249.44,4
265,268.46,249.59,4
263,268.35,249.73,4
263,268.24,249.86,4
263,268.14,249.99,4
262,268.02,250.11,4
262,267.90,250.23,4
261,267.76,250.34,4
261,267.62,250.44,4
261,267.49,250.55,4
261,267.36,250.65,4
261,267.23,250.76,4
261,267.11,250.86,4
260,266.97,250.95,4
257,266.77,251.01,4
257,266.57,251.07,4
258,266.40,251.14,4
258,266.23,251.21,4
257,266.05,251.27,4
256,265.85,251.31,4
257,265.67,251.37,4
256,265.48,251.42,4
257,265.31,251.47,4
256,265.12,251.52,4
255,264.92,251.55,4
253,264.68,251.57,4
253,264.45,251.58,4
254,264.24,251.61,4
254,264.03,251.63,4
253,263.81,251.64,4
253,263.60,251.66,4
252,263.36,251.66,4
252,263.14,251.66,4
252,262.91,251.67,4
252,262.70,251.67,4
253,262.50,251.68,4
251,262.27,251.68,4
251,262.05,251.67,4
250,261.81,251.65,4
250,261.57,251.64,4
251,261.36,251.63,4
250,261.13,251.62,4
249,260.89,251.59,4
250,260.67,251.57,4
248,260.42,251.54,4
248,260.17,251.50,4
248,259.93,251.47,4
248,259.69,251.43,4
248,259.45,251.40,4
247,259.20,251.35,4
248,258.98,251.32,4
247,258.74,251.28,4
247,258.51,251.23,4
245,258.24,251.17,4
245,257.97,251.11,4
245,257.71,251.05,4
245,257.46,250.99,4
244,257.19,250.92,4
244,256.92,250.85,4
243,256.65,250.77,4
243,256.37,250.69,4
242,256.09,250.61,4
242,255.80,250.52,4
241,255.51,250.43,4
241,255.22,250.33,4
241,254.93,250.24,4
241,254.65,250.15,4
239,254.34,250.03,4
239,254.03,249.92,4
240,253.75,249.82,4
239,253.46,249.72,4
239,253.17,249.61,4
238,252.87,249.49,4
238,252.57,249.38,4
237,252.26,249.25,4
238,251.97,249.14,4
237,251.67,249.02,4
238,251.40,248.91,4
236,251.09,248.78,4
236,250.79,248.65,4
235,250.47,248.52,4
235,250.16,248.38,4
236,249.88,248.26,4
235,249.58,248.13,4
235,249.29,247.99,4
234,248.99,247.85,4
235,248.71,247.73,4
233,248.39,247.58,4
234,248.10,247.44,4
232,247.78,247.29,4
233,247.49,247.15,4
231,247.16,246.98,4
232,246.85,246.83,5
231,246.54,246.68,5
231,246.23,246.52,5
231,245.92,246.36,5
230,245.60,246.20,5
230,245.29,246.04,5
229,244.97,245.87,5
229,244.65,245.70,5
228,244.31,245.52,5
229,244.01,245.36,5
229,243.71,245.19,5
229,243.41,245.03,5
227,243.08,244.85,5
228,242.78,244.68,5
229,242.51,244.53,5
229,242.24,244.37,5
227,241.93,244.20,5
228,241.65,244.03,5
227,241.36,243.86,5
227,241.07,243.70,5
226,240.77,243.52,5
225,240.46,243.33,5
226,240.17,243.16,5
225,239.86,242.98,5
223,239.53,242.78,5
224,239.22,242.59,5
224,238.91,242.41,5
223,238.59,242.21,5
224,238.30,242.03,5
223,238.00,241.84,5
222,237.68,241.64,5
222,237.36,241.44,5
222,237.05,241.25,5
221,236.73,241.05,5
221,236.42,240.85,5
221,236.11,240.65,5
220,235.79,240.44,5
221,235.49,240.25,5
220,235.18,240.04,5
219,234.86,239.83,5
219,234.54,239.63,5
219,234.23,239.42,5
219,233.93,239.22,5
217,233.59,238.99,5
217,233.26,238.77,5
217,232.93,238.56,5
217,232.61,238.34,5
216,232.28,238.12,5
216,231.95,237.90,5
217,231.66,237.69,5
216,231.34,237.47,5
215,231.02,237.25,5
215,230.70,237.02,5
214,230.36,236.79,5
215,230.05,236.57,5
216,229.77,236.37,5
213,229.44,236.13,5
213,229.11,235.90,5
213,228.79,235.67,5
213,228.47,235.45,5
213,228.16,235.22,5
211,227.82,234.98,5
212,227.50,234.75,5
211,227.17,234.51,5
212,226.87,234.29,5
211,226.55,234.06,5
212,226.26,233.84,5
210,225.94,233.60,5
209,225.60,233.35,5
209,225.26,233.11,5
209,224.94,232.87,5
207,224.58,232.61,5
208,224.25,232.36,5
208,223.92,232.12,5
208,223.61,231.88,5
209,223.31,231.65,5
207,222.99,231.40,5
207,222.67,231.16,5
207,222.35,230.92,5
206,222.03,230.67,5
206,221.71,230.42,5
206,221.39,230.18,5
205,221.06,229.92,5
205,220.74,229.67,5
205,220.43,229.43,5
204,220.10,229.17,5
204,219.78,228.92,5
205,219.48,228.68,5
203,219.15,228.43,5
203,218.83,228.17,5
203,218.51,227.92,5
203,218.20,227.67,5
203,217.90,227.42,5
202,217.58,227.17,5
201,217.25,226.91,5
201,216.92,226.65,5
202,216.63,226.40,5
200,216.29,226.14,5
201,215.99,225.89,5
201,215.69,225.64,5
200,215.37,225.38,5
200,215.07,225.13,5
199,214.74,224.87,5
199,214.43,224.61,5
199,214.12,224.35,5
200,213.84,224.11,5
200,213.56,223.87,5
199,213.27,223.62,5
199,212.99,223.37,5
199,212.71,223.13,5
200,212.45,222.90,5
199,212.18,222.66,5
198,211.90,222.41,5
199,211.64,222.18,5
197,211.35,221.93,5
197,211.06,221.68,5
197,210.78,221.43,5
197,210.50,221.19,5
197,210.23,220.94,5
196,209.95,220.69,5
196,209.67,220.45,5
197,209.42,220.21,5
196,209.15,219.97,5
196,208.89,219.73,5
196,208.63,219.49,5
195,208.36,219.25,5
195,208.09,219.01,5
195,207.83,218.77,5
195,207.57,218.53,5
194,207.30,218.28,5
194,207.03,218.04,5
193,206.75,217.79,5
192,206.46,217.53,5
193,206.19,217.29,5
193,205.92,217.04,5
193,205.67,216.80,5
194,205.43,216.58,5
192,205.16,216.33,5
192,204.90,216.09,5
192,204.64,215.85,5
191,204.37,215.60,5
192,204.12,215.36,5
192,203.88,215.13,5
191,203.62,214.89,5
191,203.37,214.65,5
191,203.12,214.41,5
190,202.86,214.17,5
191,202.62,213.94,5
189,202.35,213.69,5
190,202.10,213.45,5
189,201.84,213.20,5
190,201.60,212.97,5
189,201.35,212.73,5
189,201.11,212.50,5
189,200.86,212.26,5
188,200.61,212.02,5
189,200.37,211.79,5
189,200.15,211.56,5
188,199.90,211.32,5
187,199.65,211.08,5
187,199.39,210.84,5
187,199.14,210.60,5
187,198.90,210.37,5
185,198.62,210.11,5
187,198.39,209.88,5
185,198.12,209.63,5
186,197.88,209.40,5
188,197.68,209.18,5
188,197.49,208.97,5
186,197.26,208.74,5
187,197.05,208.52,5
187,196.85,208.31,5
187,196.66,208.09,5
187,196.46,207.88,5
186,196.25,207.67,5
185,196.03,207.44,5
186,195.83,207.22,5
187,195.65,207.02,5
185,195.44,206.80,5
185,195.23,206.58,5
185,195.03,206.37,5
184,194.81,206.14,5
184,194.59,205.92,5
183,194.36,205.69,5
184,194.15,205.48,5
185,193.97,205.27,5
185,193.79,205.07,5
183,193.57,204.85,5
183,193.36,204.63,5
183,193.15,204.41,5
183,192.95,204.20,5
182,192.73,203.98,5
182,192.52,203.76,5
181,192.29,203.53,5
181,192.06,203.30,5
181,191.84,203.08,5
181,191.62,202.86,5
180,191.39,202.63,5
180,191.16,202.41,5
180,190.94,202.18,5
181,190.74,201.97,5
179,190.51,201.74,5
180,190.30,201.52,5
179,190.07,201.30,5
181,189.89,201.09,5
179,189.67,200.87,5
178,189.44,200.65,5
179,189.23,200.43,5
177,188.98,200.19,5
177,188.74,199.96,5
177,188.51,199.73,5
177,188.28,199.51,5
176,188.03,199.27,5
176,187.79,199.04,5
176,187.56,198.81,5
175,187.31,198.57,5
175,187.06,198.33,5
177,186.86,198.12,5
178,186.68,197.92,5
175,186.45,197.69,5
173,186.18,197.44,5
175,185.96,197.22,5
175,185.74,197.00,5
174,185.50,196.77,5
173,185.25,196.53,5
173,185.01,196.29,5
173,184.77,196.06,5
175,184.57,195.85,5
175,184.38,195.64,5
173,184.15,195.42,5
173,183.93,195.19,5
173,183.71,194.97,5
174,183.52,194.76,5
173,183.31,194.54,5
172,183.08,194.32,5
173,182.88,194.10,5
172,182.66,193.88,5
172,182.45,193.66,5
172,182.24,193.45,5
171,182.01,193.22,5
172,181.81,193.01,5
171,181.60,192.79,5
171,181.39,192.57,5
171,181.18,192.36,5
171,180.97,192.14,5
170,180.75,191.92,5
169,180.52,191.69,5
170,180.31,191.48,5
169,180.08,191.25,5
170,179.88,191.04,5
169,179.66,190.82,5
169,179.45,190.60,5
168,179.22,190.37,5
168,179.00,190.15,5
168,178.78,189.93,5
167,178.54,189.70,5
167,178.31,189.47,5
167,178.08,189.25,5
167,177.86,189.02,5
167,177.65,188.80,5
167,177.43,188.59,5
165,177.18,188.35,5
165,176.94,188.12,5
165,176.70,187.89,5
167,176.51,187.68,5
165,176.28,187.45,5
165,176.05,187.23,5
165,175.83,187.00,5
165,175.61,186.78,5
165,175.40,186.57,5
164,175.17,186.34,5
164,174.95,186.12,5
164,174.73,185.90,5
163,174.50,185.67,5
163,174.27,185.44,5
164,174.06,185.23,5
163,173.84,185.00,5
164,173.64,184.79,5
163,173.43,184.58,5
163,173.22,184.36,5
162,173.00,184.14,5
163,172.80,183.92,5
163,172.60,183.72,5
163,172.41,183.51,5
161,172.18,183.28,5
161,171.96,183.06,5
161,171.74,182.84,5
161,171.52,182.62,5
161,171.31,182.40,5
163,171.15,182.21,5
161,170.94,182.00,5
161,170.75,181.79,5
162,170.57,181.59,5
161,170.38,181.39,5
160,170.17,181.17,5
160,169.97,180.96,5
160,169.77,180.75,5
160,169.57,180.54,5
160,169.38,180.34,5
159,169.17,180.12,5
160,168.99,179.92,5
157,168.75,179.69,5
158,168.54,179.48,5
159,168.35,179.27,5
159,168.16,179.07,5
157,167.93,178.85,5
157,167.72,178.63,5
158,167.52,178.42,5
158,167.33,178.22,5
158,167.14,178.02,5
157,166.94,177.81,5
158,166.76,177.61,5
158,166.59,177.41,5
159,166.44,177.23,5
155,166.21,177.01,5
156,166.00,176.80,5
157,165.82,176.60,5
157,165.65,176.40,5
157,165.47,176.21,5
156,165.28,176.01,5
156,165.10,175.81,5
157,164.94,175.62,5
156,164.76,175.42,5
155,164.56,175.22,5
156,164.39,175.03,5
155,164.20,174.83,5
155,164.02,174.63,5
155,163.84,174.43,5
154,163.64,174.23,5
154,163.45,174.02,5
153,163.24,173.81,5
153,163.04,173.61,5
153,162.84,173.40,5
153,162.64,173.20,5
152,162.43,172.98,5
153,162.24,172.78,5
155,162.09,172.61,5
153,161.91,172.41,5
153,161.73,172.22,5
153,161.56,172.02,5
152,161.37,171.82,5
154,161.22,171.65,5
154,161.07,171.47,5
153,160.91,171.28,5
152,160.74,171.09,5
153,160.58,170.91,5
153,160.43,170.73,5
153,160.28,170.55,5
152,160.11,170.37,5
152,159.95,170.18,5
153,159.81,170.01,5
153,159.68,169.84,5
152,159.52,169.66,5
156,159.45,169.53,5
152,159.30,169.35,5
152,159.16,169.18,5
151,158.99,169.00,5
151,158.83,168.82,5
151,158.68,168.64,5
151,158.52,168.46,5
150,158.35,168.28,5
150,158.19,168.10,5
149,158.00,167.90,5
151,157.86,167.74,5
151,157.73,167.57,5
151,157.59,167.40,5
149,157.42,167.22,5
151,157.29,167.06,5
153,157.21,166.92,5
148,157.02,166.73,5
151,156.90,166.57,5
149,156.74,166.39,5
149,156.59,166.22,5
151,156.48,166.07,5
151,156.37,165.92,5
151,156.26,165.77,5
150,156.13,165.61,5
149,155.99,165.44,5
149,155.85,165.28,5
149,155.71,165.12,5
149,155.58,164.96,5
149,155.45,164.80,5
149,155.32,164.64,5
149,155.19,164.48,5
149,155.07,164.33,5
149,154.95,164.17,5
148,154.81,164.01,5
148,154.67,163.85,5
149,154.56,163.70,5
150,154.47,163.57,5
148,154.34,163.41,5
147,154.19,163.25,5
147,154.05,163.08,5
148,153.93,162.93,5
148,153.81,162.78,5
148,153.69,162.64,5
147,153.56,162.48,5
147,153.43,162.32,5
147,153.30,162.17,5
148,153.19,162.03,5
148,153.09,161.89,5
147,152.97,161.74,5
148,152.87,161.60,5
147,152.75,161.46,5
147,152.64,161.31,5
147,152.52,161.17,5
147,152.41,161.03,5
148,152.32,160.90,5
146,152.20,160.75,5
147,152.09,160.61,5
147,151.99,160.47,5
147,151.89,160.34,5
146,151.77,160.20,5
148,151.70,160.07,5
147,151.60,159.94,5
147,151.51,159.81,5
146,151.40,159.68,5
148,151.33,159.56,5
147,151.25,159.43,5
149,151.20,159.33,5
148,151.14,159.22,5
147,151.06,159.09,5
148,150.99,158.98,5
149,150.96,158.88,5
149,150.92,158.78,5
148,150.86,158.68,5
149,150.82,158.58,5
147,150.74,158.46,5
148,150.69,158.36,5
148,150.64,158.26,5
148,150.58,158.15,5
149,150.55,158.06,5
149,150.52,157.97,5
147,150.45,157.86,5
148,150.40,157.76,5
147,150.33,157.66,5
147,150.27,157.55,5
145,150.16,157.42,5
147,150.10,157.32,5
148,150.06,157.23,5
147,149.99,157.12,5
147,149.93,157.02,5
147,149.88,156.92,5
147,149.82,156.82,5
147,149.76,156.72,5
146,149.69,156.62,5
147,149.63,156.52,5
148,149.60,156.44,5
147,149.55,156.34,5
148,149.52,156.26,5
147,149.47,156.17,5
147,149.42,156.07,5
149,149.41,156.00,5
148,149.38,155.92,5
146,149.31,155.82,5
148,149.29,155.75,5
148,149.26,155.67,5
149,149.26,155.60,5
150,149.27,155.55,5
149,149.27,155.48,5
150,149.28,155.43,5
154,149.37,155.41,5
153,149.45,155.39,5
151,149.48,155.34,5
151,149.51,155.30,5
150,149.52,155.25,5
152,149.57,155.21,5
153,149.64,155.19,5
151,149.66,155.15,5
151,149.69,155.11,5
151,149.72,155.07,5
151,149.74,155.03,5
151,149.77,154.99,5
150,149.77,154.94,5
149,149.76,154.88,5
151,149.78,154.84,5
149,149.77,154.78,5
151,149.79,154.74,5
150,149.80,154.70,5
150,149.80,154.65,5
150,149.80,154.60,5
151,149.83,154.57,5
149,149.81,154.51,5
149,149.79,154.45,5
149,149.78,154.40,5
151,149.80,154.37,5
153,149.87,154.35,5
151,149.89,154.32,5
150,149.89,154.28,5
151,149.91,154.24,5
151,149.94,154.21,5
152,149.98,154.19,5
151,150.00,154.16,5
151,150.02,154.13,5
151,150.04,154.09,5
150,150.04,154.05,5
151,150.06,154.02,5
150,150.05,153.98,5
150,150.05,153.94,5
149,150.03,153.89,5
149,150.01,153.84,5
149,149.99,153.80,5
152,150.03,153.78,5
149,150.01,153.73,5
150,150.01,153.69,5
149,149.99,153.65,5
149,149.97,153.60,5
149,149.95,153.55,5
149,149.93,153.51,5
149,149.91,153.46,5
150,149.92,153.43,5
149,149.90,153.38,5
149,149.88,153.34,5
149,149.86,153.30,5
149,149.84,153.25,5
149,149.83,153.21,5
149,149.81,153.17,5
149,149.79,153.13,5
148,149.76,153.08,5
151,149.78,153.06,5
150,149.79,153.02,5
151,149.81,153.00,5
151,149.84,152.98,5
151,149.86,152.96,5
149,149.84,152.92,5
150,149.85,152.90,5
150,149.85,152.87,5
149,149.83,152.83,5
149,149.81,152.79,5
148,149.78,152.74,5
149,149.76,152.70,5
149,149.75,152.67,5
149,149.73,152.63,5
148,149.70,152.58,5
148,149.66,152.54,5
149,149.65,152.50,5
149,149.64,152.47,5
147,149.59,152.41,5
148,149.55,152.37,5
148,149.52,152.33,5
147,149.47,152.27,5
148,149.44,152.23,5
147,149.39,152.18,5
148,149.37,152.14,5
147,149.32,152.08,5
147,149.27,152.03,5
147,149.23,151.98,5
145,149.14,151.91,5
146,149.08,151.85,5
145,149.00,151.79,5
145,148.92,151.72,5
145,148.84,151.65,5
145,148.76,151.58,5
147,148.73,151.54,5
145,148.65,151.47,5
145,148.58,151.41,5
145,148.51,151.34,5
145,148.44,151.28,5
143,148.33,151.20,5
145,148.26,151.14,5
144,148.18,151.06,5
145,148.11,151.00,5
144,148.03,150.93,5
143,147.93,150.85,5
143,147.83,150.78,5
143,147.74,150.70,5
143,147.64,150.62,5
143,147.55,150.54,5
143,147.46,150.47,5
143,147.37,150.39,5
145,147.32,150.34,5
143,147.23,150.27,5
144,147.17,150.20,5
141,147.05,150.11,5
145,147.01,150.06,5
143,146.93,149.99,5
143,146.85,149.92,5
144,146.79,149.86,5
145,146.75,149.81,5
145,146.72,149.76,5
143,146.64,149.70,5
147,146.65,149.67,5
148,146.68,149.65,5
145,146.64,149.61,5
145,146.61,149.56,5
146,146.60,149.53,5
145,146.57,149.48,5
145,146.54,149.44,5
145,146.51,149.39,5
145,146.48,149.35,5
145,146.45,149.30,5
146,146.44,149.27,5
147,146.45,149.25,5
145,146.42,149.21,5
147,146.43,149.18,5
147,146.44,149.16,5
146,146.43,149.13,5
147,146.44,149.11,5
148,146.48,149.10,5
151,146.57,149.12,5
151,146.66,149.14,5
148,146.68,149.12,5
150,146.75,149.13,5
148,146.77,149.12,5
148,146.80,149.11,5
149,146.84,149.11,5
148,146.87,149.10,5
149,146.91,149.10,5
150,146.97,149.11,5
148,146.99,149.10,5
149,147.03,149.09,5
149,147.07,149.09,5
147,147.07,149.07,5
148,147.09,149.06,5
149,147.13,149.06,5
150,147.18,149.07,5
149,147.22,149.07,5
151,147.29,149.09,5
149,147.33,149.09,5
150,147.38,149.10,5
153,147.49,149.14,5
154,147.62,149.18,5
151,147.69,149.20,5
153,147.80,149.24,5
154,147.92,149.29,5
154,148.04,149.34,5
153,148.14,149.37,5
154,148.26,149.42,5
153,148.36,149.45,5
153,148.45,149.49,5
153,148.54,149.52,5
153,148.63,149.56,5
155,148.76,149.61,5
153,148.84,149.65,5
154,148.94,149.69,5
155,149.07,149.74,5
153,149.14,149.78,5
153,149.22,149.81,5
153,149.30,149.84,5
154,149.39,149.88,5
157,149.54,149.95,5
156,149.67,150.01,5
155,149.78,150.06,5
156,149.90,150.12,5
155,150.00,150.17,5
156,150.12,150.23,6
154,150.20,150.27,6
156,150.32,150.33,7
156,150.43,150.38,7
155,150.52,150.43,8
155,150.61,150.47,8
162,150.84,150.59,8
159,151.00,150.67,8
157,151.12,150.74,8
157,151.24,150.80,8
161,151.44,150.90,8
159,151.59,150.98,8
158,151.72,151.05,8
159,151.86,151.13,8
158,151.98,151.20,8
160,152.14,151.29,8
159,152.28,151.37,8
160,152.44,151.45,8
159,152.57,151.53,8
160,152.72,151.61,8
159,152.84,151.69,8
159,152.96,151.76,8
161,153.13,151.85,8
161,153.28,151.94,8
163,153.48,152.05,8
162,153.65,152.15,8
161,153.79,152.24,8
163,153.98,152.35,8
161,154.12,152.44,8
163,154.30,152.54,8
163,154.47,152.65,8
161,154.60,152.73,8
164,154.79,152.84,8
163,154.95,152.94,8
164,155.13,153.05,8
167,155.37,153.19,8
171,155.68,153.37,8
167,155.91,153.51,8
168,156.15,153.65,8
166,156.35,153.78,8
169,156.60,153.93,8
169,156.85,154.08,8
169,157.09,154.23,8
169,157.33,154.38,8
173,157.65,154.56,8
177,158.03,154.79,8
173,158.33,154.97,8
172,158.60,155.14,8
174,158.91,155.33,8
175,159.23,155.53,8
175,159.55,155.72,8
178,159.92,155.94,8
177,160.26,156.15,8
181,160.68,156.40,8
184,161.14,156.68,8
180,161.52,156.91,8
179,161.87,157.13,8
184,162.31,157.40,8
187,162.81,157.70,8
186,163.27,157.98,8
183,163.66,158.23,8
189,164.17,158.54,8
192,164.73,158.87,8
187,165.17,159.15,8
189,165.65,159.45,8
195,166.24,159.81,8
189,166.69,160.10,8
193,167.22,160.43,8
193,167.73,160.75,8
191,168.20,161.06,8
192,168.67,161.37,8
195,169.20,161.70,8
193,169.68,162.02,8
193,170.14,162.32,8
193,170.60,162.63,8
193,171.05,162.94,8
194,171.51,163.25,8
193,171.94,163.54,8
193,172.36,163.84,8
199,172.89,164.19,8
199,173.41,164.54,8
202,173.99,164.91,8
199,174.49,165.25,8
203,175.06,165.63,8
207,175.69,166.04,8
209,176.36,166.47,8
203,176.89,166.84,8
207,177.50,167.24,8
208,178.11,167.65,8
205,178.64,168.02,8
208,179.23,168.42,8
207,179.79,168.81,8
210,180.39,169.22,8
215,181.08,169.68,8
213,181.72,170.11,8
210,182.29,170.51,8
217,182.98,170.97,8
220,183.72,171.46,8
222,184.49,171.97,8
215,185.10,172.40,8
225,185.90,172.93,8
225,186.68,173.45,8
228,187.50,173.99,8
224,188.23,174.49,8
231,189.09,175.06,8
233,189.97,175.64,8
235,190.87,176.23,8
236,191.77,176.83,8
232,192.58,177.38,8
232,193.36,177.93,8
236,194.22,178.51,8
239,195.11,179.11,8
237,195.95,179.69,8
236,196.75,180.25,8
236,197.54,180.81,8
235,198.29,181.35,8
237,199.06,181.91,8
236,199.80,182.45,8
241,200.62,183.04,8
241,201.43,183.62,8
241,202.22,184.19,8
244,203.06,184.79,8
246,203.92,185.40,8
242,204.68,185.97,8
240,205.38,186.51,8
242,206.12,187.06,8
248,206.95,187.67,8
246,207.73,188.25,8
248,208.54,188.85,8
248,209.33,189.44,8
252,210.18,190.07,8
254,211.06,190.71,8
253,211.90,191.33,8
249,212.64,191.91,8
253,213.45,192.52,8
251,214.20,193.10,8
252,214.95,193.69,8
251,215.68,194.27,8
250,216.36,194.82,8
251,217.05,195.38,8
251,217.73,195.94,8
250,218.38,196.48,8
255,219.11,197.07,8
259,219.91,197.69,8
261,220.73,198.32,8
259,221.50,198.93,8
264,222.35,199.58,8
265,223.20,200.23,8
268,224.10,200.91,8
264,224.89,201.54,8
270,225.80,202.22,8
273,226.74,202.93,8
273,227.66,203.63,8
271,228.53,204.31,8
277,229.50,205.03,8
283,230.57,205.81,8
275,231.46,206.50,8
277,232.37,207.21,8
281,233.34,207.95,8
283,234.34,208.70,8
279,235.23,209.40,8
278,236.08,210.09,8
279,236.94,210.78,8
279,237.78,211.46,8
280,238.63,212.14,8
283,239.52,212.85,8
284,240.41,213.56,8
282,241.24,214.25,8
282,242.05,214.93,8
283,242.87,215.61,8
284,243.69,216.29,8
282,244.46,216.95,8
287,245.31,217.65,8
285,246.10,218.32,8
287,246.92,219.01,8
289,247.76,219.71,8
289,248.59,220.40,8
291,249.44,221.11,8
287,250.19,221.77,8
291,251.00,222.46,8
294,251.86,223.17,8
297,252.77,223.91,8
295,253.61,224.62,8
295,254.44,225.33,8
294,255.23,226.01,8
296,256.05,226.71,8
302,256.97,227.47,8
304,257.91,228.23,8
297,258.69,228.92,8
302,259.55,229.65,8
305,260.46,230.40,8
301,261.27,231.11,8
303,262.11,231.83,8
303,262.93,232.54,8
300,263.67,233.21,8
301,264.41,233.89,8
301,265.15,234.56,8
301,265.86,235.23,8
301,266.57,235.89,8
301,267.25,236.54,8
303,267.97,237.20,8
305,268.71,237.88,8
304,269.42,238.54,8
309,270.21,239.25,8
311,271.02,239.96,8
306,271.72,240.62,8
307,272.43,241.29,8
310,273.18,241.97,8
313,273.98,242.68,8
315,274.80,243.41,8
311,275.52,244.08,8
311,276.23,244.75,8
313,276.97,245.44,8
312,277.67,246.10,8
311,278.33,246.75,8
309,278.95,247.37,8
312,279.61,248.02,8
311,280.24,248.65,8
312,280.87,249.28,8
311,281.47,249.90,8
310,282.04,250.50,8
309,282.58,251.08,8
309,283.11,251.66,8
308,283.61,252.23,8
307,284.08,252.78,8
309,284.58,253.34,8
307,285.02,253.87,8
310,285.52,254.44,8
310,286.01,254.99,8
311,286.51,255.55,8
308,286.94,256.08,8
311,287.42,256.62,8
313,287.94,257.19,8
311,288.40,257.73,8
309,288.81,258.24,8
309,289.21,258.75,8
309,289.61,259.25,8
308,289.98,259.74,8
307,290.32,260.21,8
309,290.69,260.70,8
310,291.08,261.19,8
309,291.43,261.67,8
309,291.79,262.14,8
309,292.13,262.61,8
309,292.47,263.07,8
307,292.76,263.51,8
307,293.04,263.95,8
305,293.28,264.36,8
306,293.54,264.78,8
309,293.85,265.22,8
306,294.09,265.63,8
305,294.31,266.02,8
305,294.52,266.41,8
305,294.73,266.79,8
304,294.92,267.17,8
303,295.08,267.53,8
304,295.26,267.89,8
302,295.39,268.23,8
303,295.54,268.58,8
303,295.69,268.92,8
301,295.80,269.24,8
302,295.92,269.57,8
301,296.02,269.89,8
301,296.12,270.20,8
300,296.20,270.49,8
297,296.22,270.76,8
300,296.29,271.05,8
298,296.33,271.32,8
297,296.34,271.58,8
297,296.35,271.83,8
297,296.37,272.08,8
297,296.38,272.33,8
296,296.37,272.57,8
295,296.34,272.79,8
295,296.32,273.02,8
295,296.29,273.24,8
296,296.29,273.46,8
294,296.24,273.67,8
294,296.19,273.87,8
295,296.17,274.08,8
293,296.11,274.27,8
294,296.07,274.47,8
293,296.00,274.66,8
293,295.94,274.84,8
293,295.89,275.02,8
292,295.81,275.19,8
291,295.71,275.35,8
292,295.64,275.52,8
291,295.54,275.67,8
291,295.45,275.82,8
291,295.36,275.98,8
291,295.28,276.13,8
290,295.17,276.26,8
288,295.03,276.38,8
289,294.91,276.51,8
289,294.79,276.63,8
289,294.67,276.76,8
288,294.54,276.87,8
287,294.39,276.97,8
287,294.24,277.07,8
288,294.12,277.18,8
287,293.97,277.28,8
286,293.82,277.37,8
287,293.68,277.46,8
289,293.59,277.58,8
285,293.41,277.65,8
285,293.25,277.72,8
285,293.08,277.80,8
285,292.92,277.87,8
285,292.76,277.94,8
284,292.59,278.00,8
283,292.39,278.05,8
283,292.21,278.10,8
281,291.98,278.13,8
282,291.78,278.17,8
281,291.57,278.20,8
281,291.35,278.22,8
280,291.13,278.24,8
280,290.91,278.26,8
279,290.67,278.27,8
279,290.43,278.27,8
278,290.19,278.27,8
278,289.94,278.27,8
277,289.68,278.26,8
277,289.43,278.24,8
277,289.18,278.23,8
275,288.90,278.20,8
275,288.62,278.17,8
275,288.35,278.14,8
275,288.08,278.10,8
274,287.80,278.06,8
275,287.54,278.03,8
273,287.25,277.98,8
273,286.97,277.93,8
273,286.69,277.88,8
273,286.41,277.83,8
271,286.10,277.77,8
272,285.82,277.71,8
271,285.53,277.64,8
270,285.22,277.57,8
271,284.93,277.50,8
269,284.61,277.41,8
271,284.34,277.35,8
271,284.07,277.29,8
269,283.77,277.20,8
269,283.48,277.12,8
271,283.23,277.06,8
269,282.94,276.98,8
269,282.66,276.90,8
268,282.37,276.81,8
268,282.08,276.72,8
268,281.80,276.64,8
267,281.51,276.54,8
267,281.22,276.44,8
267,280.93,276.35,8
266,280.63,276.25,8
265,280.32,276.13,8
265,280.01,276.02,8
265,279.71,275.91,8
263,279.38,275.78,8
264,279.07,275.67,8
263,278.75,275.54,8
264,278.46,275.42,8
264,278.17,275.31,8
262,277.84,275.18,8
262,277.53,275.04,8
261,277.20,274.90,8
260,276.85,274.75,8
261,276.53,274.62,8
261,276.22,274.48,8
260,275.90,274.34,8
259,275.56,274.18,8
260,275.25,274.04,8
258,274.91,273.88,8
259,274.59,273.73,8
257,274.24,273.56,8
257,273.89,273.40,8
257,273.55,273.23,8
256,273.20,273.06,8
255,272.84,272.88,9
255,272.48,272.70,9
255,272.13,272.53,9
254,271.77,272.34,9
253,271.39,272.15,9
254,271.05,271.97,9
254,270.70,271.79,9
253,270.35,271.60,9
253,270.00,271.41,9
253,269.66,271.23,9
252,269.31,271.04,9
252,268.96,270.85,9
251,268.60,270.65,9
251,268.25,270.45,9
251,267.91,270.26,9
250,267.55,270.05,9
251,267.22,269.86,9
249,266.85,269.65,9
249,266.50,269.45,9
252,266.21,269.27,9
249,265.86,269.07,9
249,265.53,268.87,9
248,265.18,268.66,9
248,264.83,268.45,9
247,264.47,268.24,9
247,264.13,268.03,9
246,263.76,267.81,9
247,263.43,267.60,9
246,263.08,267.38,9
246,262.74,267.17,9
246,262.40,266.96,9
246,262.07,266.75,9
245,261.73,266.53,9
245,261.40,266.32,9
244,261.05,266.09,9
242,260.67,265.85,9
243,260.32,265.62,9
243,259.97,265.40,9
243,259.63,265.17,9
242,259.28,264.94,9
241,258.91,264.70,9
241,258.55,264.46,9
241,258.20,264.23,9
240,257.84,263.99,9
239,257.46,263.74,9
239,257.09,263.49,9
239,256.73,263.25,9
239,256.38,263.00,9
240,256.05,262.77,9
237,255.67,262.52,9
239,255.33,262.28,9
237,254.97,262.03,9
237,254.61,261.78,9
237,254.26,261.53,9
236,253.89,261.27,9
236,253.53,261.02,9
235,253.16,260.76,9
235,252.80,260.50,9
236,252.46,260.26,9
236,252.13,260.02,9
234,251.77,259.76,9
233,251.40,259.49,9
235,251.07,259.24,9
234,250.73,258.99,9
233,250.37,258.73,9
234,250.04,258.48,9
233,249.70,258.23,9
233,249.37,257.98,9
233,249.04,257.73,9
232,248.70,257.47,9
232,248.37,257.21,9
231,248.02,256.95,9
232,247.70,256.70,9
230,247.35,256.44,9
233,247.06,256.20,9
229,246.70,255.93,9
229,246.34,255.66,9
229,246.00,255.39,9
229,245.66,255.13,9
229,245.32,254.87,9
229,245.00,254.61,9
229,244.68,254.35,9
229,244.36,254.10,9
228,244.04,253.84,9
227,243.70,253.57,9
228,243.38,253.32,9
227,243.05,253.05,9
227,242.73,252.79,9
226,242.40,252.52,9
225,242.05,252.25,9
225,241.71,251.98,9
225,241.38,251.71,9
224,241.03,251.43,9
224,240.69,251.15,9
223,240.33,250.87,9
223,239.99,250.59,9
224,239.67,250.33,9
226,239.39,250.09,9
223,239.07,249.81,9
224,238.76,249.56,9
221,238.41,249.27,9
