Teste de posicionamento 3(EMG tendao-inervacao (Vermelho A, Verde C) + Ref no pulso) - 16/09/2024 - teste3 - 5 contrações
long frequencia = 1000;                 //frequência de aquisição do sinal, neste caso, 1000 sinais por segundo
float fator1 = 0.02, fator2 = 0.01;
float incerteza = 0.13;
float pico_basal = 130; // Mínimo para ser considerado um pico de contração
int filtro_horizontal=200000; //intervalo de 200ms valores não pode ter mais de 1 contração

Biceps_D,mediaMovel_1,mediaMovel_2,Contracao
135,2.70,1.35,0
135,5.35,2.69,0
135,7.94,4.01,0
135,10.48,5.32,0
136,12.99,6.63,0
136,15.45,7.92,0
134,17.82,9.18,0
133,20.13,10.42,0
134,22.40,11.65,0
135,24.65,12.89,0
134,26.84,14.10,0
133,28.96,15.29,0
133,31.05,16.47,0
133,33.08,17.63,0
134,35.10,18.79,0
135,37.10,19.96,0
133,39.02,21.09,0
133,40.90,22.21,0
133,42.74,23.31,0
132,44.53,24.40,0
133,46.30,25.49,0
133,48.03,26.56,0
132,49.71,27.62,0
131,51.33,28.65,0
133,52.97,29.69,0
133,54.57,30.73,0
133,56.14,31.75,0
132,57.65,32.75,0
131,59.12,33.73,0
132,60.58,34.72,0
132,62.01,35.69,0
132,63.41,36.65,0
131,64.76,37.60,0
131,66.08,38.53,0
131,67.38,39.46,0
132,68.67,40.38,0
133,69.96,41.31,0
132,71.20,42.21,0
131,72.40,43.10,0
131,73.57,43.98,0
131,74.72,44.85,0
131,75.84,45.71,0
130,76.93,46.56,0
129,77.97,47.38,0
129,78.99,48.20,0
131,80.03,49.02,0
132,81.07,49.85,0
130,82.05,50.66,0
130,83.01,51.45,0
129,83.93,52.22,0
131,84.87,53.01,0
132,85.81,53.80,0
130,86.69,54.56,0
129,87.54,55.31,0
129,88.37,56.05,0
130,89.20,56.78,0
132,90.06,57.54,0
131,90.88,58.27,0
129,91.64,58.98,0
129,92.39,59.68,0
129,93.12,60.37,0
130,93.86,61.07,0
129,94.56,61.75,0
131,95.29,62.44,0
130,95.98,63.12,0
131,96.68,63.79,0
132,97.39,64.48,0
131,98.06,65.14,0
132,98.74,65.81,0
129,99.35,66.44,0
131,99.98,67.09,0
134,100.66,67.76,0
135,101.35,68.43,0
132,101.96,69.07,0
130,102.52,69.67,0
130,103.07,70.28,0
132,103.65,70.90,0
132,104.21,71.51,0
130,104.73,72.09,0
134,105.32,72.71,0
132,105.85,73.30,0
133,106.39,73.90,0
132,106.90,74.48,0
130,107.37,75.04,0
131,107.84,75.60,0
131,108.30,76.15,0
133,108.80,76.72,0
131,109.24,77.26,0
130,109.66,77.79,0
130,110.06,78.31,0
130,110.46,78.83,0
130,110.85,79.34,0
130,111.24,79.85,0
132,111.65,80.37,0
130,112.02,80.86,0
130,112.38,81.36,0
133,112.79,81.87,0
132,113.17,82.37,0
130,113.51,82.85,0
130,113.84,83.32,0
132,114.20,83.81,0
133,114.58,84.30,0
133,114.95,84.79,0
130,115.25,85.24,0
130,115.54,85.69,0
132,115.87,86.15,0
132,116.20,86.61,0
131,116.49,87.05,0
130,116.76,87.48,0
130,117.03,87.91,0
130,117.29,88.33,0
132,117.58,88.76,0
132,117.87,89.20,0
129,118.09,89.59,0
129,118.31,89.99,0
132,118.58,90.41,0
131,118.83,90.81,0
131,119.07,91.22,0
130,119.29,91.60,0
130,119.51,91.99,0
130,119.72,92.37,0
131,119.94,92.75,0
130,120.14,93.13,0
132,120.38,93.52,0
130,120.57,93.88,0
132,120.80,94.26,0
131,121.01,94.63,0
129,121.17,94.97,0
130,121.34,95.32,0
130,121.52,95.67,0
132,121.73,96.03,0
130,121.89,96.37,0
130,122.05,96.71,0
128,122.17,97.02,0
130,122.33,97.35,0
130,122.48,97.68,0
132,122.67,98.02,0
128,122.78,98.32,0
128,122.88,98.62,0
132,123.07,98.95,0
130,123.20,99.26,0
130,123.34,99.57,0
128,123.43,99.85,0
128,123.52,100.14,0
130,123.65,100.43,0
134,123.86,100.77,0
129,123.96,101.05,0
129,124.06,101.33,0
129,124.16,101.61,0
130,124.28,101.89,0
130,124.39,102.17,0
129,124.49,102.44,0
129,124.58,102.71,0
129,124.67,102.97,0
129,124.75,103.23,0
129,124.84,103.49,0
129,124.92,103.74,0
130,125.02,104.01,0
129,125.10,104.26,0
131,125.22,104.52,0
129,125.30,104.77,0
127,125.33,104.99,0
129,125.40,105.23,0
129,125.47,105.47,0
130,125.57,105.71,0
127,125.59,105.93,0
128,125.64,106.15,0
129,125.71,106.38,0
130,125.79,106.61,0
129,125.86,106.84,0
128,125.90,107.05,0
129,125.96,107.27,0
129,126.02,107.48,0
130,126.10,107.71,0
128,126.14,107.91,0
128,126.18,108.11,0
128,126.22,108.31,0
129,126.27,108.52,0
129,126.33,108.72,0
127,126.34,108.91,0
127,126.35,109.09,0
128,126.39,109.28,0
129,126.44,109.47,0
129,126.49,109.67,0
127,126.50,109.84,0
128,126.53,110.02,0
128,126.56,110.20,0
129,126.61,110.39,0
129,126.66,110.58,0
127,126.66,110.74,0
128,126.69,110.91,0
129,126.74,111.10,0
129,126.78,111.27,0
127,126.78,111.43,0
127,126.79,111.59,0
127,126.79,111.74,0
128,126.82,111.90,0
127,126.82,112.06,0
127,126.82,112.20,0
127,126.83,112.35,0
131,126.91,112.54,0
128,126.93,112.69,0
127,126.93,112.84,0
125,126.90,112.96,0
127,126.90,113.10,0
128,126.92,113.25,0
128,126.94,113.40,0
125,126.90,113.51,0
126,126.89,113.64,0
127,126.89,113.77,0
128,126.91,113.91,0
127,126.91,114.04,0
126,126.89,114.16,0
126,126.88,114.28,0
128,126.90,114.42,0
128,126.92,114.55,0
123,126.84,114.64,0
127,126.84,114.76,0
125,126.81,114.86,0
128,126.83,115.00,0
125,126.79,115.10,0
127,126.80,115.21,0
125,126.76,115.31,0
125,126.73,115.41,0
127,126.73,115.53,0
127,126.74,115.64,0
125,126.70,115.73,0
124,126.65,115.82,0
126,126.64,115.92,0
127,126.64,116.03,0
125,126.61,116.12,0
124,126.56,116.20,0
125,126.53,116.29,0
125,126.50,116.37,0
127,126.51,116.48,0
123,126.44,116.54,0
124,126.39,116.62,0
125,126.36,116.70,0
127,126.37,116.81,0
125,126.35,116.89,0
123,126.28,116.95,0
125,126.25,117.03,0
126,126.25,117.12,0
125,126.22,117.20,0
124,126.18,117.27,0
124,126.14,117.33,0
125,126.11,117.41,0
125,126.09,117.49,0
125,126.07,117.56,0
125,126.05,117.64,0
123,125.99,117.69,0
124,125.95,117.75,0
125,125.93,117.82,0
124,125.89,117.89,0
123,125.83,117.94,0
124,125.79,118.00,0
124,125.76,118.06,0
125,125.74,118.13,0
125,125.73,118.20,0
123,125.67,118.24,0
124,125.64,118.30,0
124,125.61,118.36,0
125,125.60,118.43,0
123,125.54,118.47,0
123,125.49,118.52,0
123,125.44,118.56,0
125,125.43,118.63,0
124,125.41,118.68,0
122,125.34,118.71,0
123,125.29,118.76,0
125,125.28,118.82,0
124,125.26,118.87,0
124,125.23,118.92,0
121,125.15,118.94,0
123,125.11,118.98,0
124,125.08,119.03,0
125,125.08,119.09,0
123,125.04,119.13,0
121,124.96,119.15,0
123,124.92,119.19,0
123,124.88,119.23,0
123,124.84,119.26,0
123,124.81,119.30,0
124,124.79,119.35,0
124,124.78,119.40,0
123,124.74,119.43,0
123,124.71,119.47,0
125,124.71,119.52,0
125,124.72,119.58,0
125,124.72,119.63,0
121,124.65,119.64,0
123,124.62,119.68,0
125,124.62,119.73,0
124,124.61,119.77,0
123,124.58,119.81,0
123,124.55,119.84,0
121,124.48,119.85,0
123,124.45,119.88,0
125,124.46,119.93,0
125,124.47,119.98,0
124,124.46,120.02,0
123,124.43,120.05,0
125,124.44,120.10,0
127,124.49,120.17,0
126,124.52,120.23,0
125,124.53,120.28,0
123,124.50,120.31,0
123,124.47,120.33,0
125,124.48,120.38,0
126,124.51,120.43,0
123,124.48,120.46,0
125,124.49,120.51,0
124,124.48,120.54,0
125,124.49,120.59,0
123,124.46,120.61,0
124,124.45,120.64,0
126,124.48,120.70,0
127,124.54,120.76,0
126,124.56,120.81,0
126,124.59,120.86,0
126,124.62,120.92,0
127,124.67,120.98,0
129,124.76,121.06,0
128,124.82,121.13,0
126,124.84,121.18,0
126,124.87,121.22,0
127,124.91,121.28,0
127,124.95,121.34,0
125,124.95,121.37,0
126,124.97,121.42,0
125,124.97,121.46,0
126,124.99,121.50,0
125,124.99,121.54,0
125,124.99,121.57,0
125,124.99,121.61,0
125,124.99,121.64,0
127,125.04,121.69,0
125,125.03,121.73,0
125,125.03,121.76,0
125,125.03,121.79,0
127,125.07,121.84,0
127,125.11,121.90,0
125,125.11,121.93,0
125,125.11,121.96,0
126,125.12,122.00,0
129,125.20,122.07,0
125,125.20,122.10,0
125,125.19,122.13,0
125,125.19,122.15,0
127,125.23,122.20,0
126,125.24,122.24,0
129,125.32,122.31,0
125,125.31,122.34,0
127,125.34,122.38,0
125,125.34,122.41,0
128,125.39,122.46,0
128,125.44,122.52,0
127,125.47,122.56,0
125,125.46,122.59,0
129,125.54,122.65,0
129,125.60,122.72,0
125,125.59,122.74,0
125,125.58,122.76,0
126,125.59,122.79,0
125,125.58,122.82,0
128,125.63,122.87,0
127,125.65,122.91,0
126,125.66,122.94,0
129,125.73,123.00,0
127,125.75,123.04,0
125,125.74,123.06,0
125,125.72,123.08,0
127,125.75,123.12,0
128,125.79,123.17,0
126,125.80,123.20,0
125,125.78,123.21,0
125,125.77,123.23,0
127,125.79,123.27,0
126,125.79,123.30,0
126,125.80,123.32,0
125,125.78,123.34,0
125,125.77,123.36,0
125,125.75,123.37,0
127,125.78,123.41,0
125,125.76,123.43,0
125,125.75,123.44,0
125,125.73,123.46,0
127,125.76,123.49,0
128,125.80,123.54,0
125,125.79,123.55,0
127,125.81,123.59,0
125,125.79,123.60,0
125,125.78,123.62,0
125,125.76,123.63,0
125,125.75,123.64,0
124,125.71,123.65,0
125,125.70,123.66,0
127,125.72,123.69,0
125,125.71,123.71,0
123,125.65,123.70,0
127,125.68,123.73,0
125,125.67,123.75,0
125,125.65,123.76,0
124,125.62,123.76,0
123,125.57,123.75,0
127,125.60,123.78,0
124,125.57,123.79,0
124,125.53,123.79,0
123,125.48,123.78,0
123,125.43,123.77,0
125,125.43,123.79,0
123,125.38,123.78,0
124,125.35,123.78,0
124,125.32,123.78,0
123,125.28,123.77,0
125,125.27,123.79,0
123,125.23,123.78,0
127,125.26,123.81,0
123,125.22,123.80,0
123,125.17,123.79,0
125,125.17,123.81,0
125,125.16,123.82,0
125,125.16,123.83,0
123,125.12,123.82,0
127,125.16,123.85,0
123,125.11,123.85,0
125,125.11,123.86,0
127,125.15,123.89,0
125,125.15,123.90,0
124,125.12,123.90,0
125,125.12,123.91,0
123,125.08,123.90,0
125,125.08,123.91,0
127,125.11,123.94,0
128,125.17,123.99,0
124,125.15,123.99,0
125,125.15,124.00,0
126,125.16,124.02,0
125,125.16,124.03,0
125,125.16,124.04,0
126,125.17,124.05,0
127,125.21,124.08,0
123,125.17,124.07,0
128,125.22,124.11,0
127,125.26,124.14,0
124,125.23,124.14,0
123,125.19,124.13,0
127,125.22,124.16,0
126,125.24,124.18,0
127,125.27,124.20,0
123,125.23,124.19,0
125,125.22,124.20,0
125,125.22,124.21,0
125,125.22,124.22,0
127,125.25,124.24,0
125,125.25,124.25,0
124,125.22,124.25,0
129,125.30,124.30,0
127,125.33,124.32,0
125,125.32,124.33,0
129,125.40,124.38,0
125,125.39,124.38,0
125,125.38,124.39,0
128,125.43,124.43,0
127,125.47,124.45,0
125,125.46,124.46,0
127,125.49,124.48,0
125,125.48,124.49,0
133,125.63,124.57,0
127,125.66,124.60,0
127,125.68,124.62,0
125,125.67,124.62,0
127,125.70,124.65,0
125,125.68,124.65,0
127,125.71,124.68,0
126,125.71,124.69,0
127,125.74,124.71,0
127,125.76,124.73,0
129,125.83,124.78,0
125,125.81,124.78,0
127,125.84,124.80,0
129,125.90,124.84,0
135,126.08,124.95,0
129,126.14,124.99,0
132,126.26,125.06,0
134,126.41,125.15,0
130,126.48,125.19,0
132,126.59,125.26,0
129,126.64,125.30,0
129,126.69,125.34,0
131,126.78,125.39,0
129,126.82,125.43,0
130,126.88,125.47,0
131,126.97,125.53,0
129,127.01,125.56,0
130,127.07,125.61,0
132,127.17,125.67,0
129,127.20,125.71,0
133,127.32,125.78,0
129,127.35,125.81,0
130,127.40,125.85,0
133,127.52,125.92,0
132,127.61,125.99,0
131,127.67,126.04,0
132,127.76,126.10,0
131,127.83,126.14,0
131,127.89,126.19,0
132,127.97,126.25,0
131,128.03,126.30,0
133,128.13,126.37,0
131,128.19,126.41,0
135,128.32,126.50,0
132,128.40,126.55,0
137,128.57,126.66,0
133,128.66,126.72,0
131,128.71,126.76,0
133,128.79,126.83,0
132,128.86,126.88,0
133,128.94,126.94,0
134,129.04,127.01,0
134,129.14,127.08,0
135,129.26,127.16,0
133,129.33,127.22,0
131,129.36,127.25,0
133,129.44,127.31,0
132,129.49,127.36,0
133,129.56,127.42,0
132,129.61,127.46,0
131,129.64,127.50,0
131,129.66,127.53,0
133,129.73,127.59,0
135,129.83,127.66,0
133,129.90,127.71,0
132,129.94,127.76,0
133,130.00,127.81,0
131,130.02,127.84,0
135,130.12,127.91,0
135,130.22,127.98,0
132,130.25,128.02,0
135,130.35,128.09,0
136,130.46,128.17,0
136,130.57,128.25,0
133,130.62,128.30,0
132,130.65,128.34,0
133,130.70,128.38,0
133,130.74,128.43,0
141,130.95,128.55,0
135,131.03,128.62,0
138,131.17,128.71,0
133,131.20,128.76,0
135,131.28,128.82,0
141,131.47,128.94,0
136,131.57,129.01,0
135,131.63,129.07,0
136,131.72,129.14,0
139,131.87,129.24,0
137,131.97,129.32,0
141,132.15,129.43,0
137,132.25,129.51,0
137,132.34,129.58,0
144,132.58,129.73,0
137,132.66,129.80,0
136,132.73,129.86,0
143,132.94,129.99,0
143,133.14,130.12,0
139,133.25,130.21,0
139,133.37,130.30,0
140,133.50,130.40,0
141,133.65,130.50,0
143,133.84,130.63,0
141,133.98,130.73,0
140,134.10,130.82,0
140,134.22,130.92,0
139,134.32,131.00,0
139,134.41,131.08,0
141,134.54,131.18,0
140,134.65,131.26,0
141,134.78,131.36,0
138,134.84,131.43,0
140,134.95,131.51,0
140,135.05,131.60,0
139,135.13,131.67,0
138,135.18,131.74,0
145,135.38,131.87,0
142,135.51,131.97,0
148,135.76,132.13,0
145,135.95,132.26,0
144,136.11,132.38,0
141,136.21,132.46,0
145,136.38,132.59,0
148,136.61,132.74,0
153,136.94,132.94,0
149,137.18,133.11,0
143,137.30,133.20,0
149,137.53,133.36,0
145,137.68,133.48,0
152,137.97,133.66,0
156,138.33,133.89,0
154,138.64,134.09,0
147,138.81,134.22,0
156,139.15,134.44,0
158,139.53,134.67,0
153,139.80,134.85,0
153,140.06,135.04,0
155,140.36,135.24,0
151,140.58,135.39,0
155,140.86,135.59,0
151,141.07,135.74,0
150,141.25,135.89,0
157,141.56,136.10,0
159,141.91,136.33,0
153,142.13,136.49,0
153,142.35,136.66,0
159,142.68,136.88,0
153,142.89,137.04,0
154,143.11,137.21,0
153,143.31,137.37,0
154,143.52,137.54,0
153,143.71,137.69,0
153,143.90,137.84,0
153,144.08,138.00,0
154,144.28,138.16,0
154,144.47,138.31,0
152,144.62,138.45,0
153,144.79,138.60,0
157,145.03,138.78,0
157,145.27,138.96,0
163,145.63,139.20,0
155,145.82,139.36,0
159,146.08,139.56,0
157,146.30,139.73,0
158,146.53,139.91,0
161,146.82,140.13,0
163,147.14,140.35,0
162,147.44,140.57,0
159,147.67,140.75,0
164,148.00,140.99,0
163,148.30,141.21,0
160,148.53,141.40,0
163,148.82,141.61,0
161,149.07,141.81,0
165,149.39,142.04,0
170,149.80,142.32,0
175,150.30,142.64,0
170,150.70,142.92,0
165,150.98,143.14,0
171,151.38,143.42,0
178,151.91,143.76,0
176,152.40,144.08,0
173,152.81,144.37,0
168,153.11,144.61,0
167,153.39,144.83,0
169,153.70,145.08,0
177,154.17,145.39,0
174,154.56,145.68,0
173,154.93,145.95,0
177,155.37,146.26,0
173,155.73,146.53,0
172,156.05,146.79,0
177,156.47,147.09,0
182,156.98,147.44,0
183,157.50,147.79,0
177,157.89,148.09,0
176,158.25,148.36,0
181,158.71,148.69,0
175,159.04,148.95,0
179,159.43,149.25,0
175,159.75,149.51,0
177,160.09,149.79,0
181,160.51,150.10,0
185,161.00,150.45,0
179,161.36,150.73,0
183,161.79,151.06,0
183,162.22,151.38,0
185,162.67,151.71,0
185,163.12,152.04,0
183,163.52,152.35,0
179,163.83,152.62,0
183,164.21,152.92,0
189,164.70,153.29,0
187,165.15,153.62,0
185,165.55,153.94,0
189,166.02,154.29,0
191,166.52,154.65,0
190,166.99,155.01,0
187,167.39,155.33,0
194,167.92,155.71,0
203,168.62,156.19,0
200,169.25,156.63,0
191,169.68,156.97,0
201,170.31,157.41,0
207,171.04,157.91,0
207,171.76,158.40,0
197,172.27,158.78,0
201,172.84,159.20,0
201,173.40,159.62,0
201,173.96,160.04,0
197,174.42,160.41,0
199,174.91,160.79,0
207,175.55,161.25,0
203,176.10,161.67,0
201,176.60,162.06,0
204,177.15,162.48,0
204,177.68,162.90,0
203,178.19,163.30,0
205,178.73,163.72,0
205,179.25,164.13,0
202,179.71,164.51,0
207,180.25,164.93,0
210,180.85,165.38,0
203,181.29,165.76,0
205,181.76,166.15,0
202,182.17,166.51,0
207,182.67,166.92,0
208,183.17,167.33,0
209,183.69,167.74,0
205,184.12,168.12,0
203,184.49,168.47,0
203,184.86,168.81,0
207,185.31,169.19,0
204,185.68,169.54,0
209,186.15,169.94,0
207,186.56,170.31,0
203,186.89,170.63,0
204,187.23,170.97,0
213,187.75,171.39,0
209,188.17,171.76,0
205,188.51,172.10,0
213,189.00,172.50,0
217,189.56,172.95,0
220,190.17,173.42,0
209,190.55,173.78,0
215,191.04,174.19,0
225,191.71,174.70,0
228,192.44,175.23,0
228,193.15,175.76,0
215,193.59,176.15,0
217,194.06,176.56,0
220,194.58,176.99,0
221,195.10,177.43,0
220,195.60,177.86,0
219,196.07,178.27,0
215,196.45,178.64,0
218,196.88,179.03,0
219,197.32,179.43,0
216,197.70,179.80,0
217,198.08,180.17,0
217,198.46,180.54,0
215,198.79,180.88,0
216,199.13,181.23,0
215,199.45,181.57,0
215,199.76,181.90,0
213,200.03,182.21,0
215,200.33,182.54,0
213,200.58,182.85,0
213,200.83,183.15,0
214,201.09,183.46,0
211,201.29,183.73,0
212,201.50,184.02,0
214,201.75,184.32,0
213,201.98,184.60,0
211,202.16,184.87,0
211,202.34,185.13,0
210,202.49,185.38,0
211,202.66,185.63,0
211,202.83,185.89,0
210,202.97,186.13,0
210,203.11,186.37,0
210,203.25,186.60,0
211,203.40,186.85,0
209,203.52,187.07,0
209,203.63,187.29,0
208,203.71,187.49,0
208,203.80,187.70,0
208,203.88,187.90,0
207,203.95,188.09,0
210,204.07,188.31,0
215,204.29,188.58,0
213,204.46,188.82,0
209,204.55,189.03,0
219,204.84,189.32,0
217,205.08,189.60,0
213,205.24,189.84,0
212,205.38,190.06,0
210,205.47,190.26,0
210,205.56,190.45,0
209,205.63,190.64,0
210,205.72,190.83,0
211,205.82,191.03,0
210,205.90,191.22,0
208,205.95,191.39,0
209,206.01,191.57,0
209,206.07,191.74,0
209,206.13,191.92,0
209,206.18,192.09,0
207,206.20,192.24,0
208,206.24,192.39,0
209,206.29,192.56,0
207,206.31,192.70,0
206,206.30,192.84,0
207,206.31,192.98,0
206,206.31,193.11,0
208,206.34,193.26,0
207,206.35,193.39,0
205,206.33,193.51,0
205,206.30,193.63,0
204,206.25,193.73,0
204,206.21,193.83,0
204,206.17,193.93,0
204,206.12,194.03,0
203,206.06,194.12,0
207,206.08,194.25,0
205,206.06,194.36,0
203,206.00,194.45,0
203,205.94,194.53,0
201,205.84,194.60,0
203,205.78,194.68,0
203,205.72,194.76,0
201,205.63,194.83,0
202,205.56,194.90,0
205,205.55,195.00,0
203,205.50,195.08,0
201,205.41,195.14,0
201,205.32,195.20,0
200,205.21,195.25,0
200,205.11,195.29,0
201,205.02,195.35,0
200,204.92,195.40,0
199,204.81,195.43,0
200,204.71,195.48,0
200,204.62,195.52,0
199,204.50,195.56,0
199,204.39,195.59,0
199,204.29,195.63,0
199,204.18,195.66,0
197,204.04,195.67,0
197,203.90,195.69,0
197,203.76,195.70,0
196,203.60,195.70,0
197,203.47,195.72,0
196,203.32,195.72,0
195,203.15,195.71,0
196,203.01,195.71,0
195,202.85,195.71,0
194,202.67,195.69,0
194,202.50,195.67,0
194,202.33,195.66,0
194,202.16,195.64,0
193,201.98,195.61,0
194,201.82,195.60,0
192,201.62,195.56,0
191,201.41,195.52,0
192,201.22,195.48,0
191,201.02,195.44,0
191,200.82,195.39,0
191,200.62,195.35,0
191,200.43,195.30,0
191,200.24,195.26,0
192,200.08,195.23,0
190,199.88,195.18,0
190,199.68,195.12,0
189,199.46,195.06,0
189,199.25,195.00,0
189,199.05,194.94,0
189,198.85,194.88,0
189,198.65,194.82,0
189,198.46,194.77,0
189,198.27,194.71,0
189,198.08,194.65,0
188,197.88,194.58,0
188,197.68,194.52,0
187,197.47,194.44,0
187,197.26,194.37,0
185,197.02,194.28,0
186,196.80,194.19,0
186,196.58,194.11,0
185,196.35,194.02,0
186,196.14,193.94,0
185,195.92,193.85,0
185,195.70,193.76,0
184,195.47,193.66,0
185,195.26,193.58,0
184,195.03,193.48,0
183,194.79,193.38,0
183,194.56,193.27,0
184,194.34,193.18,0
183,194.12,193.08,0
183,193.90,192.98,0
181,193.64,192.86,0
181,193.38,192.74,0
183,193.18,192.64,0
181,192.93,192.53,0
181,192.69,192.41,0
181,192.46,192.30,0
181,192.23,192.18,1
181,192.01,192.07,1
181,191.79,191.96,1
179,191.53,191.83,1
181,191.32,191.72,1
180,191.09,191.61,1
180,190.87,191.49,1
178,190.61,191.35,1
180,190.40,191.24,1
179,190.17,191.12,1
178,189.93,190.99,1
177,189.67,190.85,1
176,189.40,190.70,1
177,189.15,190.56,1
177,188.91,190.43,1
177,188.67,190.29,1
177,188.44,190.16,1
176,188.19,190.02,1
176,187.94,189.88,1
177,187.72,189.75,1
176,187.49,189.61,1
175,187.24,189.47,1
175,187.00,189.32,1
175,186.76,189.18,1
176,186.54,189.05,1
177,186.35,188.93,1
175,186.12,188.79,1
173,185.86,188.63,1
173,185.60,188.47,1
175,185.39,188.34,1
175,185.18,188.20,1
174,184.96,188.06,1
173,184.72,187.91,1
173,184.49,187.76,1
173,184.26,187.61,1
173,184.03,187.47,1
173,183.81,187.32,1
172,183.57,187.17,1
173,183.36,187.03,1
171,183.12,186.87,1
171,182.87,186.71,1
171,182.64,186.55,1
171,182.40,186.40,1
172,182.20,186.25,1
171,181.97,186.10,1
171,181.75,185.95,1
169,181.50,185.78,1
170,181.27,185.62,1
171,181.06,185.48,1
169,180.82,185.31,1
170,180.60,185.16,1
173,180.45,185.04,1
169,180.22,184.88,1
169,180.00,184.72,1
168,179.76,184.55,1
169,179.54,184.39,1
169,179.33,184.24,1
168,179.11,184.08,1
166,178.84,183.90,1
167,178.61,183.73,1
167,178.37,183.56,1
167,178.15,183.40,1
168,177.94,183.24,1
166,177.71,183.07,1
165,177.45,182.89,1
166,177.22,182.72,1
165,176.98,182.54,1
166,176.76,182.38,1
165,176.52,182.20,1
165,176.29,182.03,1
165,176.07,181.86,1
165,175.85,181.69,1
165,175.63,181.53,1
163,175.38,181.34,1
164,175.15,181.17,1
164,174.93,181.00,1
164,174.71,180.83,1
164,174.49,180.66,1
163,174.26,180.48,1
164,174.06,180.32,1
163,173.84,180.14,1
163,173.62,179.97,1
162,173.39,179.79,1
161,173.14,179.60,1
161,172.90,179.42,1
164,172.72,179.26,1
161,172.48,179.08,1
160,172.23,178.89,1
162,172.03,178.72,1
163,171.85,178.56,1
161,171.63,178.39,1
161,171.42,178.21,1
160,171.19,178.03,1
161,170.99,177.86,1
161,170.79,177.69,1
161,170.59,177.53,1
159,170.36,177.34,1
159,170.13,177.16,1
161,169.95,177.00,1
161,169.77,176.84,1
161,169.60,176.68,1
160,169.40,176.51,1
159,169.20,176.34,1
159,168.99,176.16,1
161,168.83,176.01,1
160,168.66,175.85,1
159,168.46,175.68,1
158,168.25,175.51,1
158,168.05,175.33,1
159,167.87,175.17,1
157,167.65,174.99,1
157,167.44,174.81,1
157,167.23,174.63,1
157,167.02,174.45,1
157,166.82,174.28,1
157,166.63,174.10,1
157,166.43,173.93,1
157,166.25,173.76,1
158,166.08,173.61,1
157,165.90,173.44,1
155,165.68,173.26,1
157,165.51,173.09,1
156,165.32,172.92,1
159,165.19,172.78,1
157,165.03,172.63,1
155,164.83,172.45,1
156,164.65,172.28,1
157,164.50,172.13,1
157,164.35,171.98,1
155,164.16,171.81,1
155,163.98,171.64,1
154,163.78,171.47,1
155,163.60,171.30,1
154,163.41,171.13,1
153,163.20,170.95,1
154,163.02,170.78,1
153,162.82,170.60,1
153,162.62,170.42,1
154,162.45,170.26,1
153,162.26,170.09,1
153,162.07,169.92,1
153,161.89,169.75,1
153,161.72,169.58,1
152,161.52,169.40,1
152,161.33,169.23,1
154,161.18,169.08,1
154,161.04,168.93,1
153,160.88,168.77,1
153,160.72,168.61,1
153,160.57,168.45,1
155,160.46,168.32,1
154,160.33,168.18,1
153,160.18,168.02,1
153,160.04,167.87,1
152,159.88,167.71,1
156,159.80,167.60,1
153,159.66,167.45,1
151,159.49,167.29,1
153,159.36,167.14,1
154,159.25,167.01,1
152,159.11,166.86,1
150,158.93,166.69,1
151,158.77,166.54,1
151,158.61,166.38,1
152,158.48,166.24,1
151,158.33,166.09,1
151,158.18,165.93,1
150,158.02,165.78,1
150,157.86,165.62,1
151,157.72,165.47,1
150,157.57,165.32,1
149,157.40,165.15,1
150,157.25,165.00,1
151,157.12,164.86,1
151,157.00,164.72,1
150,156.86,164.58,1
150,156.72,164.43,1
148,156.55,164.27,1
148,156.38,164.10,1
148,156.21,163.94,1
149,156.07,163.79,1
148,155.90,163.64,1
147,155.73,163.47,1
147,155.55,163.30,1
147,155.38,163.14,1
148,155.23,162.99,1
147,155.07,162.83,1
148,154.93,162.68,1
147,154.77,162.52,1
146,154.59,162.36,1
145,154.40,162.19,1
148,154.27,162.04,1
148,154.15,161.90,1
147,154.01,161.75,1
145,153.83,161.59,1
146,153.67,161.43,1
145,153.50,161.27,1
145,153.33,161.10,1
146,153.18,160.95,1
145,153.02,160.79,1
143,152.81,160.62,1
144,152.64,160.45,1
145,152.49,160.29,1
145,152.34,160.14,1
146,152.21,160.00,1
145,152.07,159.85,1
144,151.90,159.69,1
144,151.75,159.54,1
145,151.61,159.39,1
143,151.44,159.23,1
143,151.27,159.06,1
144,151.12,158.91,1
143,150.96,158.75,1
143,150.80,158.60,1
143,150.65,158.44,1
144,150.51,158.30,1
143,150.36,158.14,1
142,150.20,157.98,1
143,150.05,157.83,1
145,149.95,157.70,1
145,149.85,157.58,1
145,149.76,157.45,1
143,149.62,157.31,1
142,149.47,157.15,1
144,149.36,157.02,1
145,149.27,156.90,1
144,149.17,156.77,1
142,149.02,156.62,1
141,148.86,156.47,1
143,148.74,156.33,1
145,148.67,156.22,1
143,148.56,156.09,1
143,148.45,155.96,1
142,148.32,155.82,1
145,148.25,155.71,1
143,148.15,155.58,1
143,148.04,155.46,1
141,147.90,155.31,1
142,147.78,155.18,1
145,147.73,155.08,1
142,147.61,154.95,1
141,147.48,154.81,1
141,147.35,154.67,1
141,147.22,154.53,1
142,147.12,154.41,1
142,147.02,154.28,1
142,146.92,154.16,1
141,146.80,154.03,1
142,146.70,153.91,1
141,146.59,153.78,1
141,146.48,153.65,1
140,146.35,153.51,1
140,146.22,153.38,1
141,146.12,153.26,1
140,145.99,153.12,1
138,145.83,152.97,1
141,145.74,152.85,1
143,145.68,152.75,1
140,145.57,152.63,1
140,145.46,152.50,1
140,145.35,152.37,1
141,145.26,152.26,1
143,145.22,152.17,1
142,145.15,152.07,1
139,145.03,151.94,1
139,144.91,151.81,1
141,144.83,151.70,1
141,144.75,151.59,1
141,144.68,151.49,1
142,144.62,151.39,1
139,144.51,151.27,1
141,144.44,151.16,1
143,144.41,151.08,1
142,144.37,150.99,1
141,144.30,150.89,1
139,144.19,150.77,1
141,144.13,150.68,1
141,144.07,150.58,1
140,143.98,150.47,1
139,143.88,150.36,1
140,143.81,150.25,1
140,143.73,150.15,1
139,143.64,150.04,1
139,143.54,149.93,1
139,143.45,149.82,1
140,143.38,149.72,1
141,143.34,149.64,1
139,143.25,149.53,1
139,143.16,149.42,1
140,143.10,149.33,1
140,143.04,149.24,1
138,142.94,149.12,1
138,142.84,149.01,1
139,142.76,148.91,1
142,142.75,148.84,1
140,142.69,148.75,1
137,142.58,148.64,1
137,142.47,148.52,1
137,142.36,148.41,1
138,142.27,148.30,1
140,142.22,148.22,1
137,142.12,148.11,1
137,142.02,148.00,1
138,141.94,147.90,1
140,141.90,147.82,1
138,141.82,147.72,1
137,141.72,147.61,1
137,141.63,147.50,1
138,141.56,147.41,1
137,141.47,147.31,1
136,141.36,147.19,1
137,141.27,147.09,1
137,141.18,146.99,1
139,141.14,146.91,1
138,141.08,146.82,1
137,141.00,146.72,1
136,140.90,146.62,1
137,140.82,146.52,1
139,140.78,146.44,1
138,140.73,146.36,1
137,140.65,146.27,1
137,140.58,146.17,1
137,140.51,146.08,1
139,140.48,146.01,1
137,140.41,145.92,1
135,140.30,145.81,1
135,140.19,145.70,1
137,140.13,145.62,1
137,140.07,145.53,1
135,139.97,145.42,1
137,139.91,145.34,1
137,139.85,145.26,1
137,139.79,145.17,1
137,139.74,145.09,1
136,139.66,145.00,1
137,139.61,144.92,1
139,139.60,144.86,1
139,139.58,144.80,1
138,139.55,144.74,1
136,139.48,144.65,1
137,139.43,144.57,1
137,139.38,144.50,1
137,139.34,144.42,1
136,139.27,144.34,1
135,139.18,144.24,1
136,139.12,144.16,1
137,139.08,144.09,1
137,139.04,144.02,1
135,138.95,143.93,1
135,138.88,143.84,1
136,138.82,143.76,1
137,138.78,143.69,1
136,138.73,143.62,1
135,138.65,143.53,1
135,138.58,143.45,1
136,138.53,143.37,1
135,138.46,143.29,1
135,138.39,143.20,1
133,138.28,143.10,1
134,138.19,143.01,1
135,138.13,142.93,1
134,138.05,142.84,1
133,137.95,142.74,1
133,137.85,142.65,1
135,137.79,142.57,1
134,137.71,142.48,1
134,137.64,142.40,1
133,137.55,142.30,1
133,137.46,142.21,1
134,137.39,142.13,1
135,137.34,142.06,1
133,137.25,141.97,1
133,137.17,141.88,1
133,137.08,141.79,1
134,137.02,141.71,1
134,136.96,141.63,1
132,136.86,141.54,1
133,136.79,141.45,1
133,136.71,141.37,1
134,136.66,141.29,1
133,136.58,141.21,1
133,136.51,141.13,1
131,136.40,141.03,1
132,136.31,140.94,1
133,136.25,140.86,1
132,136.16,140.77,1
132,136.08,140.68,1
133,136.02,140.61,1
133,135.96,140.53,1
131,135.86,140.43,1
129,135.72,140.32,1
131,135.63,140.23,1
131,135.53,140.13,1
132,135.46,140.05,1
131,135.37,139.96,1
129,135.25,139.85,1
131,135.16,139.76,1
131,135.08,139.68,1
132,135.02,139.60,1
130,134.92,139.50,1
131,134.84,139.42,1
130,134.74,139.32,1
132,134.69,139.25,1
130,134.59,139.16,1
128,134.46,139.05,1
131,134.39,138.97,1
130,134.30,138.88,1
131,134.24,138.80,1
130,134.15,138.71,1
129,134.05,138.61,1
130,133.97,138.53,1
131,133.91,138.45,1
130,133.83,138.37,1
129,133.73,138.27,1
129,133.64,138.18,1
129,133.55,138.09,1
130,133.48,138.01,1
129,133.39,137.92,1
128,133.28,137.82,1
129,133.19,137.73,1
129,133.11,137.64,1
129,133.03,137.56,1
129,132.95,137.47,1
129,132.87,137.39,1
129,132.79,137.30,1
129,132.71,137.22,1
129,132.64,137.14,1
128,132.55,137.05,1
127,132.44,136.95,1
127,132.33,136.85,1
130,132.28,136.78,1
129,132.22,136.70,1
127,132.11,136.60,1
127,132.01,136.51,1
128,131.93,136.42,1
129,131.87,136.35,1
129,131.81,136.27,1
127,131.72,136.18,1
128,131.64,136.10,1
128,131.57,136.02,1
129,131.52,135.95,1
127,131.43,135.86,1
127,131.34,135.77,1
131,131.33,135.72,1
129,131.29,135.66,1
128,131.22,135.58,1
127,131.14,135.49,1
127,131.05,135.41,1
127,130.97,135.32,1
128,130.91,135.25,1
127,130.83,135.17,1
125,130.72,135.07,1
125,130.60,134.97,1
128,130.55,134.90,1
127,130.48,134.82,1
126,130.39,134.73,1
125,130.28,134.63,1
126,130.20,134.55,1
127,130.13,134.47,1
124,130.01,134.37,1
125,129.91,134.27,1
125,129.81,134.18,1
127,129.76,134.11,1
126,129.68,134.03,1
125,129.59,133.94,1
125,129.50,133.85,1
125,129.41,133.76,1
127,129.36,133.69,1
127,129.31,133.62,1
125,129.22,133.54,1
125,129.14,133.45,1
126,129.08,133.38,1
127,129.04,133.31,1
127,128.99,133.25,1
124,128.89,133.16,1
125,128.82,133.08,1
125,128.74,133.00,1
125,128.67,132.92,1
123,128.55,132.82,1
124,128.46,132.73,1
125,128.39,132.65,1
125,128.32,132.57,1
124,128.24,132.49,1
125,128.17,132.41,1
125,128.11,132.34,1
125,128.05,132.27,1
124,127.97,132.18,1
126,127.93,132.12,1
123,127.83,132.03,1
124,127.75,131.95,1
125,127.70,131.88,1
125,127.64,131.81,1
125,127.59,131.74,1
125,127.54,131.68,1
125,127.49,131.61,1
125,127.44,131.54,1
125,127.39,131.48,1
123,127.30,131.39,1
124,127.24,131.32,1
125,127.19,131.26,1
125,127.15,131.19,1
125,127.10,131.13,1
123,127.02,131.05,1
124,126.96,130.98,1
124,126.90,130.91,1
124,126.84,130.84,1
124,126.79,130.77,1
121,126.67,130.68,1
121,126.56,130.58,1
122,126.47,130.49,1
121,126.36,130.40,1
121,126.25,130.30,1
121,126.15,130.21,1
122,126.06,130.13,1
123,126.00,130.06,1
121,125.90,129.97,1
121,125.80,129.88,1
121,125.71,129.79,1
124,125.67,129.73,1
125,125.66,129.68,1
123,125.61,129.62,1
121,125.51,129.53,1
121,125.42,129.44,1
124,125.40,129.39,1
124,125.37,129.34,1
121,125.28,129.25,1
121,125.19,129.17,1
122,125.13,129.10,1
121,125.05,129.02,1
120,124.95,128.93,1
121,124.87,128.85,1
120,124.77,128.76,1
121,124.70,128.68,1
120,124.60,128.60,1
121,124.53,128.52,1
121,124.46,128.44,1
121,124.39,128.37,1
120,124.30,128.29,1
121,124.24,128.21,1
119,124.13,128.12,1
120,124.05,128.04,1
120,123.97,127.96,1
121,123.91,127.89,1
121,123.85,127.82,1
119,123.75,127.73,1
119,123.66,127.65,1
118,123.54,127.55,1
119,123.45,127.46,1
120,123.38,127.39,1
121,123.34,127.33,1
120,123.27,127.25,1
122,123.24,127.20,1
121,123.20,127.14,1
119,123.12,127.06,1
119,123.03,126.98,1
120,122.97,126.91,1
121,122.93,126.85,1
119,122.85,126.77,1
121,122.82,126.71,1
124,122.84,126.68,1
123,122.84,126.65,1
121,122.81,126.59,1
121,122.77,126.53,1
119,122.70,126.46,1
124,122.72,126.43,1
125,122.77,126.42,1
125,122.81,126.41,1
121,122.78,126.35,1
123,122.78,126.32,1
122,122.77,126.28,1
123,122.77,126.24,1
121,122.73,126.19,1
121,122.70,126.14,1
121,122.67,126.09,1
121,122.63,126.04,1
121,122.60,125.99,1
119,122.53,125.92,1
120,122.48,125.86,1
121,122.45,125.81,1
121,122.42,125.76,1
119,122.35,125.69,1
120,122.30,125.64,1
120,122.26,125.58,1
121,122.23,125.53,1
123,122.25,125.51,1
123,122.26,125.48,1
121,122.24,125.44,1
121,122.21,125.39,1
123,122.23,125.37,1
123,122.24,125.35,1
122,122.24,125.31,1
121,122.21,125.27,1
124,122.25,125.26,1
122,122.24,125.22,1
125,122.30,125.22,1
123,122.31,125.20,1
122,122.31,125.17,1
121,122.28,125.13,1
122,122.28,125.09,1
123,122.29,125.07,1
123,122.30,125.05,1
122,122.30,125.02,1
121,122.27,124.98,1
121,122.25,124.94,1
121,122.22,124.90,1
121,122.20,124.86,1
120,122.15,124.82,1
120,122.11,124.77,1
122,122.11,124.74,1
119,122.05,124.68,1
121,122.03,124.65,1
121,122.00,124.61,1
123,122.02,124.59,1
121,122.00,124.56,1
122,122.00,124.53,1
124,122.04,124.53,1
123,122.06,124.51,1
121,122.04,124.48,1
120,122.00,124.43,1
123,122.02,124.42,1
123,122.04,124.40,1
121,122.02,124.37,1
121,122.00,124.33,1
121,121.98,124.30,1
121,121.96,124.27,1
124,122.00,124.27,1
123,122.02,124.25,1
122,122.02,124.23,1
122,122.02,124.21,1
123,122.04,124.20,1
124,122.08,124.19,1
122,122.08,124.17,1
123,122.10,124.16,1
123,122.11,124.15,1
121,122.09,124.12,1
123,122.11,124.11,1
121,122.09,124.08,1
121,122.07,124.04,1
123,122.08,124.03,1
122,122.08,124.01,1
122,122.08,123.99,1
122,122.08,123.97,1
121,122.06,123.94,1
124,122.10,123.94,1
125,122.15,123.95,1
121,122.13,123.93,1
123,122.15,123.92,1
124,122.19,123.92,1
123,122.20,123.91,1
123,122.22,123.90,1
123,122.23,123.89,1
123,122.25,123.88,1
122,122.24,123.86,1
124,122.28,123.86,1
124,122.31,123.86,1
122,122.31,123.85,1
123,122.32,123.84,1
122,122.31,123.82,1
125,122.37,123.83,1
123,122.38,123.82,1
125,122.43,123.83,1
122,122.42,123.82,1
123,122.44,123.81,1
123,122.45,123.80,1
121,122.42,123.77,1
121,122.39,123.74,1
123,122.40,123.74,1
121,122.37,123.71,1
123,122.39,123.70,1
121,122.36,123.68,1
122,122.35,123.66,1
121,122.33,123.63,1
123,122.34,123.63,1
125,122.39,123.64,1
124,122.42,123.64,1
121,122.40,123.62,1
121,122.37,123.59,1
122,122.36,123.57,1
123,122.37,123.57,1
121,122.35,123.54,1
121,122.32,123.52,1
121,122.29,123.49,1
121,122.27,123.47,1
121,122.24,123.44,1
121,122.22,123.42,1
120,122.17,123.38,1
123,122.19,123.38,1
121,122.16,123.36,1
123,122.18,123.35,1
122,122.18,123.34,1
121,122.15,123.32,1
120,122.11,123.28,1
121,122.09,123.26,1
121,122.07,123.24,1
122,122.07,123.23,1
120,122.02,123.19,1
121,122.00,123.17,1
122,122.00,123.16,1
120,121.96,123.13,1
121,121.94,123.11,1
124,121.99,123.12,1
120,121.95,123.08,1
120,121.91,123.05,1
121,121.89,123.03,1
123,121.91,123.03,1
120,121.87,123.00,1
121,121.86,122.98,1
121,121.84,122.96,1
120,121.80,122.93,1
120,121.77,122.90,1
120,121.73,122.87,1
121,121.72,122.86,1
119,121.66,122.82,1
124,121.71,122.83,1
127,121.81,122.87,1
123,121.84,122.87,1
123,121.86,122.87,1
121,121.84,122.85,1
127,121.95,122.90,1
122,121.95,122.89,1
122,121.95,122.88,1
124,121.99,122.89,1
124,122.03,122.90,1
127,122.13,122.94,1
125,122.19,122.96,1
125,122.24,122.98,1
127,122.34,123.02,1
123,122.35,123.02,1
129,122.48,123.08,1
125,122.53,123.10,1
124,122.56,123.11,1
126,122.63,123.14,1
127,122.72,123.18,1
127,122.81,123.22,1
125,122.85,123.23,1
127,122.93,123.27,1
127,123.01,123.31,1
125,123.05,123.33,1
130,123.19,123.39,1
126,123.25,123.42,1
131,123.40,123.49,1
130,123.54,123.56,1
126,123.59,123.58,1
133,123.77,123.68,1
128,123.86,123.72,1
128,123.94,123.76,1
129,124.04,123.82,1
129,124.14,123.87,1
132,124.30,123.95,1
131,124.43,124.02,1
128,124.50,124.06,1
134,124.69,124.16,1
131,124.82,124.23,1
132,124.96,124.31,1
129,125.04,124.35,1
131,125.16,124.42,1
129,125.24,124.46,1
133,125.40,124.55,1
137,125.63,124.67,1
131,125.73,124.74,1
136,125.94,124.85,1
137,126.16,124.97,1
140,126.44,125.12,1
140,126.71,125.27,1
135,126.88,125.37,1
143,127.20,125.54,1
141,127.47,125.70,1
140,127.72,125.84,1
137,127.91,125.95,1
139,128.13,126.08,1
139,128.35,126.21,1
138,128.54,126.33,1
140,128.77,126.47,1
137,128.94,126.57,1
138,129.12,126.69,1
143,129.39,126.85,1
138,129.57,126.96,1
138,129.74,127.07,1
141,129.96,127.21,1
139,130.14,127.33,1
140,130.34,127.46,1
143,130.59,127.61,1
143,130.84,127.77,1
141,131.04,127.90,1
143,131.28,128.05,1
145,131.56,128.22,1
139,131.71,128.33,1
146,131.99,128.50,1
147,132.29,128.69,1
145,132.55,128.85,1
141,132.71,128.97,1
146,132.98,129.14,1
148,133.28,129.33,1
145,133.52,129.49,1
144,133.73,129.63,1
144,133.93,129.78,1
143,134.11,129.91,1
147,134.37,130.08,1
146,134.60,130.24,1
144,134.79,130.38,1
145,134.99,130.52,1
154,135.37,130.76,1
149,135.65,130.94,1
156,136.05,131.19,1
155,136.43,131.43,1
147,136.64,131.58,1
149,136.89,131.76,1
147,137.09,131.91,1
147,137.29,132.06,1
146,137.47,132.20,1
148,137.68,132.36,1
152,137.96,132.56,1
147,138.14,132.70,1
151,138.40,132.88,1
153,138.69,133.08,1
153,138.98,133.28,1
152,139.24,133.47,1
152,139.49,133.66,1
149,139.68,133.81,1
149,139.87,133.96,1
148,140.03,134.10,1
148,140.19,134.24,1
153,140.45,134.43,1
151,140.66,134.59,1
149,140.83,134.74,1
161,141.23,135.00,1
155,141.51,135.20,1
153,141.74,135.38,1
153,141.96,135.56,1
157,142.26,135.77,1
153,142.48,135.94,1
156,142.75,136.14,1
153,142.95,136.31,1
152,143.13,136.47,1
153,143.33,136.63,1
160,143.66,136.87,1
155,143.89,137.05,1
159,144.19,137.27,1
159,144.49,137.49,1
161,144.82,137.72,1
160,145.12,137.94,1
155,145.32,138.11,1
161,145.63,138.34,1
171,146.14,138.67,1
159,146.40,138.87,1
157,146.61,139.05,1
159,146.86,139.25,1
162,147.16,139.48,1
166,147.54,139.75,1
165,147.89,140.00,1
162,148.17,140.22,1
174,148.69,140.56,1
171,149.13,140.86,1
169,149.53,141.14,1
168,149.90,141.41,1
169,150.28,141.69,1
173,150.74,142.00,1
166,151.04,142.24,1
166,151.34,142.48,1
165,151.61,142.70,1
167,151.92,142.95,1
165,152.18,143.17,1
172,152.58,143.45,1
167,152.87,143.69,1
173,153.27,143.98,1
173,153.66,144.27,1
173,154.05,144.56,1
169,154.35,144.80,1
171,154.68,145.07,1
177,155.13,145.39,1
177,155.57,145.70,1
171,155.88,145.96,1
173,156.22,146.23,1
177,156.63,146.53,1
171,156.92,146.78,1
178,157.34,147.09,1
181,157.82,147.43,1
180,158.26,147.76,1
177,158.63,148.05,1
179,159.04,148.36,1
179,159.44,148.66,1
182,159.89,149.00,1
175,160.19,149.26,1
181,160.61,149.57,1
175,160.90,149.83,1
188,161.44,150.21,1
192,162.05,150.63,1
193,162.67,151.05,1
187,163.16,151.41,1
199,163.87,151.89,1
201,164.62,152.38,1
191,165.14,152.76,1
187,165.58,153.11,1
190,166.07,153.48,1
188,166.51,153.82,1
191,167.00,154.19,1
189,167.44,154.54,1
188,167.85,154.88,1
193,168.35,155.26,1
195,168.89,155.65,1
199,169.49,156.09,1
204,170.18,156.57,1
202,170.81,157.02,1
193,171.26,157.38,1
209,172.01,157.90,1
211,172.79,158.43,1
204,173.42,158.88,1
201,173.97,159.30,1
205,174.59,159.76,1
215,175.40,160.31,1
210,176.09,160.81,1
207,176.71,161.27,1
213,177.43,161.79,1
219,178.26,162.36,1
214,178.98,162.88,1
209,179.58,163.34,1
218,180.35,163.89,1
225,181.24,164.50,1
226,182.14,165.11,1
219,182.87,165.65,1
229,183.80,166.29,1
229,184.70,166.91,1
229,185.59,167.53,1
220,186.27,168.06,1
219,186.93,168.57,1
219,187.57,169.07,1
220,188.22,169.58,1
222,188.89,170.11,1
226,189.64,170.66,1
225,190.34,171.21,1
222,190.98,171.72,1
219,191.54,172.19,1
221,192.13,172.68,1
220,192.68,173.15,1
218,193.19,173.60,1
228,193.89,174.14,1
229,194.59,174.69,1
228,195.26,175.22,1
223,195.81,175.70,1
221,196.32,176.15,1
231,197.01,176.70,1
229,197.65,177.23,1
223,198.16,177.68,1
233,198.85,178.24,1
236,199.60,178.81,1
234,200.28,179.37,1
237,201.02,179.94,1
229,201.58,180.43,1
229,202.13,180.92,1
235,202.78,181.46,1
237,203.47,182.02,1
237,204.14,182.56,1
235,204.76,183.09,1
231,205.28,183.57,1
233,205.84,184.06,1
231,206.34,184.53,1
229,206.79,184.98,1
232,207.30,185.45,1
230,207.75,185.89,1
232,208.24,186.35,1
235,208.77,186.84,1
240,209.40,187.37,1
241,210.03,187.91,1
239,210.61,188.42,1
236,211.11,188.89,1
239,211.67,189.40,1
251,212.46,190.01,1
249,213.19,190.60,1
248,213.89,191.18,1
240,214.41,191.66,1
247,215.06,192.22,1
247,215.70,192.77,1
243,216.25,193.27,1
240,216.72,193.73,1
243,217.25,194.23,1
240,217.70,194.69,1
243,218.21,195.17,1
248,218.80,195.70,1
246,219.35,196.20,1
244,219.84,196.68,1
243,220.30,197.14,1
255,221.00,197.72,1
247,221.52,198.21,1
243,221.95,198.66,1
245,222.41,199.12,1
245,222.86,199.58,1
247,223.34,200.06,1
255,223.98,200.61,1
253,224.56,201.13,1
249,225.04,201.61,1
257,225.68,202.16,1
260,226.37,202.74,1
253,226.90,203.24,1
250,227.36,203.71,1
249,227.80,204.16,1
251,228.26,204.63,1
250,228.70,205.09,1
251,229.14,205.55,1
252,229.60,206.01,1
248,229.97,206.43,1
247,230.31,206.84,1
251,230.72,207.28,1
254,231.19,207.74,1
257,231.70,208.24,1
256,232.19,208.71,1
257,232.69,209.20,1
265,233.33,209.76,1
269,234.05,210.35,1
263,234.62,210.87,1
257,235.07,211.34,1
255,235.47,211.77,1
254,235.84,212.19,1
253,236.18,212.60,1
255,236.56,213.03,1
253,236.89,213.43,1
253,237.21,213.82,1
253,237.53,214.21,1
253,237.84,214.60,1
251,238.10,214.97,1
251,238.36,215.33,1
250,238.59,215.67,1
251,238.84,216.03,1
252,239.10,216.39,1
249,239.30,216.71,1
249,239.49,217.03,1
249,239.68,217.35,1
248,239.85,217.66,1
248,240.01,217.96,1
247,240.15,218.25,1
247,240.29,218.54,1
247,240.42,218.83,1
247,240.56,219.11,1
246,240.67,219.38,1
245,240.75,219.63,1
245,240.84,219.89,1
243,240.88,220.12,1
245,240.96,220.37,1
243,241.00,220.59,1
243,241.04,220.82,1
247,241.16,221.08,1
244,241.22,221.31,1
241,241.21,221.51,1
241,241.21,221.70,1
241,241.21,221.89,1
241,241.20,222.08,1
242,241.22,222.28,1
241,241.21,222.47,1
241,241.21,222.66,1
240,241.19,222.83,1
240,241.16,223.00,1
239,241.12,223.16,1
239,241.08,223.32,1
238,241.01,223.47,1
238,240.95,223.61,1
237,240.88,223.75,1
238,240.82,223.89,1
237,240.74,224.02,1
238,240.69,224.16,1
237,240.61,224.29,1
236,240.52,224.40,1
236,240.43,224.52,1
235,240.32,224.63,1
236,240.24,224.74,1
236,240.15,224.85,1
237,240.09,224.97,1
236,240.01,225.08,1
235,239.91,225.18,1
233,239.77,225.26,1
235,239.67,225.36,1
233,239.54,225.43,1
232,239.39,225.50,1
233,239.26,225.58,1
233,239.13,225.65,1
233,239.01,225.72,1
232,238.87,225.79,1
231,238.71,225.84,1
230,238.54,225.88,1
231,238.39,225.93,1
230,238.22,225.97,1
229,238.04,226.00,1
229,237.86,226.03,1
229,237.68,226.06,1
229,237.51,226.09,1
229,237.34,226.12,1
229,237.17,226.15,1
228,236.99,226.17,1
227,236.79,226.18,1
227,236.59,226.18,1
226,236.38,226.18,1
229,236.23,226.21,1
228,236.07,226.23,1
227,235.88,226.24,1
225,235.67,226.22,1
225,235.45,226.21,1
225,235.24,226.20,1
224,235.02,226.18,1
223,234.78,226.15,1
222,234.52,226.10,1
223,234.29,226.07,1
223,234.07,226.04,1
224,233.87,226.02,1
222,233.63,225.98,1
221,233.38,225.93,1
221,233.13,225.88,1
221,232.89,225.83,1
220,232.63,225.78,1
221,232.40,225.73,1
219,232.13,225.66,1
220,231.89,225.60,1
221,231.67,225.56,1
220,231.43,225.50,1
219,231.19,225.44,1
218,230.92,225.36,1
217,230.64,225.28,1
217,230.37,225.20,1
217,230.10,225.11,1
217,229.84,225.03,1
217,229.58,224.95,1
216,229.31,224.86,1
215,229.03,224.76,1
215,228.75,224.67,1
217,228.51,224.59,1
215,228.24,224.49,1
214,227.96,224.39,1
214,227.68,224.29,1
213,227.38,224.17,1
214,227.12,224.07,1
212,226.81,223.95,1
213,226.54,223.84,1
213,226.27,223.73,1
213,226.00,223.63,1
211,225.70,223.50,1
211,225.41,223.37,1
212,225.14,223.26,1
211,224.86,223.14,1
210,224.56,223.01,1
211,224.29,222.89,1
209,223.98,222.75,1
210,223.70,222.62,1
209,223.41,222.48,1
209,223.12,222.35,1
209,222.84,222.22,1
208,222.54,222.07,1
209,222.27,221.94,1
209,222.00,221.81,1
207,221.70,221.66,2
207,221.41,221.52,2
208,221.14,221.38,2
208,220.88,221.25,2
205,220.56,221.09,2
206,220.27,220.94,2
206,219.99,220.79,2
207,219.73,220.65,2
207,219.47,220.51,2
205,219.18,220.36,2
205,218.90,220.20,2
205,218.62,220.05,2
205,218.35,219.90,2
205,218.08,219.75,2
203,217.78,219.58,2
203,217.48,219.42,2
204,217.21,219.26,2
204,216.95,219.11,2
203,216.67,218.95,2
203,216.40,218.79,2
203,216.13,218.63,2
204,215.89,218.49,2
202,215.61,218.32,2
201,215.32,218.15,2
200,215.01,217.97,2
201,214.73,217.80,2
201,214.46,217.63,2
200,214.17,217.45,2
200,213.88,217.28,2
199,213.59,217.10,2
199,213.29,216.91,2
199,213.01,216.74,2
199,212.73,216.56,2
198,212.43,216.37,2
197,212.12,216.18,2
197,211.82,215.99,2
197,211.53,215.80,2
197,211.24,215.61,2
197,210.95,215.42,2
197,210.67,215.24,2
197,210.40,215.06,2
199,210.17,214.90,2
196,209.89,214.71,2
198,209.65,214.54,2
197,209.40,214.36,2
195,209.11,214.17,2
194,208.81,213.97,2
195,208.53,213.78,2
194,208.24,213.58,2
193,207.93,213.38,2
193,207.64,213.17,2
193,207.34,212.97,2
193,207.06,212.77,2
193,206.78,212.57,2
191,206.46,212.36,2
192,206.17,212.15,2
191,205.87,211.94,2
192,205.59,211.74,2
191,205.30,211.54,2
190,204.99,211.32,2
189,204.67,211.10,2
190,204.38,210.89,2
191,204.11,210.69,2
191,203.85,210.49,2
189,203.55,210.28,2
189,203.26,210.06,2
189,202.98,209.85,2
189,202.70,209.64,2
189,202.42,209.44,2
188,202.13,209.22,2
187,201.83,209.00,2
187,201.53,208.78,2
187,201.24,208.56,2
187,200.96,208.35,2
188,200.70,208.14,2
185,200.39,207.91,2
186,200.10,207.69,2
185,199.80,207.47,2
186,199.52,207.25,2
185,199.23,207.03,2
185,198.95,206.81,2
184,198.65,206.58,2
184,198.35,206.35,2
184,198.07,206.13,2
184,197.78,205.91,2
184,197.51,205.69,2
183,197.22,205.46,2
184,196.95,205.25,2
183,196.68,205.03,2
181,196.36,204.79,2
181,196.05,204.55,2
184,195.81,204.34,2
183,195.56,204.13,2
181,195.27,203.90,2
183,195.02,203.69,2
183,194.78,203.48,2
182,194.52,203.27,2
181,194.25,203.05,2
179,193.95,202.80,2
180,193.67,202.58,2
181,193.42,202.36,2
182,193.19,202.16,2
180,192.92,201.94,2
179,192.65,201.71,2
180,192.39,201.49,2
180,192.15,201.27,2
181,191.92,201.07,2
179,191.66,200.85,2
178,191.39,200.62,2
179,191.14,200.41,2
179,190.90,200.19,2
178,190.64,199.97,2
178,190.39,199.75,2
177,190.12,199.52,2
177,189.86,199.30,2
177,189.60,199.07,2
176,189.33,198.84,2
177,189.08,198.63,2
177,188.84,198.41,2
177,188.60,198.20,2
175,188.33,197.96,2
175,188.07,197.73,2
175,187.80,197.51,2
175,187.55,197.28,2
175,187.30,197.06,2
175,187.05,196.84,2
174,186.79,196.61,2
175,186.56,196.39,2
175,186.32,196.18,2
175,186.10,195.97,2
173,185.84,195.74,2
173,185.58,195.51,2
173,185.33,195.29,2
175,185.12,195.08,2
173,184.88,194.86,2
171,184.60,194.62,2
173,184.37,194.41,2
177,184.22,194.23,2
175,184.04,194.04,2
171,183.78,193.81,2
172,183.54,193.59,2
173,183.33,193.39,2
172,183.10,193.17,2
171,182.86,192.95,2
172,182.64,192.74,2
171,182.41,192.52,2
171,182.18,192.31,2
172,181.98,192.11,2
170,181.74,191.88,2
171,181.52,191.68,2
170,181.29,191.46,2
170,181.07,191.24,2
171,180.87,191.04,2
167,180.59,190.80,2
169,180.36,190.58,2
171,180.17,190.39,2
169,179.95,190.17,2
169,179.73,189.96,2
168,179.49,189.74,2
169,179.28,189.53,2
168,179.06,189.32,2
168,178.84,189.11,2
169,178.64,188.91,2
168,178.43,188.70,2
167,178.20,188.48,2
168,178.00,188.27,2
168,177.80,188.07,2
166,177.56,187.85,2
167,177.35,187.64,2
166,177.12,187.43,2
166,176.90,187.21,2
165,176.66,186.99,2
167,176.47,186.79,2
165,176.24,186.57,2
165,176.01,186.36,2
166,175.81,186.15,2
165,175.60,185.94,2
165,175.39,185.73,2
165,175.18,185.52,2
165,174.97,185.32,2
165,174.77,185.12,2
165,174.58,184.91,2
163,174.35,184.70,2
163,174.12,184.48,2
163,173.90,184.26,2
163,173.68,184.05,2
163,173.47,183.84,2
163,173.26,183.63,2
162,173.03,183.42,2
162,172.81,183.20,2
162,172.60,182.99,2
162,172.38,182.78,2
159,172.12,182.54,2
161,171.89,182.33,2
161,171.68,182.11,2
161,171.46,181.90,2
161,171.25,181.69,2
161,171.05,181.49,2
159,170.81,181.26,2
160,170.59,181.05,2
160,170.38,180.84,2
160,170.17,180.63,2
161,169.99,180.43,2
160,169.79,180.23,2
161,169.61,180.04,2
159,169.40,179.83,2
161,169.23,179.64,2
159,169.03,179.43,2
160,168.85,179.24,2
159,168.65,179.04,2
159,168.46,178.84,2
157,168.23,178.62,2
159,168.04,178.42,2
159,167.86,178.23,2
159,167.69,178.03,2
158,167.49,177.83,2
158,167.30,177.64,2
159,167.14,177.45,2
157,166.93,177.24,2
157,166.73,177.04,2
157,166.54,176.84,2
156,166.33,176.63,2
157,166.14,176.44,2
158,165.98,176.25,2
157,165.80,176.06,2
157,165.62,175.87,2
156,165.43,175.67,2
156,165.24,175.47,2
156,165.06,175.28,2
156,164.88,175.09,2
157,164.72,174.91,2
158,164.58,174.74,2
156,164.41,174.55,2
155,164.22,174.35,2
156,164.06,174.17,2
157,163.92,174.00,2
159,163.82,173.85,2
156,163.66,173.67,2
155,163.49,173.48,2
155,163.32,173.30,2
157,163.19,173.14,2
155,163.03,172.95,2
156,162.89,172.78,2
153,162.69,172.59,2
154,162.52,172.40,2
156,162.39,172.24,2
155,162.24,172.06,2
151,162.02,171.85,2
153,161.84,171.67,2
153,161.66,171.48,2
153,161.49,171.29,2
153,161.32,171.11,2
152,161.13,170.92,2
154,160.99,170.75,2
152,160.81,170.56,2
152,160.63,170.38,2
152,160.46,170.19,2
153,160.31,170.02,2
151,160.12,169.83,2
151,159.94,169.64,2
149,159.72,169.44,2
151,159.55,169.25,2
152,159.40,169.08,2
153,159.27,168.92,2
153,159.14,168.76,2
153,159.02,168.60,2
151,158.86,168.43,2
152,158.72,168.26,2
154,158.63,168.12,2
154,158.54,167.98,2
152,158.40,167.82,2
151,158.26,167.65,2
152,158.13,167.49,2
153,158.03,167.35,2
153,157.93,167.21,2
151,157.79,167.04,2
151,157.65,166.88,2
152,157.54,166.73,2
154,157.47,166.61,2
151,157.34,166.45,2
151,157.21,166.30,2
151,157.09,166.14,2
153,157.01,166.01,2
153,156.93,165.88,2
151,156.81,165.73,2
151,156.69,165.59,2
151,156.58,165.44,2
153,156.51,165.32,2
152,156.42,165.18,2
151,156.31,165.04,2
151,156.20,164.90,2
152,156.12,164.77,2
153,156.06,164.65,2
154,156.02,164.55,2
151,155.92,164.41,2
153,155.86,164.30,2
153,155.80,164.18,2
152,155.72,164.06,2
150,155.61,163.92,2
151,155.52,163.79,2
152,155.45,163.67,2
153,155.40,163.57,2
152,155.33,163.45,2
150,155.22,163.32,2
151,155.14,163.19,2
152,155.08,163.08,2
154,155.05,162.99,2
151,154.97,162.87,2
149,154.85,162.73,2
151,154.78,162.62,2
152,154.72,162.51,2
152,154.67,162.40,2
150,154.57,162.28,2
152,154.52,162.18,2
153,154.49,162.09,2
153,154.46,161.99,2
151,154.39,161.88,2
152,154.34,161.79,2
153,154.32,161.70,2
154,154.31,161.62,2
153,154.29,161.54,2
153,154.26,161.45,2
151,154.19,161.35,2
153,154.17,161.26,2
153,154.15,161.18,2
153,154.12,161.10,2
152,154.08,161.01,2
153,154.06,160.93,2
152,154.02,160.84,2
153,154.00,160.76,2
152,153.96,160.67,2
150,153.88,160.56,2
150,153.80,160.46,2
152,153.77,160.37,2
153,153.75,160.30,2
151,153.70,160.21,2
151,153.64,160.12,2
151,153.59,160.02,2
153,153.58,159.95,2
152,153.55,159.87,2
149,153.45,159.77,2
150,153.39,159.67,2
151,153.34,159.58,2
152,153.31,159.51,2
152,153.28,159.43,2
149,153.20,159.33,2
149,153.11,159.22,2
149,153.03,159.12,2
150,152.97,159.03,2
150,152.91,158.94,2
149,152.83,158.84,2
149,152.76,158.74,2
150,152.70,158.65,2
150,152.65,158.57,2
149,152.58,158.47,2
149,152.50,158.38,2
149,152.43,158.28,2
150,152.39,158.20,2
151,152.36,158.13,2
151,152.33,158.06,2
148,152.24,157.96,2
149,152.18,157.87,2
152,152.18,157.81,2
149,152.11,157.72,2
149,152.05,157.63,2
149,151.99,157.55,2
150,151.95,157.47,2
150,151.91,157.40,2
150,151.87,157.32,2
149,151.81,157.24,2
149,151.76,157.16,2
150,151.72,157.09,2
150,151.69,157.01,2
148,151.61,156.92,2
148,151.54,156.84,2
147,151.45,156.74,2
151,151.44,156.68,2
149,151.39,156.60,2
149,151.35,156.53,2
148,151.28,156.44,2
149,151.23,156.37,2
150,151.21,156.30,2
147,151.12,156.21,2
148,151.06,156.13,2
148,151.00,156.05,2
150,150.98,155.99,2
148,150.92,155.91,2
147,150.84,155.82,2
146,150.75,155.72,2
149,150.71,155.65,2
149,150.68,155.59,2
148,150.62,155.51,2
146,150.53,155.41,2
147,150.46,155.33,2
147,150.39,155.25,2
148,150.34,155.17,2
145,150.24,155.07,2
145,150.13,154.97,2
145,150.03,154.87,2
147,149.97,154.79,2
147,149.91,154.72,2
146,149.83,154.63,2
145,149.73,154.53,2
146,149.66,154.45,2
147,149.61,154.37,2
146,149.53,154.29,2
146,149.46,154.21,2
145,149.37,154.11,2
146,149.31,154.03,2
146,149.24,153.95,2
145,149.16,153.86,2
145,149.07,153.77,2
144,148.97,153.68,2
146,148.91,153.60,2
146,148.85,153.52,2
144,148.76,153.43,2
145,148.68,153.34,2
145,148.61,153.26,2
146,148.56,153.19,2
143,148.44,153.09,2
144,148.36,153.00,2
144,148.27,152.91,2
145,148.20,152.83,2
145,148.14,152.75,2
143,148.04,152.65,2
145,147.98,152.57,2
144,147.90,152.49,2
146,147.86,152.42,2
144,147.78,152.34,2
143,147.69,152.25,2
143,147.59,152.15,2
143,147.50,152.06,2
145,147.45,151.99,2
143,147.36,151.90,2
143,147.27,151.81,2
145,147.23,151.74,2
143,147.14,151.66,2
145,147.10,151.59,2
142,147.00,151.49,2
143,146.92,151.41,2
144,146.86,151.34,2
144,146.80,151.26,2
143,146.73,151.18,2
141,146.61,151.08,2
143,146.54,151.00,2
143,146.47,150.92,2
144,146.42,150.85,2
143,146.35,150.77,2
142,146.26,150.68,2
143,146.20,150.60,2
143,146.14,150.53,2
141,146.03,150.43,2
141,145.93,150.34,2
141,145.83,150.25,2
142,145.76,150.16,2
143,145.70,150.09,2
143,145.65,150.02,2
143,145.59,149.95,2
143,145.54,149.88,2
143,145.49,149.81,2
141,145.40,149.72,2
141,145.31,149.64,2
141,145.23,149.55,2
142,145.16,149.47,2
143,145.12,149.41,2
141,145.04,149.33,2
141,144.96,149.24,2
141,144.88,149.16,2
142,144.82,149.09,2
142,144.76,149.02,2
141,144.69,148.94,2
141,144.61,148.86,2
141,144.54,148.78,2
143,144.51,148.72,2
142,144.46,148.65,2
140,144.37,148.57,2
141,144.30,148.49,2
141,144.24,148.42,2
144,144.23,148.37,2
142,144.19,148.31,2
140,144.11,148.23,2
140,144.02,148.14,2
141,143.96,148.07,2
142,143.92,148.01,2
141,143.87,147.94,2
141,143.81,147.87,2
140,143.73,147.79,2
141,143.68,147.73,2
141,143.62,147.66,2
141,143.57,147.59,2
139,143.48,147.51,2
140,143.41,147.43,2
141,143.36,147.37,2
141,143.31,147.30,2
139,143.23,147.22,2
139,143.14,147.14,2
140,143.08,147.07,2
141,143.04,147.01,2
140,142.98,146.94,2
139,142.90,146.86,2
139,142.82,146.78,2
141,142.78,146.72,2
140,142.73,146.65,2
139,142.65,146.58,2
139,142.58,146.50,2
139,142.51,146.43,2
141,142.48,146.37,2
140,142.43,146.31,2
137,142.32,146.21,2
137,142.21,146.12,2
139,142.15,146.05,2
141,142.13,146.00,2
140,142.09,145.94,2
140,142.04,145.88,2
139,141.98,145.81,2
139,141.92,145.74,2
140,141.88,145.69,2
138,141.81,145.61,2
137,141.71,145.52,2
137,141.62,145.44,2
139,141.56,145.37,2
139,141.51,145.31,2
137,141.42,145.23,2
137,141.33,145.15,2
137,141.25,145.06,2
139,141.20,145.00,2
137,141.12,144.92,2
136,141.02,144.83,2
137,140.94,144.76,2
137,140.86,144.68,2
137,140.78,144.60,2
137,140.70,144.53,2
137,140.63,144.45,2
136,140.54,144.37,2
137,140.47,144.29,2
137,140.40,144.22,2
134,140.27,144.12,2
135,140.16,144.03,2
137,140.10,143.96,2
137,140.04,143.89,2
137,139.98,143.82,2
135,139.88,143.73,2
136,139.80,143.65,2
135,139.70,143.56,2
135,139.61,143.48,2
131,139.44,143.35,2
134,139.33,143.26,2
135,139.24,143.18,2
135,139.16,143.10,2
136,139.10,143.03,2
135,139.01,142.95,2
134,138.91,142.86,2
135,138.83,142.78,2
135,138.76,142.70,2
133,138.64,142.60,2
135,138.57,142.53,2
135,138.50,142.45,2
134,138.41,142.37,2
133,138.30,142.27,2
133,138.19,142.18,2
135,138.13,142.11,2
135,138.07,142.04,2
137,138.05,141.99,2
135,137.99,141.92,2
133,137.89,141.83,2
135,137.83,141.76,2
137,137.81,141.71,2
135,137.76,141.65,2
134,137.68,141.57,2
134,137.61,141.49,2
135,137.55,141.43,2
134,137.48,141.35,2
133,137.39,141.27,2
134,137.33,141.20,2
134,137.26,141.13,2
135,137.21,141.06,2
137,137.21,141.02,2
133,137.13,140.94,2
134,137.06,140.87,2
135,137.02,140.82,2
135,136.98,140.76,2
137,136.98,140.72,2
133,136.90,140.64,2
134,136.84,140.58,2
138,136.87,140.55,2
135,136.83,140.49,2
134,136.77,140.43,2
133,136.70,140.36,2
133,136.62,140.28,2
133,136.55,140.21,2
133,136.48,140.14,2
134,136.43,140.08,2
133,136.36,140.00,2
133,136.30,139.93,2
135,136.27,139.89,2
136,136.26,139.85,2
136,136.26,139.81,2
134,136.21,139.75,2
134,136.17,139.69,2
136,136.17,139.66,2
132,136.08,139.58,2
133,136.02,139.51,2
135,136.00,139.47,2
136,136.00,139.43,2
136,136.00,139.40,2
135,135.98,139.36,2
134,135.94,139.30,2
136,135.94,139.27,2
138,135.98,139.26,2
137,136.00,139.23,2
136,136.00,139.20,2
133,135.94,139.14,2
135,135.92,139.10,2
137,135.95,139.08,2
136,135.95,139.05,2
136,135.95,139.02,2
135,135.93,138.98,2
136,135.93,138.95,2
135,135.91,138.91,2
133,135.85,138.85,2
133,135.80,138.79,2
134,135.76,138.74,2
135,135.75,138.70,2
136,135.75,138.68,2
135,135.74,138.64,2
135,135.72,138.60,2
135,135.71,138.57,2
137,135.73,138.55,2
137,135.76,138.54,2
136,135.76,138.51,2
135,135.75,138.48,2
134,135.71,138.43,2
135,135.70,138.40,2
136,135.70,138.37,2
137,135.73,138.36,2
134,135.70,138.32,2
136,135.70,138.29,2
135,135.69,138.26,2
134,135.65,138.22,2
135,135.64,138.18,2
135,135.63,138.15,2
137,135.66,138.14,2
137,135.68,138.13,2
133,135.63,138.08,2
135,135.62,138.05,2
137,135.64,138.04,2
137,135.67,138.03,2
140,135.76,138.05,2
135,135.74,138.02,2
137,135.77,138.01,2
137,135.79,138.00,2
137,135.82,137.99,2
138,135.86,137.99,2
135,135.84,137.96,2
137,135.87,137.95,2
136,135.87,137.93,2
135,135.85,137.90,2
137,135.87,137.89,2
137,135.90,137.88,2
139,135.96,137.89,2
137,135.98,137.88,2
136,135.98,137.86,2
137,136.00,137.85,2
137,136.02,137.85,2
137,136.04,137.84,2
139,136.10,137.85,2
137,136.12,137.84,2
137,136.13,137.83,2
137,136.15,137.82,2
136,136.15,137.81,2
137,136.17,137.80,2
136,136.16,137.78,2
136,136.16,137.76,2
137,136.18,137.75,2
137,136.19,137.75,2
136,136.19,137.73,2
136,136.19,137.71,2
135,136.16,137.68,2
138,136.20,137.69,2
137,136.21,137.68,2
135,136.19,137.65,2
137,136.21,137.65,2
136,136.20,137.63,2
137,136.22,137.63,2
137,136.23,137.62,2
138,136.27,137.62,2
140,136.34,137.65,2
136,136.34,137.63,2
137,136.35,137.62,2
141,136.44,137.66,2
136,136.43,137.64,2
139,136.49,137.65,2
137,136.50,137.65,2
137,136.51,137.64,2
135,136.48,137.61,2
142,136.59,137.66,2
137,136.59,137.65,2
137,136.60,137.65,2
137,136.61,137.64,2
140,136.68,137.66,2
141,136.76,137.70,2
139,136.81,137.71,2
139,136.85,137.72,2
137,136.86,137.71,2
139,136.90,137.73,2
137,136.90,137.72,2
141,136.98,137.75,2
141,137.06,137.79,2
139,137.10,137.80,2
140,137.16,137.82,2
138,137.18,137.82,2
137,137.17,137.81,2
139,137.21,137.83,2
141,137.29,137.86,2
139,137.32,137.87,2
138,137.33,137.87,2
137,137.33,137.86,2
139,137.36,137.87,2
139,137.39,137.88,2
140,137.45,137.91,2
139,137.48,137.92,2
139,137.51,137.93,2
139,137.54,137.94,2
139,137.57,137.95,2
139,137.59,137.96,2
139,137.62,137.97,2
140,137.67,137.99,2
140,137.72,138.01,2
138,137.72,138.01,2
139,137.75,138.02,2
137,137.73,138.01,2
139,137.76,138.02,2
137,137.74,138.01,2
139,137.77,138.02,2
139,137.79,138.03,2
137,137.78,138.02,2
137,137.76,138.01,2
137,137.75,138.00,2
137,137.73,137.99,2
140,137.78,138.01,2
140,137.82,138.03,2
137,137.81,138.02,2
141,137.87,138.05,2
138,137.87,138.05,2
141,137.93,138.08,2
140,137.98,138.10,3
137,137.96,138.08,3
137,137.94,138.07,3
137,137.92,138.06,3
140,137.96,138.08,4
139,137.98,138.09,4
138,137.98,138.09,5
139,138.00,138.10,5
140,138.04,138.12,6
138,138.04,138.12,6
137,138.02,138.11,7
142,138.10,138.15,7
138,138.10,138.14,8
141,138.16,138.17,8
140,138.19,138.19,9
141,138.25,138.22,9
138,138.24,138.22,10
139,138.26,138.22,10
140,138.29,138.24,11
137,138.27,138.23,11
139,138.28,138.24,12
137,138.26,138.23,12
140,138.29,138.24,13
138,138.29,138.24,13
139,138.30,138.25,14
138,138.29,138.25,14
137,138.27,138.23,15
139,138.28,138.24,15
141,138.34,138.27,16
139,138.35,138.28,16
141,138.40,138.30,17
141,138.46,138.33,17
143,138.55,138.38,17
140,138.58,138.39,17
140,138.60,138.41,17
140,138.63,138.43,17
143,138.72,138.47,17
140,138.74,138.49,17
140,138.77,138.50,17
142,138.83,138.54,17
141,138.88,138.56,17
142,138.94,138.60,17
140,138.96,138.61,17
140,138.98,138.62,17
139,138.98,138.63,17
139,138.98,138.63,17
142,139.04,138.66,17
139,139.04,138.67,17
142,139.10,138.70,17
139,139.10,138.70,17
139,139.10,138.71,17
141,139.14,138.73,17
142,139.19,138.76,17
142,139.25,138.79,17
143,139.32,138.84,17
141,139.36,138.86,17
145,139.47,138.92,17
141,139.50,138.94,17
141,139.53,138.96,17
140,139.54,138.97,17
141,139.57,138.99,17
140,139.58,139.00,17
140,139.59,139.01,17
139,139.57,139.01,17
139,139.56,139.01,17
138,139.53,139.00,17
140,139.54,139.01,17
140,139.55,139.02,17
140,139.56,139.03,17
141,139.59,139.05,17
144,139.68,139.10,17
138,139.64,139.09,17
143,139.71,139.13,17
139,139.70,139.13,17
141,139.72,139.15,17
141,139.75,139.16,17
139,139.73,139.16,17
139,139.72,139.16,17
139,139.70,139.16,17
140,139.71,139.17,17
141,139.74,139.19,17
140,139.74,139.19,17
140,139.75,139.20,17
140,139.75,139.21,17
140,139.76,139.22,17
140,139.76,139.23,17
140,139.77,139.23,17
139,139.75,139.23,17
139,139.74,139.23,17
139,139.72,139.23,17
139,139.71,139.22,17
140,139.71,139.23,17
140,139.72,139.24,17
141,139.74,139.26,17
138,139.71,139.25,17
138,139.67,139.23,17
138,139.64,139.22,17
141,139.67,139.24,17
139,139.65,139.24,17
143,139.72,139.27,17
142,139.77,139.30,17
140,139.77,139.31,17
139,139.76,139.30,17
139,139.74,139.30,17
138,139.71,139.29,17
140,139.71,139.30,17
139,139.70,139.29,17
139,139.68,139.29,17
140,139.69,139.30,17
139,139.68,139.29,17
139,139.66,139.29,17
140,139.67,139.30,17
140,139.68,139.31,17
141,139.70,139.32,17
145,139.81,139.38,17
141,139.83,139.40,17
139,139.82,139.39,17
142,139.86,139.42,17
139,139.84,139.41,17
145,139.95,139.47,17
142,139.99,139.49,17
143,140.05,139.53,17
140,140.05,139.53,17
145,140.15,139.59,17
141,140.16,139.60,17
143,140.22,139.64,17
143,140.27,139.67,17
139,140.25,139.66,17
140,140.24,139.67,17
141,140.26,139.68,17
143,140.31,139.71,17
145,140.41,139.77,17
146,140.52,139.83,17
143,140.57,139.86,17
146,140.68,139.92,17
143,140.72,139.95,17
144,140.79,139.99,17
145,140.87,140.04,17
146,140.98,140.10,17
142,141.00,140.12,17
145,141.08,140.17,17
142,141.10,140.19,17
145,141.17,140.24,17
147,141.29,140.30,17
144,141.34,140.34,17
143,141.38,140.37,17
145,141.45,140.41,17
143,141.48,140.44,17
145,141.55,140.49,17
148,141.68,140.56,17
143,141.71,140.59,17
146,141.79,140.64,17
144,141.84,140.67,17
143,141.86,140.70,17
145,141.92,140.74,17
150,142.08,140.83,17
147,142.18,140.89,17
143,142.20,140.91,17
147,142.30,140.98,17
152,142.49,141.09,17
147,142.58,141.15,17
150,142.73,141.23,17
145,142.77,141.27,17
151,142.94,141.37,17
152,143.12,141.47,17
151,143.28,141.57,17
147,143.35,141.62,17
151,143.50,141.72,17
155,143.73,141.85,17
155,143.96,141.98,17
156,144.20,142.12,17
156,144.44,142.26,17
164,144.83,142.48,17
163,145.19,142.68,17
154,145.37,142.80,17
154,145.54,142.91,17
155,145.73,143.03,17
159,145.99,143.19,17
163,146.33,143.39,17
168,146.77,143.63,17
163,147.09,143.83,17
159,147.33,143.98,17
162,147.62,144.16,17
163,147.93,144.35,17
167,148.31,144.57,17
166,148.67,144.79,17
163,148.95,144.97,17
163,149.23,145.15,17
162,149.49,145.32,17
161,149.72,145.48,17
167,150.07,145.69,17
165,150.36,145.88,17
163,150.62,146.06,17
162,150.84,146.22,17
166,151.15,146.41,17
163,151.38,146.58,17
164,151.64,146.75,17
163,151.86,146.92,17
169,152.21,147.14,17
172,152.60,147.39,17
165,152.85,147.56,17
165,153.09,147.74,17
169,153.41,147.95,17
172,153.78,148.19,17
166,154.03,148.37,17
166,154.27,148.54,17
167,154.52,148.73,17
173,154.89,148.97,17
169,155.17,149.17,17
170,155.47,149.38,17
174,155.84,149.63,17
173,156.18,149.86,17
172,156.50,150.08,17
182,157.01,150.40,17
184,157.55,150.74,17
187,158.14,151.10,17
177,158.52,151.36,17
183,159.01,151.67,17
187,159.57,152.03,17
185,160.07,152.36,17
184,160.55,152.67,17
184,161.02,152.99,17
181,161.42,153.27,17
178,161.75,153.51,17
181,162.14,153.79,17
183,162.56,154.08,17
188,163.06,154.42,17
192,163.64,154.80,17
185,164.07,155.10,17
183,164.45,155.38,17
191,164.98,155.73,17
195,165.58,156.13,17
190,166.07,156.46,17
191,166.57,156.81,17
184,166.92,157.08,17
185,167.28,157.36,17
190,167.73,157.69,17
194,168.26,158.05,17
197,168.83,158.44,17
194,169.34,158.80,17
193,169.81,159.14,17
195,170.31,159.50,17
198,170.87,159.88,17
197,171.39,160.25,17
206,172.08,160.71,17
210,172.84,161.20,17
203,173.44,161.62,17
207,174.11,162.07,17
202,174.67,162.47,17
203,175.24,162.88,17
199,175.71,163.24,17
205,176.30,163.66,17
209,176.95,164.11,17
209,177.59,164.56,17
200,178.04,164.91,17
203,178.54,165.30,17
201,178.99,165.65,17
201,179.43,166.01,17
206,179.96,166.41,17
202,180.40,166.76,17
207,180.94,167.16,17
204,181.40,167.53,17
209,181.95,167.95,17
203,182.37,168.30,17
202,182.76,168.64,17
211,183.33,169.06,17
215,183.96,169.52,17
216,184.60,169.98,17
208,185.07,170.36,17
206,185.49,170.72,17
212,186.02,171.13,17
209,186.48,171.51,17
209,186.93,171.89,17
213,187.45,172.30,17
214,187.98,172.71,17
214,188.50,173.13,17
221,189.15,173.61,17
218,189.73,174.05,17
215,190.23,174.46,17
210,190.63,174.81,17
213,191.08,175.20,17
210,191.45,175.54,17
210,191.83,175.89,17
210,192.19,176.23,17
212,192.59,176.59,17
211,192.95,176.93,17
209,193.27,177.25,17
222,193.85,177.70,17
219,194.35,178.11,17
212,194.70,178.45,17
217,195.15,178.84,17
226,195.77,179.31,17
223,196.31,179.75,17
217,196.73,180.12,17
221,197.21,180.53,17
224,197.75,180.96,17
226,198.31,181.41,17
223,198.81,181.83,17
226,199.35,182.27,17
228,199.92,182.73,17
236,200.64,183.26,17
230,201.23,183.73,17
223,201.67,184.12,17
225,202.13,184.53,17
229,202.67,184.97,17
229,203.20,185.41,17
236,203.85,185.92,17
238,204.54,186.44,17
227,204.99,186.85,17
230,205.49,187.28,17
235,206.08,187.76,17
243,206.82,188.31,17
240,207.48,188.82,17
231,207.95,189.25,17
232,208.43,189.67,17
230,208.86,190.08,17
229,209.26,190.47,17
230,209.68,190.86,17
235,210.19,191.30,17
229,210.56,191.68,17
237,211.09,192.13,17
237,211.61,192.58,17
234,212.06,193.00,17
232,212.46,193.39,17
235,212.91,193.80,17
232,213.29,194.18,17
232,213.66,194.56,17
234,214.07,194.96,17
236,214.51,195.37,17
233,214.88,195.74,17
232,215.22,196.11,17
238,215.68,196.52,17
238,216.12,196.94,17
235,216.50,197.32,17
235,216.87,197.70,17
244,217.41,198.16,17
242,217.90,198.60,17
237,218.29,198.98,17
234,218.60,199.33,17
238,218.99,199.72,17
238,219.37,200.10,17
242,219.82,200.52,17
245,220.32,200.97,17
239,220.70,201.35,17
243,221.14,201.76,17
252,221.76,202.27,17
244,222.21,202.68,17
246,222.68,203.12,17
244,223.11,203.52,17
246,223.57,203.95,17
253,224.15,204.44,17
254,224.75,204.94,17
244,225.14,205.33,17
253,225.69,205.80,17
260,226.38,206.34,17
260,227.05,206.88,17
261,227.73,207.42,17
253,228.24,207.88,17
252,228.71,208.32,17
252,229.18,208.76,17
253,229.65,209.20,17
252,230.10,209.63,17
253,230.56,210.06,17
251,230.97,210.47,17
250,231.35,210.87,17
249,231.70,211.25,17
251,232.09,211.64,17
249,232.43,212.02,17
249,232.76,212.39,17
248,233.06,212.74,17
248,233.36,213.10,17
247,233.63,213.44,17
246,233.88,213.76,17
246,234.12,214.08,17
246,234.36,214.40,17
245,234.57,214.71,17
244,234.76,215.00,17
244,234.95,215.29,17
243,235.11,215.57,17
244,235.29,215.85,17
244,235.46,216.13,17
243,235.61,216.40,17
243,235.76,216.67,17
241,235.86,216.91,17
243,236.01,217.17,17
241,236.11,217.41,17
243,236.24,217.67,17
242,236.36,217.91,17
244,236.51,218.17,17
244,236.66,218.43,17
241,236.75,218.66,17
244,236.89,218.91,17
243,237.02,219.15,17
242,237.12,219.38,17
242,237.21,219.60,17
241,237.29,219.82,17
240,237.34,220.02,17
241,237.42,220.23,17
243,237.53,220.46,17
240,237.58,220.65,17
240,237.63,220.85,17
241,237.69,221.05,17
239,237.72,221.23,17
238,237.73,221.40,17
240,237.77,221.58,17
237,237.76,221.74,17
237,237.74,221.89,17
237,237.73,222.04,17
237,237.71,222.19,17
237,237.70,222.34,17
235,237.64,222.46,17
235,237.59,222.59,17
234,237.52,222.70,17
234,237.45,222.82,17
235,237.40,222.94,17
234,237.33,223.05,17
233,237.24,223.15,17
234,237.18,223.26,17
232,237.08,223.34,17
232,236.97,223.43,17
232,236.87,223.52,17
233,236.80,223.61,17
232,236.70,223.70,17
230,236.57,223.76,17
231,236.46,223.83,17
231,236.35,223.90,17
229,236.20,223.95,17
229,236.06,224.00,17
228,235.89,224.04,17
230,235.78,224.10,17
229,235.64,224.15,17
230,235.53,224.21,17
231,235.44,224.28,17
228,235.29,224.32,17
226,235.10,224.33,17
227,234.94,224.36,17
227,234.78,224.39,17
227,234.63,224.41,17
227,234.47,224.44,17
227,234.32,224.46,17
225,234.14,224.47,17
225,233.96,224.47,17
224,233.76,224.47,17
224,233.56,224.46,17
225,233.39,224.47,17
223,233.18,224.46,17
224,233.00,224.45,17
224,232.82,224.45,17
225,232.66,224.45,17
224,232.49,224.45,17
222,232.28,224.42,17
222,232.07,224.40,17
222,231.87,224.37,17
223,231.69,224.36,17
221,231.48,224.33,17
221,231.27,224.29,17
221,231.07,224.26,17
220,230.84,224.22,17
219,230.61,224.17,17
220,230.40,224.12,17
219,230.17,224.07,17
219,229.94,224.02,17
219,229.73,223.97,17
218,229.49,223.91,17
219,229.28,223.86,17
219,229.08,223.81,17
218,228.85,223.76,17
217,228.62,223.69,17
217,228.38,223.62,17
216,228.14,223.55,17
216,227.89,223.47,17
216,227.66,223.40,17
216,227.42,223.32,17
216,227.19,223.25,17
214,226.93,223.16,17
211,226.61,223.03,17
213,226.34,222.93,17
213,226.07,222.84,17
214,225.83,222.75,17
213,225.58,222.65,17
214,225.34,222.56,17
213,225.10,222.47,17
211,224.81,222.35,17
210,224.52,222.23,17
211,224.25,222.12,17
211,223.98,222.01,17
210,223.70,221.89,17
210,223.43,221.77,17
211,223.18,221.66,17
210,222.92,221.54,17
209,222.64,221.42,17
208,222.35,221.28,17
209,222.08,221.16,17
208,221.80,221.03,17
207,221.50,220.89,17
207,221.21,220.75,17
207,220.93,220.61,17
207,220.65,220.48,17
207,220.38,220.34,18
207,220.11,220.21,18
205,219.81,220.06,18
205,219.51,219.90,18
207,219.26,219.78,18
206,218.99,219.64,18
206,218.73,219.50,18
206,218.48,219.37,18
204,218.19,219.21,18
204,217.91,219.06,18
203,217.61,218.90,18
202,217.30,218.73,18
204,217.03,218.58,18
204,216.77,218.44,18
202,216.47,218.27,18
201,216.17,218.10,18
201,215.86,217.93,18
201,215.56,217.76,18
201,215.27,217.59,18
201,214.99,217.43,18
200,214.69,217.25,18
199,214.37,217.07,18
201,214.11,216.91,18
202,213.86,216.76,18
198,213.55,216.57,18
198,213.24,216.39,18
198,212.93,216.20,18
198,212.63,216.02,18
196,212.30,215.82,18
197,211.99,215.63,18
198,211.71,215.46,18
200,211.48,215.30,18
196,211.17,215.11,18
195,210.85,214.91,18
196,210.55,214.72,18
197,210.28,214.54,18
194,209.95,214.34,18
194,209.63,214.13,18
196,209.36,213.95,18
194,209.05,213.75,18
194,208.75,213.55,18
193,208.44,213.35,18
193,208.13,213.15,18
193,207.83,212.94,18
192,207.51,212.73,18
192,207.20,212.53,18
195,206.96,212.35,18
193,206.68,212.16,18
191,206.36,211.95,18
190,206.04,211.73,18
191,205.74,211.52,18
191,205.44,211.31,18
190,205.13,211.10,18
190,204.83,210.89,18
190,204.53,210.68,18
190,204.24,210.47,18
188,203.92,210.25,18
189,203.62,210.04,18
195,203.45,209.89,18
188,203.14,209.67,18
188,202.84,209.45,18
188,202.54,209.24,18
190,202.29,209.04,18
188,202.00,208.83,18
186,201.68,208.61,18
186,201.37,208.38,18
186,201.06,208.16,18
188,200.80,207.95,18
187,200.52,207.75,18
185,200.21,207.52,18
188,199.97,207.32,18
187,199.71,207.12,18
184,199.40,206.89,18
184,199.09,206.66,18
185,198.81,206.44,18
185,198.53,206.23,18
186,198.28,206.03,18
184,197.99,205.81,18
186,197.75,205.61,18
183,197.46,205.38,18
183,197.17,205.16,18
183,196.89,204.94,18
182,196.59,204.71,18
183,196.32,204.49,18
184,196.07,204.28,18
183,195.81,204.07,18
183,195.55,203.86,18
181,195.26,203.63,18
179,194.94,203.39,18
181,194.66,203.16,18
180,194.36,202.93,18
179,194.06,202.69,18
181,193.80,202.47,18
179,193.50,202.24,18
179,193.21,202.01,18
180,192.95,201.79,18
179,192.67,201.56,18
179,192.39,201.33,18
178,192.11,201.10,18
177,191.80,200.86,18
177,191.51,200.62,18
176,191.20,200.37,18
177,190.91,200.14,18
176,190.62,199.90,18
176,190.32,199.66,18
176,190.04,199.42,18
178,189.80,199.21,18
177,189.54,198.99,18
175,189.25,198.75,18
176,188.98,198.52,18
175,188.70,198.29,18
175,188.43,198.05,18
175,188.16,197.82,18
174,187.88,197.58,18
174,187.60,197.35,18
174,187.33,197.11,18
173,187.04,196.87,18
172,186.74,196.62,18
172,186.45,196.38,18
173,186.18,196.14,18
173,185.91,195.91,18
173,185.66,195.68,18
172,185.38,195.45,18
173,185.14,195.22,18
174,184.91,195.01,18
173,184.67,194.79,18
171,184.40,194.55,18
170,184.11,194.31,18
169,183.81,194.05,18
172,183.57,193.83,18
172,183.34,193.61,18
169,183.06,193.37,18
171,182.81,193.15,18
171,182.58,192.92,18
169,182.31,192.68,18
169,182.04,192.45,18
169,181.78,192.21,18
169,181.52,191.98,18
170,181.29,191.76,18
169,181.05,191.53,18
173,180.89,191.35,18
170,180.67,191.13,18
170,180.46,190.92,18
171,180.27,190.72,18
171,180.08,190.53,18
171,179.90,190.33,18
171,179.72,190.14,18
169,179.51,189.93,18
168,179.28,189.71,18
170,179.09,189.51,18
169,178.89,189.31,18
170,178.71,189.11,18
169,178.52,188.91,18
168,178.31,188.70,18
168,178.10,188.50,18
168,177.90,188.29,18
167,177.68,188.08,18
166,177.45,187.86,18
166,177.22,187.64,18
167,177.01,187.43,18
165,176.77,187.21,18
166,176.56,187.00,18
165,176.33,186.78,18
163,176.06,186.54,18
165,175.84,186.32,18
165,175.62,186.11,18
164,175.39,185.89,18
163,175.14,185.66,18
165,174.94,185.45,18
167,174.78,185.27,18
167,174.63,185.09,18
164,174.41,184.87,18
166,174.24,184.69,18
166,174.08,184.50,18
166,173.92,184.31,18
164,173.72,184.11,18
164,173.53,183.91,18
164,173.33,183.71,18
165,173.17,183.52,18
163,172.96,183.32,18
162,172.75,183.10,18
163,172.55,182.90,18
163,172.36,182.70,18
163,172.17,182.51,18
163,171.99,182.31,18
164,171.83,182.13,18
164,171.67,181.95,18
161,171.46,181.74,18
162,171.27,181.54,18
162,171.08,181.35,18
163,170.92,181.16,18
163,170.76,180.98,18
161,170.57,180.78,18
162,170.40,180.59,18
161,170.21,180.40,18
163,170.07,180.22,18
164,169.94,180.06,18
162,169.79,179.88,18
161,169.61,179.69,18
161,169.44,179.50,18
161,169.27,179.32,18
162,169.12,179.15,18
161,168.96,178.97,18
159,168.76,178.77,18
160,168.59,178.58,18
160,168.41,178.39,18
160,168.25,178.21,18
159,168.06,178.02,18
160,167.90,177.84,18
163,167.80,177.69,18
158,167.61,177.49,18
159,167.43,177.31,18
159,167.27,177.12,18
160,167.12,176.95,18
160,166.98,176.78,18
158,166.80,176.59,18
158,166.62,176.41,18
160,166.49,176.24,18
160,166.36,176.08,18
159,166.21,175.91,18
158,166.05,175.73,18
157,165.87,175.54,18
158,165.71,175.37,18
158,165.56,175.20,18
157,165.38,175.01,18
158,165.24,174.84,18
159,165.11,174.68,18
157,164.95,174.51,18
155,164.75,174.31,18
158,164.62,174.15,18
158,164.48,173.99,18
159,164.37,173.84,18
157,164.23,173.67,18
157,164.08,173.50,18
158,163.96,173.35,18
158,163.84,173.19,18
158,163.72,173.04,18
156,163.57,172.87,18
156,163.42,172.70,18
157,163.29,172.55,18
159,163.20,172.41,18
157,163.08,172.26,18
156,162.94,172.09,18
156,162.80,171.93,18
161,162.76,171.82,18
157,162.65,171.68,18
155,162.50,171.51,18
155,162.35,171.34,18
158,162.26,171.21,18
158,162.17,171.08,18
157,162.07,170.94,18
155,161.93,170.78,18
156,161.81,170.63,18
158,161.73,170.50,18
158,161.66,170.38,18
156,161.55,170.24,18
156,161.44,170.09,18
157,161.35,169.96,18
159,161.30,169.85,18
157,161.21,169.72,18
155,161.09,169.58,18
155,160.97,169.43,18
155,160.85,169.29,18
157,160.77,169.16,18
158,160.72,169.05,18
156,160.62,168.92,18
155,160.51,168.78,18
157,160.44,168.66,18
155,160.33,168.53,18
154,160.20,168.38,18
155,160.10,168.25,18
156,160.02,168.13,18
156,159.94,168.01,18
154,159.82,167.87,18
155,159.72,167.74,18
156,159.65,167.62,18
157,159.59,167.51,18
155,159.50,167.39,18
153,159.37,167.24,18
158,159.35,167.15,18
156,159.28,167.04,18
156,159.21,166.93,18
155,159.13,166.81,18
153,159.01,166.67,18
155,158.93,166.56,18
155,158.85,166.44,18
154,158.75,166.32,18
153,158.64,166.18,18
154,158.54,166.06,18
156,158.49,165.96,18
154,158.40,165.84,18
153,158.29,165.71,18
154,158.21,165.59,18
155,158.14,165.49,18
155,158.08,165.38,18
153,157.98,165.26,18
152,157.86,165.13,18
154,157.78,165.02,18
154,157.71,164.91,18
152,157.59,164.78,18
152,157.48,164.65,18
151,157.35,164.51,18
152,157.24,164.39,18
152,157.14,164.26,18
151,157.02,164.13,18
153,156.94,164.02,18
153,156.86,163.91,18
154,156.80,163.81,18
153,156.72,163.70,18
151,156.61,163.58,18
152,156.52,163.46,18
153,156.45,163.36,18
153,156.38,163.25,18
153,156.31,163.15,18
152,156.22,163.04,18
151,156.12,162.92,18
153,156.06,162.82,18
151,155.96,162.70,18
150,155.84,162.57,18
152,155.76,162.47,18
154,155.73,162.38,18
153,155.67,162.29,18
151,155.58,162.18,18
150,155.47,162.05,18
151,155.38,161.94,18
152,155.31,161.84,18
151,155.22,161.74,18
150,155.12,161.62,18
151,155.04,161.51,18
154,155.02,161.44,18
152,154.96,161.34,18
150,154.86,161.23,18
151,154.78,161.13,18
151,154.70,161.03,18
151,154.63,160.93,18
150,154.54,160.82,18
150,154.45,160.71,18
152,154.40,160.62,18
151,154.33,160.52,18
150,154.24,160.42,18
149,154.14,160.31,18
149,154.03,160.19,18
150,153.95,160.09,18
150,153.88,159.99,18
150,153.80,159.89,18
151,153.74,159.80,18
150,153.67,159.70,18
150,153.59,159.61,18
147,153.46,159.48,18
149,153.37,159.37,18
151,153.33,159.29,18
151,153.28,159.21,18
151,153.23,159.13,18
150,153.17,159.03,18
148,153.06,158.92,18
149,152.98,158.83,18
151,152.94,158.75,18
149,152.87,158.65,18
147,152.75,158.53,18
147,152.63,158.42,18
149,152.56,158.32,18
149,152.49,158.23,18
147,152.38,158.12,18
147,152.27,158.01,18
147,152.17,157.90,18
150,152.12,157.82,18
148,152.04,157.72,18
147,151.94,157.61,18
148,151.86,157.52,18
149,151.80,157.43,18
148,151.73,157.34,18
146,151.61,157.22,18
147,151.52,157.12,18
148,151.45,157.03,18
148,151.38,156.94,18
147,151.29,156.84,18
147,151.21,156.74,18
146,151.10,156.63,18
147,151.02,156.54,18
147,150.94,156.44,18
145,150.82,156.33,18
146,150.73,156.22,18
147,150.65,156.13,18
148,150.60,156.05,18
144,150.47,155.93,18
146,150.38,155.83,18
146,150.29,155.73,18
146,150.20,155.64,18
145,150.10,155.53,18
145,150.00,155.42,18
146,149.92,155.33,18
147,149.86,155.25,18
146,149.78,155.15,18
145,149.69,155.05,18
146,149.61,154.96,18
145,149.52,154.86,18
147,149.47,154.78,18
145,149.38,154.69,18
145,149.29,154.59,18
144,149.19,154.48,18
146,149.12,154.40,18
146,149.06,154.31,18
144,148.96,154.21,18
144,148.86,154.11,18
144,148.76,154.01,18
145,148.69,153.92,18
145,148.61,153.83,18
143,148.50,153.72,18
144,148.41,153.62,18
146,148.36,153.55,18
147,148.34,153.48,18
143,148.23,153.38,18
144,148.15,153.28,18
145,148.08,153.20,18
145,148.02,153.12,18
143,147.92,153.02,18
143,147.82,152.92,18
145,147.77,152.84,18
146,147.73,152.77,18
144,147.66,152.68,18
143,147.56,152.58,18
145,147.51,152.51,18
145,147.46,152.43,18
145,147.41,152.36,18
144,147.34,152.28,18
144,147.28,152.19,18
144,147.21,152.11,18
145,147.17,152.04,18
145,147.12,151.97,18
143,147.04,151.88,18
145,147.00,151.81,18
144,146.94,151.73,18
145,146.90,151.67,18
143,146.82,151.58,18
144,146.77,151.50,18
144,146.71,151.43,18
145,146.68,151.36,18
143,146.60,151.28,18
143,146.53,151.20,18
144,146.48,151.13,18
145,146.45,151.06,18
144,146.40,150.99,18
142,146.31,150.90,18
143,146.25,150.82,18
144,146.20,150.76,18
145,146.18,150.70,18
143,146.12,150.62,18
141,146.01,150.53,18
143,145.95,150.45,18
144,145.91,150.39,18
144,145.88,150.32,18
142,145.80,150.24,18
143,145.74,150.17,18
144,145.71,150.10,18
145,145.69,150.05,18
141,145.60,149.96,18
144,145.57,149.90,18
145,145.56,149.85,18
146,145.56,149.82,18
144,145.53,149.76,18
143,145.48,149.69,18
142,145.41,149.61,18
144,145.39,149.56,18
145,145.38,149.51,18
143,145.33,149.45,18
146,145.34,149.41,18
143,145.30,149.35,18
143,145.25,149.28,18
143,145.21,149.22,18
141,145.12,149.14,18
141,145.04,149.06,18
143,145.00,149.00,18
143,144.96,148.94,18
141,144.88,148.86,18
142,144.82,148.79,18
142,144.77,148.72,18
143,144.73,148.66,18
143,144.70,148.61,18
141,144.62,148.53,18
141,144.55,148.46,18
143,144.52,148.40,18
142,144.47,148.34,18
141,144.40,148.26,18
141,144.33,148.19,18
141,144.26,148.12,18
142,144.22,148.06,18
141,144.15,147.99,18
140,144.07,147.91,18
141,144.01,147.84,18
143,143.99,147.79,18
142,143.95,147.73,18
141,143.89,147.67,18
141,143.83,147.60,18
141,143.78,147.53,18
142,143.74,147.48,18
140,143.67,147.40,18
142,143.63,147.35,18
141,143.58,147.29,18
142,143.55,147.23,18
139,143.46,147.15,18
143,143.45,147.11,18
141,143.40,147.05,18
141,143.35,146.99,18
140,143.28,146.92,18
139,143.20,146.84,18
141,143.15,146.78,18
141,143.11,146.72,18
143,143.11,146.68,18
141,143.07,146.63,18
139,142.99,146.55,18
140,142.93,146.49,18
140,142.87,146.42,18
139,142.79,146.35,18
140,142.73,146.28,18
139,142.66,146.21,18
140,142.61,146.15,18
142,142.59,146.11,18
140,142.54,146.05,18
140,142.49,145.99,18
139,142.42,145.92,18
139,142.35,145.85,18
141,142.33,145.80,18
139,142.26,145.73,18
138,142.17,145.65,18
138,142.09,145.58,18
140,142.05,145.52,18
139,141.99,145.46,18
139,141.93,145.39,18
138,141.85,145.32,18
138,141.77,145.24,18
138,141.70,145.17,18
137,141.60,145.09,18
136,141.49,145.00,18
137,141.40,144.92,18
140,141.37,144.87,18
143,141.41,144.85,18
138,141.34,144.78,18
139,141.29,144.72,18
141,141.29,144.69,18
139,141.24,144.63,18
138,141.17,144.56,18
138,141.11,144.50,18
138,141.05,144.43,18
141,141.05,144.40,18
138,140.99,144.34,18
137,140.91,144.26,18
137,140.83,144.19,18
139,140.79,144.14,18
137,140.72,144.07,18
139,140.68,144.02,18
138,140.63,143.95,18
140,140.62,143.92,18
138,140.56,143.86,18
137,140.49,143.79,18
141,140.50,143.76,18
141,140.51,143.73,18
140,140.50,143.69,18
139,140.47,143.65,18
138,140.42,143.59,18
138,140.37,143.54,18
139,140.35,143.49,18
138,140.30,143.44,18
139,140.27,143.39,18
137,140.21,143.33,18
136,140.12,143.25,18
136,140.04,143.18,18
137,139.98,143.12,18
138,139.94,143.07,18
136,139.86,143.00,18
135,139.77,142.92,18
135,139.67,142.84,18
136,139.60,142.77,18
137,139.54,142.71,18
136,139.47,142.65,18
137,139.42,142.59,18
136,139.36,142.52,18
136,139.29,142.46,18
135,139.20,142.38,18
134,139.10,142.30,18
137,139.06,142.25,18
134,138.96,142.16,18
136,138.90,142.10,18
136,138.84,142.04,18
138,138.82,142.00,18
135,138.75,141.93,18
133,138.63,141.84,18
136,138.58,141.78,18
139,138.59,141.76,18
138,138.57,141.72,18
133,138.46,141.63,18
134,138.37,141.55,18
137,138.35,141.51,18
135,138.28,141.44,18
134,138.19,141.37,18
134,138.11,141.30,18
134,138.03,141.22,18
134,137.95,141.15,18
133,137.85,141.07,18
134,137.77,141.00,18
134,137.70,140.93,18
131,137.56,140.83,18
137,137.55,140.79,18
134,137.48,140.72,18
134,137.41,140.66,18
134,137.34,140.59,18
134,137.28,140.52,18
136,137.25,140.48,18
135,137.20,140.42,18
138,137.22,140.40,18
133,137.14,140.32,18
137,137.13,140.29,18
137,137.13,140.26,18
137,137.13,140.23,18
136,137.11,140.18,18
136,137.08,140.14,18
138,137.10,140.12,18
135,137.06,140.07,18
135,137.02,140.02,18
136,137.00,139.98,18
135,136.96,139.93,18
134,136.90,139.87,18
137,136.90,139.84,18
138,136.92,139.82,18
135,136.88,139.77,18
134,136.83,139.72,18
135,136.79,139.67,18
136,136.77,139.63,18
134,136.72,139.58,18
134,136.66,139.52,18
133,136.59,139.46,18
134,136.54,139.40,18
138,136.57,139.39,18
136,136.56,139.35,18
134,136.51,139.30,18
134,136.46,139.25,18
136,136.45,139.21,18
134,136.40,139.16,18
134,136.35,139.11,18
135,136.32,139.07,18
134,136.28,139.02,18
136,136.27,138.99,18
135,136.25,138.95,18
137,136.26,138.93,18
137,136.28,138.91,18
134,136.23,138.86,18
134,136.19,138.81,18
135,136.16,138.77,18
138,136.20,138.77,18
137,136.21,138.75,18
134,136.17,138.70,18
135,136.15,138.66,18
137,136.16,138.65,18
134,136.12,138.60,18
134,136.08,138.55,18
136,136.08,138.53,18
134,136.04,138.48,18
134,135.99,138.44,18
133,135.93,138.38,18
135,135.92,138.35,18
136,135.92,138.33,18
133,135.86,138.27,18
132,135.78,138.21,18
133,135.73,138.16,18
134,135.69,138.12,18
134,135.66,138.08,18
135,135.64,138.05,18
136,135.65,138.03,18
135,135.64,137.99,18
132,135.57,137.93,18
135,135.55,137.91,18
134,135.52,137.87,18
134,135.49,137.83,18
137,135.52,137.82,18
136,135.53,137.80,18
136,135.54,137.78,18
134,135.51,137.75,18
133,135.46,137.70,18
134,135.43,137.66,18
134,135.40,137.62,18
134,135.38,137.59,18
135,135.37,137.56,18
134,135.34,137.53,18
134,135.31,137.49,18
134,135.29,137.46,18
136,135.30,137.44,18
138,135.36,137.45,18
135,135.35,137.42,18
134,135.32,137.39,18
136,135.34,137.37,18
138,135.39,137.38,18
138,135.44,137.39,18
137,135.47,137.38,18
136,135.48,137.37,18
136,135.49,137.36,18
134,135.46,137.32,18
138,135.51,137.33,18
135,135.50,137.31,18
136,135.51,137.29,18
136,135.52,137.28,18
139,135.59,137.30,18
135,135.58,137.27,18
135,135.57,137.25,18
136,135.58,137.24,18
138,135.63,137.25,18
136,135.63,137.23,18
136,135.64,137.22,18
137,135.67,137.22,18
138,135.71,137.23,18
139,135.78,137.25,18
137,135.80,137.24,18
136,135.81,137.23,18
137,135.83,137.23,18
137,135.86,137.23,18
137,135.88,137.22,18
135,135.86,137.20,18
136,135.86,137.19,18
135,135.85,137.17,18
135,135.83,137.15,18
135,135.81,137.12,18
134,135.78,137.09,18
136,135.78,137.08,18
135,135.77,137.06,18
134,135.73,137.03,18
137,135.76,137.03,18
137,135.78,137.03,18
136,135.79,137.02,18
136,135.79,137.01,18
134,135.75,136.98,18
135,135.74,136.96,18
133,135.68,136.92,18
134,135.65,136.89,18
135,135.64,136.87,18
133,135.58,136.83,18
136,135.59,136.82,18
136,135.60,136.82,18
134,135.57,136.79,18
136,135.58,136.78,18
137,135.61,136.78,18
134,135.57,136.75,18
137,135.60,136.76,18
133,135.55,136.72,18
132,135.48,136.67,18
134,135.45,136.65,18
133,135.40,136.61,18
133,135.35,136.57,18
134,135.33,136.55,18
134,135.30,136.52,18
137,135.33,136.53,18
134,135.31,136.50,18
138,135.36,136.52,18
134,135.33,136.49,18
134,135.31,136.47,18
134,135.28,136.44,18
134,135.25,136.42,18
135,135.25,136.40,18
136,135.26,136.40,18
135,135.26,136.39,18
135,135.25,136.37,18
133,135.21,136.34,18
136,135.22,136.33,18
135,135.22,136.32,18
139,135.30,136.35,18
136,135.31,136.34,18
138,135.36,136.36,18
134,135.34,136.34,18
136,135.35,136.33,18
134,135.32,136.31,18
133,135.28,136.28,18
137,135.31,136.28,18
134,135.28,136.26,18
135,135.28,136.25,18
136,135.29,136.25,18
136,135.31,136.24,18
136,135.32,136.24,18
134,135.29,136.22,18
134,135.27,136.20,18
133,135.22,136.17,18
134,135.20,136.14,18
134,135.18,136.12,18
136,135.19,136.12,18
136,135.21,136.12,18
136,135.22,136.12,18
134,135.20,136.10,18
135,135.20,136.09,18
139,135.27,136.12,18
140,135.37,136.15,18
134,135.34,136.13,18
136,135.35,136.13,18
142,135.48,136.19,18
138,135.54,136.21,18
135,135.52,136.20,18
135,135.51,136.18,18
137,135.54,136.19,18
136,135.55,136.19,18
136,135.56,136.19,18
137,135.59,136.20,18
137,135.62,136.20,18
135,135.61,136.19,18
136,135.61,136.19,18
138,135.66,136.21,18
136,135.67,136.21,18
135,135.66,136.19,18
140,135.74,136.23,18
143,135.89,136.30,18
141,135.99,136.35,18
139,136.05,136.37,18
145,136.23,136.46,18
151,136.52,136.61,19
140,136.59,136.64,19
140,136.66,136.67,20
140,136.73,136.71,20
146,136.91,136.80,21
142,137.02,136.85,21
141,137.10,136.89,21
142,137.19,136.94,21
143,137.31,137.00,21
140,137.36,137.03,21
145,137.52,137.11,21
141,137.59,137.15,21
145,137.73,137.23,21
146,137.90,137.32,21
145,138.04,137.40,21
142,138.12,137.44,21
145,138.26,137.52,21
145,138.39,137.59,21
145,138.53,137.67,21
141,138.57,137.70,21
148,138.76,137.80,21
144,138.87,137.86,21
144,138.97,137.93,21
143,139.05,137.98,21
143,139.13,138.03,21
143,139.21,138.08,21
145,139.32,138.15,21
145,139.44,138.21,21
144,139.53,138.27,21
143,139.60,138.32,21
146,139.73,138.40,21
144,139.81,138.45,21
147,139.96,138.54,21
146,140.08,138.61,21
144,140.15,138.67,21
149,140.33,138.77,21
150,140.52,138.88,21
146,140.63,138.95,21
151,140.84,139.07,21
150,141.02,139.18,21
147,141.14,139.26,21
147,141.26,139.34,21
147,141.38,139.42,21
147,141.49,139.49,21
145,141.56,139.55,21
147,141.67,139.62,21
147,141.77,139.69,21
152,141.98,139.82,21
152,142.18,139.94,21
150,142.34,140.04,21
153,142.55,140.17,21
149,142.68,140.26,21
147,142.76,140.33,21
147,142.85,140.39,21
153,143.05,140.52,21
153,143.25,140.64,21
150,143.39,140.74,21
153,143.58,140.86,21
152,143.75,140.97,21
150,143.87,141.06,21
151,144.01,141.16,21
151,144.15,141.26,21
154,144.35,141.39,21
157,144.60,141.54,21
153,144.77,141.66,21
154,144.96,141.78,21
153,145.12,141.89,21
153,145.28,142.00,21
155,145.47,142.13,21
153,145.62,142.24,21
154,145.79,142.36,21
152,145.91,142.46,21
151,146.01,142.54,21
156,146.21,142.68,21
157,146.43,142.82,21
158,146.66,142.97,21
157,146.87,143.11,21
155,147.03,143.23,21
161,147.31,143.41,21
158,147.52,143.55,21
159,147.75,143.71,21
158,147.96,143.85,21
156,148.12,143.97,21
162,148.40,144.15,21
156,148.55,144.27,21
156,148.70,144.39,21
159,148.90,144.53,21
158,149.09,144.67,21
156,149.22,144.78,21
157,149.38,144.91,21
157,149.53,145.03,21
156,149.66,145.14,21
155,149.77,145.23,21
159,149.95,145.37,21
157,150.09,145.49,21
165,150.39,145.68,21
166,150.70,145.89,21
159,150.87,146.02,21
164,151.13,146.20,21
160,151.31,146.34,21
163,151.54,146.50,21
158,151.67,146.62,21
159,151.82,146.74,21
161,152.00,146.88,21
159,152.14,147.00,21
162,152.34,147.15,21
166,152.61,147.34,21
171,152.98,147.58,21
169,153.30,147.79,21
164,153.52,147.96,21
166,153.76,148.14,21
173,154.15,148.39,21
167,154.41,148.57,21
165,154.62,148.74,21
165,154.83,148.90,21
167,155.07,149.08,21
166,155.29,149.25,21
171,155.60,149.47,21
175,155.99,149.72,21
171,156.29,149.93,21
177,156.70,150.20,21
182,157.21,150.52,21
187,157.81,150.89,21
179,158.23,151.17,21
178,158.63,151.44,21
187,159.19,151.79,21
187,159.75,152.14,21
193,160.41,152.55,21
187,160.95,152.90,21
196,161.65,153.33,21
197,162.35,153.77,21
193,162.97,154.16,21
190,163.51,154.52,21
186,163.96,154.83,21
191,164.50,155.19,21
196,165.13,155.60,21
193,165.69,155.97,21
198,166.33,156.40,21
200,167.01,156.83,21
193,167.53,157.19,21
198,168.14,157.60,21
191,168.59,157.93,21
191,169.04,158.27,21
192,169.50,158.60,21
193,169.97,158.95,21
192,170.41,159.28,21
192,170.84,159.60,21
191,171.25,159.92,21
191,171.64,160.23,21
193,172.07,160.56,21
195,172.53,160.90,21
206,173.20,161.35,21
201,173.75,161.75,21
194,174.16,162.07,21
200,174.67,162.45,21
206,175.30,162.89,21
203,175.85,163.29,21
201,176.36,163.66,21
204,176.91,164.07,21
204,177.45,164.47,21
199,177.88,164.81,21
199,178.31,165.15,21
202,178.78,165.52,21
215,179.50,166.02,21
202,179.95,166.38,21
201,180.37,166.72,21
203,180.83,167.09,21
200,181.21,167.42,21
200,181.59,167.74,21
200,181.95,168.06,21
207,182.46,168.45,21
211,183.03,168.88,21
206,183.49,169.25,21
211,184.04,169.67,21
220,184.76,170.17,21
220,185.46,170.67,21
216,186.07,171.12,21
207,186.49,171.48,21
210,186.96,171.87,21
213,187.48,172.28,21
213,187.99,172.69,21
210,188.43,173.06,21
213,188.92,173.46,21
213,189.40,173.85,21
211,189.84,174.22,21
212,190.28,174.60,21
215,190.77,175.01,21
215,191.26,175.41,21
214,191.71,175.79,21
227,192.42,176.30,21
230,193.17,176.84,21
222,193.75,177.29,21
232,194.51,177.84,21
234,195.30,178.40,21
237,196.14,178.99,21
235,196.91,179.55,21
225,197.47,180.00,21
227,198.07,180.47,21
228,198.66,180.95,21
224,199.17,181.38,21
229,199.77,181.85,21
230,200.37,182.34,21
228,200.92,182.79,21
226,201.43,183.22,21
226,201.92,183.65,21
225,202.38,184.07,21
225,202.83,184.47,21
227,203.31,184.90,21
229,203.83,185.34,21
227,204.29,185.76,21
227,204.75,186.17,21
228,205.21,186.59,21
229,205.69,187.01,21
227,206.11,187.41,21
228,206.55,187.82,21
240,207.22,188.34,21
233,207.74,188.79,21
230,208.18,189.20,21
228,208.58,189.59,21
228,208.97,189.97,21
227,209.33,190.34,21
226,209.66,190.70,21
228,210.03,191.07,21
231,210.45,191.47,21
231,210.86,191.87,21
227,211.18,192.22,21
227,211.50,192.56,21
230,211.87,192.94,21
227,212.17,193.28,21
229,212.51,193.64,21
232,212.90,194.02,21
229,213.22,194.37,21
227,213.49,194.70,21
225,213.72,195.00,21
227,213.99,195.32,21
227,214.25,195.64,21
227,214.50,195.95,21
227,214.75,196.26,21
225,214.96,196.55,21
225,215.16,196.83,21
224,215.34,197.10,21
227,215.57,197.40,21
226,215.78,197.69,21
226,215.98,197.97,21
224,216.14,198.23,21
224,216.30,198.49,21
225,216.47,198.76,21
225,216.65,199.02,21
224,216.79,199.27,21
223,216.92,199.50,21
223,217.04,199.74,21
223,217.16,199.97,21
221,217.23,200.18,21
221,217.31,200.39,21
221,217.38,200.60,21
222,217.48,200.81,21
220,217.53,201.00,21
219,217.56,201.18,21
219,217.58,201.36,21
219,217.61,201.54,21
220,217.66,201.72,21
219,217.69,201.89,21
218,217.69,202.06,21
219,217.72,202.23,21
218,217.73,202.38,21
216,217.69,202.52,21
217,217.68,202.66,21
218,217.68,202.82,21
219,217.71,202.98,21
216,217.68,203.11,21
220,217.72,203.28,21
218,217.73,203.43,21
217,217.71,203.56,21
216,217.68,203.69,21
215,217.63,203.80,21
215,217.57,203.91,21
215,217.52,204.02,21
214,217.45,204.12,21
214,217.38,204.22,21
216,217.35,204.34,21
214,217.29,204.43,21
212,217.18,204.51,21
213,217.10,204.60,21
214,217.04,204.69,21
213,216.96,204.77,21
212,216.86,204.84,21
215,216.82,204.95,21
213,216.74,205.03,21
213,216.67,205.11,21
211,216.55,205.17,21
211,216.44,205.22,21
211,216.33,205.28,21
211,216.23,205.34,21
210,216.10,205.39,21
210,215.98,205.43,21
209,215.84,205.47,21
211,215.74,205.52,21
208,215.59,205.55,21
207,215.42,205.56,21
207,215.25,205.58,21
209,215.12,205.61,21
207,214.96,205.62,21
208,214.82,205.65,21
207,214.67,205.66,21
208,214.53,205.69,21
207,214.38,205.70,21
206,214.21,205.70,21
205,214.03,205.69,21
205,213.85,205.69,21
205,213.67,205.68,21
204,213.48,205.66,21
206,213.33,205.67,21
205,213.16,205.66,21
203,212.96,205.63,21
205,212.80,205.63,21
203,212.60,205.60,21
203,212.41,205.58,21
203,212.22,205.55,21
205,212.08,205.54,21
205,211.94,205.54,21
205,211.80,205.53,21
206,211.68,205.54,21
202,211.49,205.50,21
204,211.34,205.49,21
201,211.13,205.44,21
201,210.93,205.40,21
201,210.73,205.35,21
201,210.54,205.31,21
201,210.35,205.27,21
199,210.12,205.20,21
200,209.92,205.15,21
199,209.70,205.09,21
199,209.49,205.03,21
199,209.28,204.97,21
198,209.05,204.90,21
202,208.91,204.87,21
199,208.71,204.81,21
198,208.50,204.74,21
196,208.25,204.66,21
197,208.02,204.58,21
197,207.80,204.50,21
196,207.57,204.42,21
195,207.31,204.33,21
197,207.11,204.25,21
197,206.91,204.18,21
195,206.67,204.09,21
194,206.41,203.99,21
195,206.19,203.90,21
194,205.94,203.80,21
192,205.66,203.68,21
192,205.39,203.56,21
196,205.20,203.49,21
194,204.98,203.39,21
192,204.72,203.28,21
193,204.48,203.18,21
194,204.27,203.08,21
191,204.01,202.96,21
191,203.75,202.84,21
192,203.51,202.74,21
194,203.32,202.65,21
194,203.14,202.56,21
190,202.87,202.44,21
190,202.62,202.31,21
191,202.38,202.20,21
190,202.14,202.08,22
190,201.89,201.96,22
189,201.64,201.83,22
189,201.38,201.70,22
190,201.16,201.58,22
188,200.89,201.45,22
187,200.61,201.30,22
188,200.36,201.17,22
189,200.14,201.05,22
188,199.89,200.92,22
188,199.65,200.79,22
190,199.46,200.68,22
188,199.23,200.55,22
185,198.95,200.40,22
185,198.67,200.24,22
185,198.40,200.09,22
185,198.13,199.94,22
186,197.89,199.80,22
186,197.65,199.66,22
187,197.43,199.53,22
185,197.19,199.39,22
183,196.90,199.23,22
184,196.64,199.07,22
184,196.39,198.92,22
183,196.12,198.76,22
182,195.84,198.60,22
184,195.60,198.45,22
183,195.35,198.30,22
182,195.08,198.13,22
180,194.78,197.95,22
181,194.51,197.78,22
181,194.24,197.61,22
180,193.95,197.44,22
180,193.67,197.26,22
180,193.40,197.09,22
182,193.17,196.94,22
180,192.91,196.77,22
178,192.61,196.58,22
178,192.32,196.40,22
179,192.05,196.22,22
177,191.75,196.03,22
177,191.46,195.84,22
178,191.19,195.66,22
178,190.92,195.49,22
177,190.64,195.30,22
175,190.33,195.10,22
176,190.05,194.91,22
176,189.76,194.72,22
176,189.49,194.53,22
176,189.22,194.34,22
176,188.95,194.16,22
177,188.72,193.99,22
176,188.46,193.81,22
175,188.19,193.62,22
174,187.91,193.43,22
174,187.63,193.23,22
174,187.36,193.04,22
175,187.11,192.86,22
174,186.85,192.67,22
174,186.59,192.48,22
174,186.34,192.30,22
173,186.07,192.11,22
173,185.81,191.91,22
173,185.55,191.73,22
173,185.30,191.54,22
172,185.04,191.34,22
173,184.80,191.16,22
171,184.52,190.96,22
171,184.25,190.76,22
171,183.99,190.56,22
171,183.73,190.37,22
170,183.45,190.16,22
171,183.20,189.97,22
170,182.94,189.77,22
171,182.70,189.58,22
170,182.45,189.39,22
168,182.16,189.17,22
169,181.89,188.97,22
169,181.64,188.77,22
169,181.38,188.57,22
168,181.12,188.37,22
168,180.85,188.16,22
168,180.60,187.96,22
168,180.34,187.76,22
166,180.06,187.55,22
167,179.80,187.34,22
167,179.54,187.14,22
167,179.29,186.94,22
167,179.04,186.74,22
166,178.78,186.53,22
166,178.53,186.32,22
166,178.28,186.12,22
168,178.07,185.94,22
167,177.85,185.75,22
165,177.59,185.54,22
168,177.40,185.37,22
167,177.19,185.18,22
165,176.95,184.98,22
166,176.73,184.79,22
165,176.50,184.59,22
164,176.25,184.39,22
165,176.02,184.19,22
163,175.76,183.98,22
164,175.52,183.78,22
164,175.29,183.58,22
163,175.05,183.38,22
162,174.79,183.16,22
162,174.53,182.95,22
163,174.30,182.75,22
163,174.08,182.56,22
161,173.81,182.34,22
163,173.60,182.15,22
161,173.35,181.94,22
161,173.10,181.73,22
163,172.90,181.54,22
161,172.66,181.33,22
161,172.43,181.13,22
160,172.18,180.92,22
161,171.95,180.72,22
161,171.73,180.52,22
161,171.52,180.33,22
160,171.29,180.12,22
161,171.08,179.93,22
161,170.88,179.74,22
160,170.66,179.55,22
159,170.43,179.34,22
160,170.22,179.15,22
159,170.00,178.95,22
160,169.80,178.76,22
158,169.56,178.55,22
159,169.35,178.35,22
158,169.12,178.15,22
159,168.92,177.96,22
159,168.72,177.77,22
159,168.53,177.58,22
158,168.32,177.38,22
157,168.09,177.18,22
159,167.91,177.00,22
158,167.71,176.81,22
157,167.50,176.61,22
157,167.29,176.41,22
157,167.08,176.22,22
157,166.88,176.03,22
159,166.72,175.86,22
156,166.51,175.66,22
158,166.34,175.48,22
159,166.19,175.32,22
157,166.01,175.14,22
156,165.81,174.94,22
158,165.65,174.77,22
157,165.48,174.60,22
157,165.31,174.42,22
156,165.12,174.24,22
155,164.92,174.04,22
157,164.76,173.87,22
155,164.57,173.68,22
154,164.35,173.49,22
155,164.17,173.30,22
154,163.96,173.11,22
156,163.80,172.94,22
154,163.61,172.75,22
154,163.42,172.56,22
154,163.23,172.38,22
154,163.04,172.19,22
155,162.88,172.02,22
153,162.69,171.83,22
154,162.51,171.65,22
154,162.34,171.48,22
155,162.19,171.31,22
154,162.03,171.14,22
152,161.83,170.95,22
154,161.67,170.78,22
155,161.54,170.62,22
153,161.37,170.44,22
152,161.18,170.26,22
154,161.04,170.10,22
153,160.88,169.93,22
153,160.72,169.76,22
154,160.59,169.60,22
153,160.43,169.43,22
152,160.27,169.26,22
153,160.12,169.10,22
153,159.98,168.93,22
152,159.82,168.77,22
152,159.66,168.60,22
152,159.51,168.43,22
153,159.38,168.28,22
151,159.21,168.10,22
151,159.05,167.93,22
151,158.89,167.76,22
152,158.75,167.61,22
151,158.59,167.44,22
150,158.42,167.27,22
150,158.25,167.09,22
149,158.07,166.91,22
151,157.93,166.75,22
149,157.75,166.58,22
149,157.57,166.40,22
150,157.42,166.24,22
151,157.29,166.08,22
149,157.13,165.91,22
148,156.94,165.73,22
148,156.77,165.56,22
148,156.59,165.38,22
149,156.44,165.22,22
149,156.29,165.05,22
148,156.12,164.88,22
148,155.96,164.72,22
148,155.80,164.55,22
147,155.63,164.37,22
147,155.45,164.20,22
147,155.28,164.03,22
146,155.10,163.85,22
147,154.94,163.68,22
147,154.78,163.51,22
145,154.58,163.33,22
146,154.41,163.15,22
147,154.26,162.99,22
147,154.12,162.83,22
147,153.98,162.67,22
146,153.82,162.51,22
146,153.66,162.34,22
147,153.53,162.19,22
147,153.40,162.04,22
146,153.25,161.88,22
146,153.10,161.72,22
146,152.96,161.56,22
145,152.80,161.39,22
145,152.65,161.23,22
143,152.45,161.05,22
146,152.32,160.90,22
143,152.14,160.72,22
144,151.97,160.55,22
145,151.83,160.40,22
145,151.70,160.24,22
146,151.58,160.10,22
145,151.45,159.95,22
143,151.28,159.78,22
145,151.16,159.63,22
146,151.05,159.50,22
146,150.95,159.36,22
145,150.83,159.22,22
143,150.68,159.05,22
144,150.54,158.90,22
144,150.41,158.75,22
143,150.27,158.60,22
143,150.12,158.44,22
143,149.98,158.29,22
143,149.84,158.13,22
143,149.70,157.98,22
143,149.57,157.83,22
142,149.42,157.67,22
143,149.29,157.53,22
143,149.16,157.38,22
141,149.00,157.22,22
142,148.86,157.07,22
141,148.70,156.91,22
142,148.57,156.76,22
141,148.42,156.60,22
141,148.27,156.44,22
142,148.14,156.30,22
143,148.04,156.17,22
143,147.94,156.03,22
141,147.80,155.88,22
141,147.66,155.73,22
142,147.55,155.60,22
144,147.48,155.48,22
143,147.39,155.36,22
142,147.28,155.22,22
142,147.18,155.09,22
142,147.07,154.96,22
141,146.95,154.82,22
140,146.81,154.67,22
140,146.68,154.53,22
139,146.52,154.37,22
140,146.39,154.23,22
140,146.26,154.08,22
140,146.14,153.94,22
141,146.04,153.81,22
141,145.94,153.69,22
140,145.82,153.55,22
139,145.68,153.40,22
139,145.55,153.26,22
139,145.42,153.12,22
141,145.33,153.00,22
140,145.22,152.87,22
138,145.08,152.72,22
139,144.96,152.58,22
141,144.88,152.46,22
139,144.76,152.33,22
139,144.64,152.20,22
139,144.53,152.06,22
140,144.44,151.94,22
138,144.31,151.80,22
139,144.21,151.68,22
138,144.08,151.54,22
139,143.98,151.41,22
140,143.90,151.30,22
139,143.80,151.18,22
138,143.69,151.05,22
138,143.57,150.91,22
138,143.46,150.79,22
139,143.37,150.67,22
138,143.26,150.54,22
138,143.16,150.42,22
137,143.04,150.28,22
139,142.95,150.17,22
139,142.88,150.06,22
137,142.76,149.93,22
136,142.62,149.79,22
138,142.53,149.67,22
139,142.46,149.56,22
139,142.39,149.46,22
137,142.28,149.33,22
138,142.20,149.22,22
139,142.13,149.12,22
139,142.07,149.02,22
136,141.95,148.89,22
138,141.87,148.78,22
138,141.79,148.67,22
140,141.76,148.58,22
137,141.66,148.47,22
137,141.57,148.35,22
138,141.50,148.25,22
140,141.47,148.17,22
138,141.40,148.06,22
136,141.29,147.94,22
137,141.20,147.83,22
138,141.14,147.74,22
138,141.08,147.64,22
136,140.98,147.52,22
137,140.90,147.42,22
138,140.84,147.32,22
138,140.78,147.23,22
138,140.73,147.14,22
135,140.61,147.02,22
137,140.54,146.92,22
137,140.47,146.82,22
138,140.42,146.73,22
137,140.35,146.63,22
137,140.28,146.53,22
138,140.24,146.45,22
138,140.19,146.36,22
136,140.11,146.26,22
136,140.03,146.16,22
137,139.97,146.07,22
139,139.95,146.00,22
139,139.93,145.93,22
138,139.89,145.85,22
136,139.81,145.75,22
138,139.78,145.67,22
138,139.74,145.59,22
136,139.67,145.50,22
137,139.61,145.41,22
137,139.56,145.33,22
139,139.55,145.27,22
138,139.52,145.19,22
136,139.45,145.10,22
136,139.38,145.01,22
138,139.35,144.94,22
138,139.32,144.87,22
136,139.26,144.78,22
134,139.15,144.67,22
136,139.09,144.59,22
138,139.07,144.52,22
134,138.97,144.42,22
135,138.89,144.32,22
136,138.83,144.24,22
134,138.73,144.14,22
135,138.66,144.05,22
135,138.58,143.95,22
136,138.53,143.88,22
136,138.48,143.80,22
136,138.43,143.72,22
133,138.32,143.61,22
134,138.24,143.52,22
136,138.19,143.44,22
137,138.17,143.38,22
135,138.11,143.29,22
134,138.02,143.20,22
135,137.96,143.12,22
134,137.88,143.03,22
134,137.81,142.94,22
134,137.73,142.85,22
134,137.66,142.76,22
133,137.56,142.66,22
135,137.51,142.58,22
135,137.46,142.51,22
133,137.37,142.41,22
134,137.30,142.33,22
134,137.24,142.25,22
135,137.19,142.17,22
134,137.13,142.09,22
133,137.05,142.00,22
135,137.01,141.93,22
136,136.99,141.87,22
135,136.95,141.80,22
132,136.85,141.70,22
133,136.77,141.62,22
138,136.79,141.58,22
134,136.74,141.51,22
132,136.64,141.41,22
134,136.59,141.34,22
134,136.54,141.26,22
135,136.51,141.20,22
132,136.42,141.11,22
132,136.33,141.02,22
134,136.28,140.95,22
134,136.24,140.88,22
133,136.17,140.80,22
132,136.09,140.71,22
132,136.01,140.62,22
133,135.95,140.55,22
133,135.89,140.47,22
133,135.83,140.40,22
131,135.73,140.30,22
132,135.66,140.22,22
133,135.61,140.15,22
133,135.55,140.08,22
132,135.48,140.00,22
132,135.41,139.92,22
133,135.37,139.85,22
133,135.32,139.78,22
131,135.23,139.69,22
131,135.15,139.60,22
132,135.08,139.53,22
133,135.04,139.46,22
132,134.98,139.39,22
131,134.90,139.30,22
131,134.82,139.22,22
132,134.77,139.15,22
133,134.73,139.09,22
131,134.66,139.01,22
129,134.54,138.91,22
131,134.47,138.83,22
132,134.42,138.76,22
132,134.38,138.69,22
130,134.29,138.60,22
129,134.18,138.51,22
131,134.12,138.43,22
131,134.06,138.36,22
130,133.98,138.28,22
130,133.90,138.19,22
130,133.82,138.11,22
132,133.78,138.05,22
130,133.71,137.97,22
128,133.59,137.87,22
129,133.50,137.78,22
130,133.43,137.70,22
129,133.34,137.62,22
130,133.27,137.54,22
130,133.21,137.46,22
129,133.12,137.38,22
128,133.02,137.29,22
127,132.90,137.18,22
129,132.82,137.10,22
129,132.75,137.02,22
129,132.67,136.94,22
128,132.58,136.85,22
128,132.49,136.76,22
128,132.40,136.67,22
128,132.31,136.59,22
128,132.22,136.50,22
127,132.12,136.41,22
127,132.02,136.31,22
127,131.92,136.22,22
129,131.86,136.15,22
128,131.78,136.07,22
126,131.67,135.97,22
127,131.57,135.88,22
126,131.46,135.78,22
131,131.45,135.73,22
127,131.36,135.64,22
125,131.23,135.54,22
126,131.13,135.44,22
129,131.09,135.38,22
128,131.03,135.30,22
126,130.93,135.21,22
127,130.85,135.13,22
128,130.79,135.06,22
128,130.73,134.98,22
127,130.66,134.90,22
126,130.57,134.82,22
127,130.49,134.74,22
128,130.44,134.67,22
127,130.38,134.59,22
126,130.29,134.51,22
125,130.18,134.41,22
127,130.12,134.34,22
127,130.06,134.27,22
126,129.98,134.18,22
127,129.92,134.11,22
127,129.86,134.04,22
128,129.82,133.98,22
127,129.76,133.91,22
126,129.69,133.83,22
126,129.62,133.75,22
127,129.56,133.68,22
126,129.49,133.61,22
125,129.40,133.52,22
126,129.33,133.45,22
126,129.27,133.37,22
127,129.22,133.31,22
125,129.14,133.23,22
123,129.01,133.12,22
126,128.95,133.05,22
126,128.90,132.98,22
125,128.82,132.90,22
125,128.74,132.82,22
125,128.67,132.74,22
127,128.63,132.69,22
127,128.60,132.63,22
125,128.53,132.55,22
125,128.46,132.48,22
127,128.43,132.42,22
128,128.42,132.38,22
127,128.39,132.33,22
126,128.34,132.26,22
125,128.28,132.19,22
128,128.27,132.15,22
127,128.25,132.10,22
126,128.20,132.03,22
126,128.16,131.97,22
125,128.09,131.90,22
126,128.05,131.85,22
127,128.03,131.80,22
124,127.95,131.72,22
123,127.85,131.63,22
126,127.81,131.58,22
126,127.78,131.52,22
125,127.72,131.45,22
124,127.65,131.38,22
124,127.57,131.31,22
123,127.48,131.22,22
124,127.41,131.15,22
123,127.33,131.07,22
124,127.26,131.00,22
124,127.19,130.93,22
125,127.15,130.87,22
122,127.05,130.78,22
124,126.99,130.71,22
123,126.91,130.64,22
124,126.85,130.57,22
123,126.77,130.49,22
123,126.70,130.42,22
122,126.60,130.33,22
124,126.55,130.27,22
123,126.48,130.20,22
123,126.41,130.13,22
122,126.32,130.05,22
124,126.27,129.99,22
123,126.21,129.92,22
123,126.15,129.85,22
122,126.06,129.77,22
124,126.02,129.71,22
126,126.02,129.67,22
126,126.02,129.64,22
123,125.96,129.57,22
125,125.94,129.52,22
127,125.96,129.50,22
128,126.00,129.48,22
126,126.00,129.45,22
124,125.96,129.39,22
126,125.96,129.36,22
126,125.96,129.33,22
126,125.96,129.29,22
124,125.93,129.24,22
123,125.87,129.18,22
124,125.83,129.13,22
124,125.79,129.08,22
123,125.74,129.01,22
122,125.66,128.94,22
124,125.63,128.90,22
123,125.58,128.84,22
124,125.54,128.79,22
122,125.47,128.72,22
123,125.42,128.66,22
126,125.44,128.64,22
125,125.43,128.60,22
123,125.38,128.54,22
122,125.31,128.48,22
124,125.29,128.43,22
123,125.24,128.38,22
123,125.19,128.33,22
122,125.13,128.26,22
129,125.21,128.27,22
127,125.24,128.26,22
125,125.24,128.22,22
123,125.19,128.17,22
123,125.15,128.12,22
123,125.11,128.07,22
126,125.13,128.05,22
123,125.08,128.00,22
124,125.06,127.96,22
124,125.04,127.92,22
125,125.04,127.89,22
123,125.00,127.84,22
124,124.98,127.80,22
126,125.00,127.78,22
126,125.02,127.77,22
126,125.04,127.75,22
123,125.00,127.70,22
125,125.00,127.67,22
124,124.98,127.64,22
125,124.98,127.61,22
123,124.94,127.56,22
122,124.88,127.51,22
122,124.82,127.45,22
123,124.79,127.41,22
124,124.77,127.38,22
121,124.69,127.31,22
122,124.64,127.26,22
122,124.59,127.21,22
125,124.60,127.18,22
126,124.62,127.17,22
124,124.61,127.14,22
123,124.58,127.10,22
127,124.63,127.10,22
130,124.74,127.13,22
125,124.74,127.11,22
123,124.71,127.06,22
125,124.71,127.04,22
127,124.76,127.04,22
125,124.76,127.02,22
124,124.75,126.99,22
124,124.73,126.96,22
126,124.76,126.95,22
124,124.74,126.92,22
123,124.71,126.88,22
125,124.71,126.87,22
126,124.74,126.86,22
126,124.76,126.85,22
127,124.81,126.85,22
124,124.79,126.82,22
125,124.80,126.80,22
129,124.88,126.83,22
128,124.94,126.84,22
126,124.96,126.83,22
125,124.97,126.81,22
127,125.01,126.81,22
129,125.09,126.83,22
126,125.10,126.83,22
126,125.12,126.82,22
127,125.16,126.82,22
128,125.22,126.83,22
125,125.21,126.81,22
126,125.23,126.80,22
126,125.24,126.80,22
127,125.28,126.80,22
128,125.33,126.81,22
127,125.37,126.81,22
128,125.42,126.82,22
126,125.43,126.82,22
127,125.46,126.82,22
128,125.51,126.83,22
127,125.54,126.83,22
127,125.57,126.83,22
126,125.58,126.82,22
128,125.63,126.84,22
129,125.70,126.86,22
127,125.72,126.86,22
127,125.75,126.86,22
129,125.81,126.88,22
129,125.88,126.90,22
127,125.90,126.90,22
128,125.94,126.92,22
130,126.02,126.95,22
127,126.04,126.95,22
126,126.04,126.94,22
127,126.06,126.94,22
128,126.10,126.95,22
128,126.14,126.96,22
127,126.15,126.96,22
128,126.19,126.97,22
128,126.23,126.98,22
129,126.28,127.00,22
126,126.28,126.99,22
126,126.27,126.98,22
127,126.29,126.98,22
129,126.34,127.00,22
129,126.39,127.02,22
127,126.41,127.02,22
127,126.42,127.02,22
126,126.41,127.01,22
127,126.42,127.01,22
127,126.43,127.01,22
125,126.40,126.99,22
126,126.40,126.98,22
128,126.43,126.99,22
128,126.46,127.00,22
123,126.39,126.96,22
126,126.38,126.95,22
126,126.37,126.94,22
127,126.39,126.94,22
127,126.40,126.94,22
131,126.49,126.98,22
131,126.58,127.02,22
129,126.63,127.04,22
129,126.68,127.06,22
133,126.80,127.12,22
134,126.95,127.19,22
133,127.07,127.25,22
132,127.17,127.30,22
129,127.20,127.31,22
132,127.30,127.36,22
132,127.39,127.41,22
133,127.51,127.46,22
133,127.62,127.52,22
131,127.68,127.55,22
134,127.81,127.62,22
133,127.91,127.67,22
132,128.00,127.71,22
136,128.16,127.80,22
137,128.33,127.89,22
136,128.49,127.97,22
133,128.58,128.02,22
133,128.66,128.07,22
132,128.73,128.11,22
133,128.82,128.16,22
133,128.90,128.21,22
133,128.98,128.26,22
131,129.02,128.28,22
131,129.06,128.31,22
132,129.12,128.35,22
133,129.20,128.39,22
133,129.27,128.44,22
132,129.33,128.47,22
131,129.36,128.50,22
132,129.42,128.54,22
130,129.43,128.55,22
130,129.44,128.56,22
130,129.45,128.58,22
130,129.46,128.59,22
131,129.49,128.62,22
131,129.52,128.64,22
129,129.51,128.64,22
131,129.54,128.67,22
130,129.55,128.68,22
130,129.56,128.69,22
131,129.59,128.72,22
131,129.62,128.74,22
129,129.60,128.74,22
131,129.63,128.77,22
131,129.66,128.79,22
131,129.69,128.81,22
130,129.69,128.82,22
129,129.68,128.82,22
132,129.72,128.86,22
131,129.75,128.88,22
130,129.76,128.89,22
132,129.80,128.92,22
132,129.84,128.95,22
132,129.89,128.98,22
129,129.87,128.98,22
129,129.85,128.98,22
129,129.84,128.98,22
128,129.80,128.97,22
129,129.78,128.97,22
131,129.81,128.99,22
131,129.83,129.01,22
130,129.83,129.02,22
129,129.82,129.02,22
133,129.88,129.06,22
131,129.90,129.08,22
130,129.91,129.09,22
129,129.89,129.09,22
130,129.89,129.10,22
132,129.93,129.13,22
134,130.01,129.18,22
131,130.03,129.19,22
129,130.01,129.19,22
127,129.95,129.17,22
130,129.95,129.18,22
133,130.01,129.22,22
130,130.01,129.22,22
132,130.05,129.25,22
132,130.09,129.28,22
130,130.09,129.29,22
131,130.11,129.30,22
129,130.09,129.30,22
130,130.08,129.31,22
130,130.08,129.32,22
129,130.06,129.31,22
129,130.04,129.31,22
133,130.10,129.35,22
131,130.12,129.36,22
131,130.14,129.38,22
130,130.13,129.38,22
134,130.21,129.43,22
135,130.31,129.49,22
133,130.36,129.52,22
134,130.43,129.57,22
134,130.50,129.61,22
132,130.53,129.63,22
131,130.54,129.65,22
134,130.61,129.69,22
131,130.62,129.71,22
131,130.63,129.72,22
134,130.69,129.76,22
134,130.76,129.80,22
134,130.83,129.85,22
130,130.81,129.85,22
132,130.83,129.87,22
134,130.90,129.91,22
136,131.00,129.97,22
132,131.02,129.99,22
139,131.18,130.08,22
136,131.27,130.14,22
136,131.37,130.20,22
135,131.44,130.25,22
134,131.49,130.28,22
132,131.50,130.30,22
134,131.55,130.34,22
137,131.66,130.41,22
133,131.69,130.43,22
136,131.77,130.49,22
135,131.84,130.53,22
133,131.86,130.56,22
133,131.89,130.58,22
134,131.93,130.62,22
133,131.95,130.64,22
134,131.99,130.67,22
134,132.03,130.71,22
134,132.07,130.74,22
135,132.13,130.78,22
133,132.15,130.80,22
132,132.14,130.82,22
134,132.18,130.85,22
134,132.22,130.88,22
132,132.21,130.89,22
132,132.21,130.90,22
136,132.28,130.95,22
137,132.38,131.01,22
135,132.43,131.05,22
137,132.52,131.11,22
142,132.71,131.22,22
138,132.82,131.29,22
140,132.96,131.38,22
136,133.02,131.42,22
134,133.04,131.45,22
135,133.08,131.48,22
135,133.12,131.52,22
135,133.16,131.55,22
137,133.23,131.61,22
136,133.29,131.65,22
136,133.34,131.70,22
135,133.38,131.73,22
140,133.51,131.81,22
137,133.58,131.86,22
135,133.61,131.89,22
139,133.71,131.97,22
136,133.76,132.01,22
135,133.79,132.04,22
140,133.91,132.12,22
137,133.97,132.16,22
138,134.05,132.22,22
136,134.09,132.26,22
137,134.15,132.31,22
136,134.19,132.34,22
137,134.24,132.39,22
138,134.32,132.45,22
138,134.39,132.50,22
135,134.40,132.53,22
138,134.48,132.58,22
138,134.55,132.64,22
139,134.63,132.70,22
138,134.70,132.75,22
138,134.77,132.81,22
141,134.89,132.89,22
136,134.91,132.92,22
137,134.96,132.96,22
137,135.00,133.00,22
137,135.04,133.04,22
138,135.10,133.09,22
138,135.15,133.14,22
137,135.19,133.18,22
139,135.27,133.24,22
140,135.36,133.30,22
139,135.44,133.36,22
138,135.49,133.41,22
136,135.50,133.43,22
138,135.55,133.48,22
137,135.58,133.51,22
140,135.66,133.58,22
137,135.69,133.61,22
139,135.76,133.67,22
138,135.80,133.71,22
141,135.91,133.78,22
139,135.97,133.83,22
141,136.07,133.91,22
144,136.23,134.01,22
138,136.26,134.05,22
138,136.30,134.09,22
142,136.41,134.17,22
146,136.60,134.28,22
144,136.75,134.38,22
142,136.86,134.46,22
141,136.94,134.52,22
140,137.00,134.58,22
147,137.20,134.70,22
145,137.36,134.81,22
142,137.45,134.88,22
146,137.62,134.99,22
147,137.81,135.11,22
143,137.91,135.19,22
142,137.99,135.26,22
143,138.09,135.33,22
145,138.23,135.43,22
143,138.33,135.51,22
147,138.50,135.62,22
150,138.73,135.76,22
140,138.76,135.81,22
146,138.90,135.91,22
148,139.08,136.03,22
146,139.22,136.13,22
149,139.42,136.26,22
145,139.53,136.35,22
145,139.64,136.43,22
150,139.85,136.57,22
146,139.97,136.66,22
148,140.13,136.77,22
150,140.33,136.91,22
145,140.42,136.99,22
146,140.53,137.08,22
145,140.62,137.16,22
150,140.81,137.29,22
149,140.97,137.40,22
147,141.09,137.50,22
151,141.29,137.63,22
148,141.42,137.74,22
147,141.54,137.83,22
149,141.69,137.94,22
153,141.91,138.09,22
151,142.09,138.22,22
147,142.19,138.31,22
157,142.49,138.50,22
155,142.74,138.66,22
151,142.90,138.78,22
151,143.07,138.91,22
150,143.20,139.02,22
151,143.36,139.14,22
154,143.57,139.29,22
156,143.82,139.45,22
155,144.05,139.61,22
152,144.20,139.73,22
154,144.40,139.88,22
150,144.51,139.98,22
151,144.64,140.09,22
152,144.79,140.21,22
156,145.01,140.36,22
153,145.17,140.49,22
154,145.35,140.63,22
152,145.48,140.74,22
155,145.67,140.88,22
152,145.80,140.99,22
157,146.02,141.15,22
161,146.32,141.35,22
160,146.60,141.54,22
160,146.86,141.72,22
156,147.05,141.87,22
159,147.29,142.04,22
156,147.46,142.18,22
159,147.69,142.34,22
158,147.90,142.50,22
159,148.12,142.67,22
159,148.34,142.83,22
158,148.53,142.98,22
161,148.78,143.16,22
157,148.94,143.30,22
164,149.25,143.51,22
164,149.54,143.71,22
158,149.71,143.85,22
157,149.86,143.99,22
164,150.14,144.19,22
168,150.50,144.42,22
160,150.69,144.58,22
160,150.87,144.73,22
160,151.05,144.89,22
169,151.41,145.13,22
168,151.75,145.36,22
161,151.93,145.51,22
162,152.13,145.68,22
166,152.41,145.88,22
166,152.68,146.08,22
161,152.85,146.23,22
168,153.15,146.45,22
164,153.37,146.62,22
162,153.54,146.78,22
168,153.83,146.99,22
166,154.07,147.18,22
165,154.29,147.36,22
168,154.57,147.57,22
164,154.75,147.73,22
169,155.04,147.94,22
165,155.24,148.11,22
176,155.65,148.39,22
175,156.04,148.66,22
173,156.38,148.90,22
177,156.79,149.18,22
176,157.18,149.45,22
172,157.47,149.68,22
173,157.78,149.91,22
177,158.17,150.18,22
182,158.64,150.50,22
175,158.97,150.74,22
171,159.21,150.95,22
177,159.57,151.21,22
172,159.82,151.41,22
174,160.10,151.64,22
173,160.36,151.85,22
173,160.61,152.07,22
184,161.08,152.38,22
187,161.60,152.73,22
178,161.93,152.98,22
185,162.39,153.30,22
193,163.00,153.70,22
189,163.52,154.05,22
181,163.87,154.32,22
186,164.31,154.64,22
193,164.88,155.02,22
191,165.41,155.38,22
188,165.86,155.71,22
186,166.26,156.01,22
191,166.76,156.36,22
190,167.22,156.70,22
190,167.68,157.03,22
202,168.36,157.48,22
206,169.12,157.97,22
193,169.59,158.32,22
197,170.14,158.70,22
201,170.76,159.13,22
193,171.20,159.47,22
200,171.78,159.87,22
199,172.32,160.26,22
200,172.88,160.66,22
195,173.32,161.00,22
194,173.73,161.33,22
198,174.22,161.70,22
195,174.63,162.03,22
196,175.06,162.37,22
199,175.54,162.74,22
194,175.91,163.05,22
196,176.31,163.38,22
200,176.79,163.75,22
195,177.15,164.06,22
197,177.55,164.39,22
195,177.90,164.69,22
196,178.26,165.01,22
206,178.81,165.42,22
205,179.34,165.81,22
198,179.71,166.14,22
196,180.04,166.43,22
199,180.42,166.76,22
198,180.77,167.07,22
197,181.09,167.37,22
200,181.47,167.70,22
203,181.90,168.05,22
199,182.24,168.36,22
198,182.56,168.66,22
197,182.85,168.94,22
202,183.23,169.27,22
200,183.56,169.58,22
199,183.87,169.87,22
198,184.16,170.15,22
203,184.53,170.48,22
199,184.82,170.77,22
200,185.13,171.06,22
201,185.44,171.36,22
201,185.75,171.66,22
196,185.96,171.90,22
198,186.20,172.16,22
202,186.52,172.46,22
203,186.85,172.76,22
205,187.21,173.09,22
200,187.46,173.36,22
201,187.74,173.63,22
210,188.18,174.00,22
202,188.46,174.28,22
206,188.81,174.59,22
212,189.27,174.97,22
205,189.59,175.27,22
205,189.89,175.56,22
209,190.28,175.90,22
214,190.75,176.28,22
210,191.14,176.62,22
206,191.43,176.91,22
206,191.72,177.20,22
217,192.23,177.60,22
218,192.75,178.00,22
220,193.29,178.42,22
212,193.67,178.76,22
220,194.19,179.17,22
226,194.83,179.64,22
224,195.41,180.08,22
215,195.80,180.43,22
214,196.17,180.77,22
213,196.50,181.09,22
215,196.87,181.43,22
215,197.24,181.77,22
214,197.57,182.09,22
218,197.98,182.45,22
215,198.32,182.77,22
216,198.67,183.10,22
213,198.96,183.40,22
212,199.22,183.69,22
214,199.52,183.99,22
211,199.75,184.26,22
217,200.09,184.59,22
212,200.33,184.86,22
211,200.54,185.13,22
211,200.75,185.38,22
210,200.94,185.63,22
213,201.18,185.90,22
214,201.44,186.19,22
213,201.67,186.45,22
