Teste de posicionamento 3(EMG tendao-inervacao (Vermelho A, Verde C) + Ref no pulso) - 16/09/2024 - teste6 - 5 contrações
long frequencia = 1000;                 //frequência de aquisição do sinal, neste caso, 1000 sinais por segundo
float fator1 = 0.02, fator2 = 0.01;
float incerteza = 0.13;
float pico_basal = 130; // Mínimo para ser considerado um pico de contração
int filtro_horizontal=200000; //intervalo de 200ms valores não pode ter mais de 1 contração

Biceps_D,mediaMovel_1,mediaMovel_2,Contracao
130,2.60,1.30,0
129,5.13,2.58,0
128,7.59,3.83,0
128,9.99,5.07,0
128,12.35,6.30,0
129,14.69,7.53,0
130,16.99,8.75,0
130,19.25,9.97,0
128,21.43,11.15,0
128,23.56,12.32,0
128,25.65,13.47,0
131,27.76,14.65,0
129,29.78,15.79,0
128,31.74,16.91,0
128,33.67,18.02,0
128,35.56,19.12,0
129,37.43,20.22,0
129,39.26,21.31,0
129,41.05,22.39,0
128,42.79,23.44,0
128,44.49,24.49,0
130,46.20,25.54,0
129,47.86,26.58,0
127,49.44,27.58,0
127,50.99,28.58,0
128,52.53,29.57,0
128,54.04,30.56,0
129,55.54,31.54,0
128,56.99,32.50,0
127,58.39,33.45,0
127,59.76,34.38,0
128,61.13,35.32,0
128,62.47,36.25,0
128,63.78,37.17,0
125,65.00,38.04,0
127,66.24,38.93,0
127,67.46,39.81,0
127,68.65,40.69,0
127,69.81,41.55,0
126,70.94,42.39,0
125,72.02,43.22,0
129,73.16,44.08,0
127,74.24,44.91,0
127,75.29,45.73,0
125,76.29,46.52,0
125,77.26,47.30,0
124,78.19,48.07,0
128,79.19,48.87,0
126,80.13,49.64,0
125,81.02,50.40,0
125,81.90,51.14,0
128,82.83,51.91,0
126,83.69,52.65,0
125,84.52,53.38,0
125,85.33,54.09,0
123,86.08,54.78,0
125,86.86,55.48,0
125,87.62,56.18,0
125,88.37,56.87,0
124,89.08,57.54,0
123,89.76,58.19,0
123,90.42,58.84,0
124,91.10,59.49,0
126,91.79,60.16,0
124,92.44,60.80,0
124,93.07,61.43,0
124,93.69,62.05,0
124,94.29,62.67,0
125,94.91,63.30,0
125,95.51,63.91,0
123,96.06,64.50,0
122,96.58,65.08,0
124,97.13,65.67,0
124,97.66,66.25,0
125,98.21,66.84,0
122,98.69,67.39,0
123,99.17,67.95,0
123,99.65,68.50,0
125,100.16,69.06,0
125,100.65,69.62,0
124,101.12,70.17,0
124,101.58,70.70,0
124,102.03,71.24,0
124,102.47,71.76,0
123,102.88,72.28,0
122,103.26,72.77,0
122,103.63,73.27,0
123,104.02,73.76,0
124,104.42,74.27,0
124,104.81,74.76,0
121,105.14,75.23,0
122,105.47,75.69,0
123,105.82,76.17,0
122,106.15,76.62,0
124,106.50,77.10,0
120,106.77,77.53,0
121,107.06,77.96,0
124,107.40,78.42,0
123,107.71,78.87,0
122,108.00,79.30,0
121,108.26,79.72,0
121,108.51,80.13,0
122,108.78,80.55,0
123,109.06,80.97,0
121,109.30,81.37,0
120,109.52,81.76,0
122,109.77,82.16,0
122,110.01,82.56,0
122,110.25,82.95,0
120,110.45,83.32,0
120,110.64,83.69,0
121,110.84,84.06,0
122,111.07,84.44,0
122,111.29,84.82,0
121,111.48,85.18,0
120,111.65,85.53,0
121,111.84,85.88,0
122,112.04,86.25,0
122,112.24,86.60,0
120,112.40,86.94,0
121,112.57,87.28,0
120,112.72,87.60,0
122,112.90,87.95,0
120,113.04,88.27,0
122,113.22,88.61,0
119,113.34,88.91,0
120,113.47,89.22,0
122,113.64,89.55,0
121,113.79,89.86,0
119,113.89,90.15,0
120,114.02,90.45,0
120,114.14,90.75,0
121,114.27,91.05,0
120,114.39,91.34,0
118,114.46,91.61,0
119,114.55,91.88,0
119,114.64,92.15,0
120,114.75,92.43,0
121,114.87,92.72,0
118,114.93,92.97,0
119,115.02,93.23,0
120,115.12,93.50,0
120,115.21,93.76,0
118,115.27,94.00,0
118,115.32,94.24,0
117,115.36,94.47,0
119,115.43,94.72,0
119,115.50,94.96,0
118,115.55,95.19,0
118,115.60,95.42,0
117,115.63,95.63,0
118,115.68,95.86,0
120,115.76,96.10,0
118,115.81,96.32,0
116,115.81,96.52,0
116,115.81,96.71,0
118,115.86,96.92,0
118,115.90,97.13,0
117,115.92,97.33,0
116,115.92,97.52,0
118,115.97,97.72,0
118,116.01,97.93,0
118,116.05,98.13,0
116,116.05,98.31,0
116,116.04,98.48,0
116,116.04,98.66,0
119,116.10,98.86,0
118,116.14,99.05,0
120,116.22,99.26,0
116,116.21,99.43,0
116,116.21,99.60,0
118,116.25,99.78,0
117,116.26,99.95,0
116,116.26,100.11,0
116,116.25,100.27,0
118,116.29,100.45,0
118,116.32,100.62,0
117,116.33,100.79,0
117,116.35,100.95,0
117,116.36,101.11,0
117,116.37,101.27,0
118,116.40,101.44,0
117,116.42,101.59,0
115,116.39,101.73,0
117,116.40,101.88,0
118,116.43,102.04,0
117,116.44,102.19,0
115,116.42,102.32,0
116,116.41,102.46,0
116,116.40,102.59,0
117,116.41,102.73,0
115,116.38,102.86,0
115,116.35,102.98,0
115,116.33,103.10,0
117,116.34,103.24,0
115,116.31,103.36,0
115,116.29,103.47,0
115,116.26,103.59,0
113,116.20,103.68,0
115,116.17,103.79,0
116,116.17,103.92,0
114,116.13,104.02,0
116,116.12,104.14,0
117,116.14,104.27,0
117,116.16,104.39,0
115,116.14,104.50,0
115,116.11,104.60,0
115,116.09,104.71,0
115,116.07,104.81,0
116,116.07,104.92,0
115,116.05,105.02,0
116,116.04,105.13,0
115,116.02,105.23,0
119,116.08,105.37,0
117,116.10,105.49,0
116,116.10,105.59,0
115,116.08,105.69,0
116,116.08,105.79,0
117,116.09,105.90,0
117,116.11,106.01,0
113,116.05,106.08,0
114,116.01,106.16,0
115,115.99,106.25,0
115,115.97,106.34,0
115,115.95,106.42,0
115,115.93,106.51,0
116,115.93,106.60,0
115,115.91,106.69,0
117,115.94,106.79,0
113,115.88,106.85,0
117,115.90,106.95,0
117,115.92,107.06,0
118,115.96,107.16,0
116,115.96,107.25,0
116,115.96,107.34,0
114,115.93,107.41,0
117,115.95,107.50,0
121,116.05,107.64,0
115,116.03,107.71,0
115,116.01,107.78,0
115,115.99,107.86,0
117,116.01,107.95,0
117,116.03,108.04,0
117,116.05,108.13,0
118,116.08,108.23,0
117,116.10,108.31,0
115,116.08,108.38,0
115,116.06,108.45,0
115,116.04,108.51,0
118,116.08,108.61,0
115,116.06,108.67,0
115,116.03,108.74,0
116,116.03,108.81,0
115,116.01,108.87,0
117,116.03,108.95,0
119,116.09,109.05,0
115,116.07,109.11,0
119,116.13,109.21,0
117,116.15,109.29,0
116,116.14,109.36,0
116,116.14,109.42,0
115,116.12,109.48,0
116,116.12,109.54,0
116,116.11,109.61,0
115,116.09,109.66,0
115,116.07,109.71,0
116,116.07,109.78,0
116,116.07,109.84,0
117,116.09,109.91,0
117,116.10,109.98,0
115,116.08,110.03,0
119,116.14,110.12,0
117,116.16,110.19,0
120,116.23,110.29,0
117,116.25,110.36,0
116,116.24,110.41,0
117,116.26,110.48,0
117,116.27,110.54,0
119,116.33,110.63,0
121,116.42,110.73,0
119,116.47,110.81,0
119,116.52,110.90,0
117,116.53,110.96,0
119,116.58,111.04,0
120,116.65,111.13,0
123,116.78,111.25,0
120,116.84,111.33,0
118,116.87,111.40,0
121,116.95,111.50,0
119,116.99,111.57,0
119,117.03,111.65,0
119,117.07,111.72,0
117,117.07,111.77,0
117,117.07,111.82,0
122,117.17,111.93,0
120,117.22,112.01,0
118,117.24,112.07,0
119,117.27,112.14,0
121,117.35,112.22,0
119,117.38,112.29,0
117,117.37,112.34,0
117,117.37,112.39,0
120,117.42,112.46,0
118,117.43,112.52,0
123,117.54,112.62,0
121,117.61,112.71,0
119,117.64,112.77,0
119,117.67,112.83,0
122,117.75,112.92,0
121,117.82,113.00,0
119,117.84,113.06,0
119,117.86,113.12,0
121,117.93,113.20,0
122,118.01,113.29,0
121,118.07,113.37,0
121,118.13,113.44,0
119,118.14,113.50,0
121,118.20,113.57,0
121,118.26,113.65,0
119,118.27,113.70,0
123,118.37,113.79,0
119,118.38,113.85,0
121,118.43,113.92,0
121,118.48,113.99,0
121,118.53,114.06,0
123,118.62,114.15,0
121,118.67,114.22,0
123,118.76,114.31,0
123,118.84,114.39,0
123,118.92,114.48,0
127,119.09,114.60,0
128,119.26,114.74,0
125,119.38,114.84,0
127,119.53,114.96,0
132,119.78,115.13,0
129,119.97,115.27,0
124,120.05,115.36,0
133,120.31,115.53,0
135,120.60,115.73,0
133,120.85,115.90,0
130,121.03,116.04,0
128,121.17,116.16,0
131,121.37,116.31,0
128,121.50,116.43,0
131,121.69,116.57,0
131,121.88,116.72,0
129,122.02,116.84,0
128,122.14,116.95,0
134,122.37,117.12,0
129,122.51,117.24,0
128,122.62,117.35,0
129,122.74,117.47,0
129,122.87,117.58,0
132,123.05,117.72,0
129,123.17,117.84,0
129,123.29,117.95,0
129,123.40,118.06,0
133,123.59,118.21,0
129,123.70,118.32,0
129,123.81,118.42,0
129,123.91,118.53,0
131,124.05,118.65,0
129,124.15,118.76,0
133,124.33,118.90,0
135,124.54,119.06,0
131,124.67,119.18,0
130,124.78,119.29,0
136,125.00,119.46,0
131,125.12,119.57,0
131,125.24,119.69,0
128,125.30,119.77,0
133,125.45,119.90,0
139,125.72,120.09,0
140,126.01,120.29,0
131,126.11,120.40,0
137,126.32,120.56,0
140,126.60,120.76,0
141,126.89,120.96,0
142,127.19,121.17,0
137,127.38,121.33,0
137,127.58,121.49,0
136,127.75,121.63,0
137,127.93,121.79,0
136,128.09,121.93,0
135,128.23,122.06,0
141,128.49,122.25,0
139,128.70,122.42,0
137,128.86,122.56,0
136,129.00,122.70,0
135,129.12,122.82,0
136,129.26,122.95,0
136,129.40,123.08,0
138,129.57,123.23,0
135,129.68,123.35,0
136,129.80,123.47,0
135,129.91,123.59,0
137,130.05,123.72,0
133,130.11,123.82,0
135,130.21,123.93,0
135,130.30,124.04,0
136,130.42,124.16,0
137,130.55,124.29,0
135,130.64,124.39,0
133,130.68,124.48,0
137,130.81,124.61,0
136,130.91,124.72,0
135,131.00,124.82,0
135,131.08,124.92,0
136,131.17,125.03,0
141,131.37,125.19,0
135,131.44,125.29,0
133,131.47,125.37,0
136,131.57,125.48,0
141,131.75,125.63,0
136,131.84,125.73,0
137,131.94,125.85,0
147,132.24,126.06,0
149,132.58,126.29,0
140,132.73,126.43,0
138,132.83,126.54,0
139,132.96,126.67,0
139,133.08,126.79,0
139,133.20,126.91,0
140,133.33,127.04,0
138,133.42,127.15,0
145,133.66,127.33,0
141,133.80,127.47,0
141,133.95,127.60,0
141,134.09,127.74,0
143,134.27,127.89,0
143,134.44,128.04,0
145,134.65,128.21,0
145,134.86,128.38,0
142,135.00,128.51,0
148,135.26,128.71,0
141,135.38,128.83,0
145,135.57,128.99,0
152,135.90,129.22,0
148,136.14,129.41,0
146,136.34,129.58,0
145,136.51,129.73,0
143,136.64,129.86,0
149,136.89,130.06,0
143,137.01,130.18,0
148,137.23,130.36,0
145,137.38,130.51,0
149,137.62,130.69,0
151,137.88,130.90,0
148,138.09,131.07,0
151,138.35,131.27,0
151,138.60,131.46,0
151,138.85,131.66,0
145,138.97,131.79,0
149,139.17,131.97,0
151,139.41,132.16,0
147,139.56,132.30,0
148,139.73,132.46,0
149,139.91,132.63,0
146,140.03,132.76,0
147,140.17,132.90,0
149,140.35,133.06,0
149,140.52,133.22,0
152,140.75,133.41,0
148,140.90,133.56,0
146,141.00,133.68,0
151,141.20,133.85,0
148,141.34,134.00,0
147,141.45,134.13,0
148,141.58,134.26,0
149,141.73,134.41,0
152,141.93,134.59,0
149,142.08,134.73,0
154,142.31,134.92,0
148,142.43,135.06,0
147,142.52,135.17,0
149,142.65,135.31,0
147,142.74,135.43,0
152,142.92,135.60,0
151,143.08,135.75,0
148,143.18,135.87,0
152,143.36,136.03,0
149,143.47,136.16,0
147,143.54,136.27,0
153,143.73,136.44,0
151,143.88,136.58,0
152,144.04,136.74,0
149,144.14,136.86,0
150,144.25,136.99,0
150,144.37,137.12,0
151,144.50,137.26,0
149,144.59,137.38,0
150,144.70,137.51,0
153,144.87,137.66,0
151,144.99,137.79,0
149,145.07,137.91,0
153,145.23,138.06,0
147,145.26,138.15,0
155,145.46,138.31,0
155,145.65,138.48,0
151,145.76,138.61,0
156,145.96,138.78,0
157,146.18,138.96,0
159,146.44,139.16,0
153,146.57,139.30,0
153,146.70,139.44,0
162,147.00,139.66,0
160,147.26,139.87,0
158,147.48,140.05,0
157,147.67,140.22,0
161,147.94,140.43,0
161,148.20,140.63,0
158,148.39,140.81,0
159,148.60,140.99,0
159,148.81,141.17,0
163,149.10,141.39,0
163,149.37,141.60,0
163,149.65,141.82,0
157,149.79,141.97,0
163,150.06,142.18,0
161,150.28,142.37,0
164,150.55,142.58,0
167,150.88,142.83,0
159,151.04,142.99,0
159,151.20,143.15,0
161,151.40,143.33,0
169,151.75,143.58,0
169,152.10,143.84,0
162,152.29,144.02,0
172,152.69,144.30,0
172,153.07,144.58,0
168,153.37,144.81,0
163,153.56,144.99,0
176,154.01,145.30,0
169,154.31,145.54,0
169,154.61,145.77,0
168,154.87,146.00,0
170,155.18,146.24,0
170,155.47,146.47,0
167,155.70,146.68,0
172,156.03,146.93,0
167,156.25,147.13,0
167,156.46,147.33,0
169,156.72,147.55,0
172,157.02,147.79,0
167,157.22,147.99,0
173,157.54,148.24,0
171,157.81,148.46,0
171,158.07,148.69,0
167,158.25,148.87,0
177,158.62,149.15,0
173,158.91,149.39,0
179,159.31,149.69,0
187,159.87,150.06,0
174,160.15,150.30,0
176,160.47,150.56,0
177,160.80,150.82,0
189,161.36,151.20,0
191,161.95,151.60,0
183,162.37,151.92,0
177,162.67,152.17,0
178,162.97,152.42,0
180,163.31,152.70,0
181,163.67,152.98,0
184,164.07,153.29,0
187,164.53,153.63,0
197,165.18,154.06,0
190,165.68,154.42,0
181,165.99,154.69,0
195,166.57,155.09,0
197,167.17,155.51,0
195,167.73,155.91,0
193,168.24,156.28,0
189,168.65,156.60,0
187,169.02,156.91,0
191,169.46,157.25,0
189,169.85,157.57,0
192,170.29,157.91,0
192,170.73,158.25,0
188,171.07,158.55,0
189,171.43,158.85,0
189,171.78,159.16,0
200,172.35,159.56,0
205,173.00,160.02,0
200,173.54,160.42,0
193,173.93,160.74,0
209,174.63,161.23,0
211,175.36,161.72,0
200,175.85,162.11,0
197,176.27,162.46,0
206,176.87,162.89,0
197,177.27,163.23,0
195,177.62,163.55,0
195,177.97,163.86,0
197,178.35,164.20,0
197,178.73,164.52,0
197,179.09,164.85,0
201,179.53,165.21,0
199,179.92,165.55,0
209,180.50,165.98,0
199,180.87,166.31,0
202,181.29,166.67,0
197,181.61,166.97,0
197,181.91,167.27,0
210,182.48,167.70,0
217,183.17,168.19,0
213,183.76,168.64,0
210,184.29,169.06,0
202,184.64,169.38,0
203,185.01,169.72,0
203,185.37,170.05,0
206,185.78,170.41,0
208,186.23,170.79,0
205,186.60,171.13,0
209,187.05,171.51,0
220,187.71,171.99,0
224,188.43,172.51,0
223,189.13,173.02,0
215,189.64,173.44,0
223,190.31,173.94,0
221,190.92,174.41,0
216,191.43,174.82,0
215,191.90,175.22,0
214,192.34,175.61,0
216,192.81,176.02,0
217,193.30,176.42,0
217,193.77,176.83,0
213,194.16,177.19,0
214,194.55,177.56,0
217,195.00,177.95,0
215,195.40,178.33,0
217,195.83,178.71,0
213,196.18,179.05,0
212,196.49,179.38,0
213,196.82,179.72,0
214,197.17,180.06,0
215,197.52,180.41,0
217,197.91,180.78,0
219,198.33,181.16,0
214,198.65,181.49,0
214,198.95,181.81,0
215,199.28,182.15,0
213,199.55,182.45,0
214,199.84,182.77,0
218,200.20,183.12,0
218,200.56,183.47,0
211,200.77,183.75,0
217,201.09,184.08,0
215,201.37,184.39,0
218,201.70,184.72,0
221,202.09,185.09,0
223,202.51,185.47,0
219,202.84,185.80,0
214,203.06,186.08,0
229,203.58,186.51,0
225,204.01,186.90,0
222,204.37,187.25,0
220,204.68,187.58,0
218,204.95,187.88,0
217,205.19,188.17,0
224,205.56,188.53,0
217,205.79,188.81,0
219,206.06,189.12,0
217,206.28,189.40,0
217,206.49,189.67,0
220,206.76,189.97,0
217,206.96,190.24,0
218,207.19,190.52,0
225,207.54,190.87,0
236,208.11,191.32,0
224,208.43,191.65,0
227,208.80,192.00,0
239,209.40,192.47,0
239,210.00,192.93,0
233,210.46,193.33,0
232,210.89,193.72,0
229,211.25,194.07,0
225,211.52,194.38,0
229,211.87,194.73,0
229,212.22,195.07,0
225,212.47,195.37,0
228,212.78,195.70,0
227,213.07,196.01,0
230,213.41,196.35,0
227,213.68,196.66,0
223,213.86,196.92,0
225,214.09,197.20,0
225,214.30,197.48,0
225,214.52,197.75,0
223,214.69,198.01,0
223,214.85,198.26,0
223,215.02,198.50,0
225,215.22,198.77,0
224,215.39,199.02,0
221,215.51,199.24,0
224,215.67,199.49,0
222,215.80,199.71,0
221,215.91,199.93,0
221,216.01,200.14,0
221,216.11,200.35,0
221,216.21,200.55,0
220,216.28,200.75,0
220,216.36,200.94,0
220,216.43,201.13,0
220,216.50,201.32,0
219,216.55,201.50,0
220,216.62,201.68,0
219,216.67,201.85,0
219,216.71,202.03,0
217,216.72,202.18,0
217,216.72,202.32,0
216,216.71,202.46,0
216,216.70,202.60,0
217,216.70,202.74,0
217,216.71,202.88,0
216,216.69,203.01,0
216,216.68,203.14,0
216,216.67,203.27,0
216,216.65,203.40,0
213,216.58,203.50,0
214,216.53,203.60,0
214,216.48,203.70,0
214,216.43,203.81,0
215,216.40,203.92,0
213,216.33,204.01,0
213,216.26,204.10,0
211,216.16,204.17,0
213,216.10,204.26,0
212,216.01,204.33,0
213,215.95,204.42,0
211,215.86,204.49,0
209,215.72,204.53,0
210,215.60,204.59,0
213,215.55,204.67,0
209,215.42,204.71,0
209,215.29,204.76,0
209,215.17,204.80,0
211,215.08,204.86,0
210,214.98,204.91,0
210,214.88,204.96,0
209,214.76,205.00,0
209,214.65,205.04,0
209,214.54,205.08,0
208,214.41,205.11,0
207,214.26,205.13,0
209,214.15,205.17,0
207,214.01,205.19,0
207,213.87,205.21,0
209,213.77,205.25,0
206,213.62,205.25,0
207,213.48,205.27,0
205,213.31,205.27,0
205,213.15,205.26,0
205,212.98,205.26,0
204,212.80,205.25,0
204,212.63,205.24,0
203,212.44,205.21,0
204,212.27,205.20,0
203,212.08,205.18,0
204,211.92,205.17,0
203,211.74,205.15,0
202,211.55,205.12,0
201,211.34,205.07,0
201,211.13,205.03,0
201,210.93,204.99,0
202,210.75,204.96,0
200,210.53,204.91,0
200,210.32,204.86,0
200,210.12,204.82,0
201,209.93,204.78,0
201,209.76,204.74,0
199,209.54,204.68,0
199,209.33,204.63,0
199,209.12,204.57,0
199,208.92,204.51,0
197,208.68,204.44,0
198,208.47,204.37,0
199,208.28,204.32,0
198,208.07,204.26,0
201,207.93,204.22,0
197,207.71,204.15,0
196,207.48,204.07,0
196,207.25,203.99,0
197,207.04,203.92,0
196,206.82,203.84,0
196,206.61,203.76,0
194,206.36,203.67,0
195,206.13,203.58,0
197,205.95,203.51,0
194,205.71,203.42,0
193,205.45,203.31,0
194,205.22,203.22,0
194,205.00,203.13,0
194,204.78,203.04,0
191,204.50,202.92,0
192,204.25,202.81,0
193,204.03,202.71,0
193,203.81,202.61,0
192,203.57,202.51,0
191,203.32,202.39,0
191,203.07,202.28,0
191,202.83,202.16,0
191,202.60,202.05,0
191,202.36,201.94,0
190,202.12,201.82,0
189,201.85,201.69,0
189,201.60,201.57,1
189,201.35,201.44,1
189,201.10,201.32,1
188,200.84,201.18,1
188,200.58,201.05,1
187,200.31,200.91,1
188,200.06,200.78,1
187,199.80,200.65,1
188,199.56,200.52,1
187,199.31,200.38,1
187,199.07,200.25,1
186,198.81,200.11,1
185,198.53,199.96,1
185,198.26,199.81,1
185,197.99,199.66,1
185,197.73,199.51,1
184,197.46,199.36,1
185,197.21,199.21,1
184,196.95,199.06,1
185,196.71,198.92,1
185,196.47,198.78,1
184,196.22,198.63,1
183,195.96,198.48,1
185,195.74,198.34,1
184,195.50,198.20,1
184,195.27,198.06,1
181,194.99,197.89,1
181,194.71,197.72,1
183,194.48,197.57,1
183,194.25,197.42,1
181,193.98,197.26,1
181,193.72,197.10,1
181,193.47,196.94,1
182,193.24,196.79,1
181,192.99,196.63,1
180,192.73,196.46,1
180,192.48,196.30,1
181,192.25,196.15,1
181,192.02,195.99,1
179,191.76,195.82,1
181,191.55,195.68,1
178,191.28,195.50,1
180,191.05,195.34,1
180,190.83,195.19,1
179,190.59,195.03,1
179,190.36,194.87,1
179,190.13,194.71,1
180,189.93,194.56,1
177,189.67,194.39,1
177,189.42,194.21,1
177,189.17,194.04,1
177,188.93,193.87,1
177,188.69,193.70,1
177,188.46,193.54,1
175,188.19,193.35,1
177,187.96,193.19,1
177,187.74,193.02,1
177,187.53,192.86,1
175,187.28,192.69,1
174,187.01,192.50,1
175,186.77,192.32,1
177,186.58,192.17,1
175,186.35,192.00,1
175,186.12,191.83,1
173,185.86,191.64,1
174,185.62,191.46,1
175,185.41,191.30,1
174,185.18,191.13,1
173,184.93,190.95,1
173,184.70,190.77,1
175,184.50,190.61,1
174,184.29,190.44,1
173,184.07,190.27,1
175,183.89,190.11,1
173,183.67,189.94,1
174,183.47,189.78,1
173,183.26,189.62,1
171,183.02,189.43,1
173,182.82,189.27,1
172,182.60,189.09,1
173,182.41,188.93,1
171,182.18,188.75,1
171,181.96,188.58,1
169,181.70,188.38,1
170,181.47,188.20,1
171,181.26,188.02,1
171,181.05,187.85,1
169,180.81,187.67,1
169,180.57,187.48,1
169,180.34,187.29,1
170,180.14,187.12,1
168,179.89,186.93,1
169,179.68,186.75,1
169,179.46,186.57,1
169,179.25,186.40,1
172,179.11,186.25,1
168,178.89,186.07,1
167,178.65,185.88,1
169,178.45,185.71,1
168,178.25,185.53,1
167,178.02,185.35,1
166,177.78,185.16,1
165,177.52,184.95,1
169,177.35,184.79,1
167,177.15,184.62,1
165,176.90,184.42,1
165,176.67,184.23,1
166,176.45,184.04,1
167,176.26,183.87,1
168,176.10,183.71,1
169,175.96,183.57,1
165,175.74,183.38,1
167,175.56,183.22,1
167,175.39,183.06,1
168,175.24,182.91,1
167,175.08,182.75,1
165,174.88,182.57,1
167,174.72,182.41,1
165,174.53,182.24,1
165,174.33,182.07,1
164,174.13,181.89,1
165,173.95,181.72,1
166,173.79,181.56,1
164,173.59,181.38,1
163,173.38,181.20,1
164,173.19,181.03,1
164,173.01,180.86,1
165,172.85,180.70,1
163,172.65,180.52,1
163,172.46,180.35,1
161,172.23,180.15,1
162,172.02,179.97,1
162,171.82,179.79,1
161,171.61,179.60,1
161,171.39,179.42,1
161,171.19,179.23,1
161,170.98,179.05,1
163,170.82,178.89,1
162,170.65,178.72,1
161,170.45,178.55,1
162,170.28,178.38,1
161,170.10,178.21,1
161,169.92,178.03,1
161,169.74,177.86,1
161,169.56,177.70,1
161,169.39,177.53,1
161,169.22,177.36,1
159,169.02,177.18,1
160,168.84,177.01,1
159,168.64,176.83,1
160,168.47,176.66,1
159,168.28,176.48,1
160,168.12,176.32,1
160,167.95,176.15,1
159,167.77,175.98,1
159,167.60,175.81,1
158,167.41,175.63,1
159,167.24,175.47,1
159,167.07,175.30,1
158,166.89,175.13,1
157,166.69,174.95,1
157,166.50,174.77,1
159,166.35,174.61,1
158,166.18,174.45,1
158,166.02,174.28,1
157,165.84,174.11,1
157,165.66,173.94,1
157,165.49,173.77,1
157,165.32,173.60,1
156,165.13,173.42,1
157,164.97,173.26,1
157,164.81,173.10,1
158,164.67,172.95,1
157,164.52,172.79,1
157,164.37,172.63,1
156,164.20,172.46,1
156,164.04,172.30,1
158,163.92,172.16,1
157,163.78,172.00,1
155,163.60,171.83,1
156,163.45,171.68,1
155,163.28,171.51,1
154,163.10,171.33,1
155,162.94,171.17,1
154,162.76,171.00,1
154,162.58,170.83,1
153,162.39,170.65,1
153,162.20,170.47,1
153,162.02,170.30,1
152,161.82,170.12,1
153,161.64,169.95,1
153,161.47,169.78,1
153,161.30,169.61,1
153,161.13,169.44,1
153,160.97,169.28,1
153,160.81,169.11,1
151,160.62,168.93,1
154,160.48,168.78,1
151,160.29,168.61,1
151,160.11,168.43,1
152,159.95,168.27,1
153,159.81,168.11,1
152,159.65,167.95,1
151,159.48,167.78,1
151,159.31,167.61,1
150,159.12,167.44,1
149,158.92,167.25,1
149,158.72,167.07,1
149,158.53,166.89,1
149,158.34,166.71,1
151,158.19,166.56,1
151,158.05,166.40,1
149,157.86,166.23,1
149,157.69,166.05,1
149,157.51,165.88,1
148,157.32,165.70,1
148,157.14,165.53,1
149,156.97,165.36,1
147,156.77,165.18,1
148,156.60,165.01,1
147,156.41,164.83,1
148,156.24,164.66,1
148,156.07,164.49,1
148,155.91,164.33,1
147,155.73,164.15,1
145,155.52,163.96,1
147,155.35,163.79,1
147,155.18,163.62,1
147,155.02,163.46,1
149,154.90,163.31,1
147,154.74,163.15,1
145,154.55,162.97,1
145,154.35,162.79,1
145,154.17,162.61,1
145,153.98,162.44,1
144,153.78,162.25,1
144,153.59,162.07,1
144,153.40,161.89,1
145,153.23,161.72,1
144,153.04,161.54,1
143,152.84,161.36,1
143,152.65,161.17,1
142,152.43,160.98,1
143,152.25,160.80,1
143,152.06,160.62,1
143,151.88,160.45,1
143,151.70,160.27,1
141,151.49,160.08,1
141,151.28,159.89,1
141,151.07,159.70,1
141,150.87,159.51,1
141,150.67,159.33,1
141,150.48,159.14,1
141,150.29,158.96,1
140,150.08,158.77,1
141,149.90,158.60,1
141,149.72,158.42,1
141,149.55,158.25,1
142,149.40,158.08,1
140,149.21,157.90,1
140,149.03,157.72,1
141,148.87,157.56,1
140,148.69,157.38,1
140,148.52,157.21,1
140,148.35,157.03,1
139,148.16,156.85,1
141,148.02,156.70,1
141,147.87,156.54,1
139,147.70,156.36,1
139,147.52,156.19,1
140,147.37,156.03,1
143,147.29,155.90,1
140,147.14,155.74,1
139,146.98,155.57,1
138,146.80,155.40,1
139,146.64,155.23,1
139,146.49,155.07,1
138,146.32,154.90,1
139,146.17,154.74,1
137,145.99,154.56,1
138,145.83,154.40,1
137,145.65,154.22,1
137,145.48,154.05,1
137,145.31,153.88,1
137,145.14,153.71,1
136,144.96,153.53,1
136,144.78,153.36,1
136,144.61,153.18,1
136,144.43,153.01,1
137,144.29,152.85,1
136,144.12,152.68,1
135,143.94,152.51,1
135,143.76,152.33,1
136,143.60,152.17,1
136,143.45,152.01,1
136,143.30,151.85,1
133,143.10,151.66,1
133,142.89,151.47,1
133,142.70,151.29,1
134,142.52,151.11,1
133,142.33,150.93,1
133,142.15,150.75,1
133,141.96,150.58,1
134,141.80,150.41,1
133,141.63,150.24,1
133,141.45,150.06,1
133,141.29,149.89,1
132,141.10,149.71,1
133,140.94,149.55,1
134,140.80,149.39,1
132,140.62,149.22,1
133,140.47,149.06,1
132,140.30,148.89,1
132,140.14,148.72,1
131,139.95,148.54,1
131,139.77,148.36,1
133,139.64,148.21,1
133,139.51,148.06,1
132,139.36,147.90,1
131,139.19,147.73,1
131,139.02,147.56,1
133,138.90,147.42,1
133,138.79,147.27,1
131,138.63,147.11,1
130,138.46,146.94,1
131,138.31,146.78,1
132,138.18,146.63,1
135,138.12,146.51,1
132,138.00,146.37,1
132,137.88,146.23,1
132,137.76,146.08,1
132,137.64,145.94,1
131,137.51,145.79,1
128,137.32,145.62,1
129,137.15,145.45,1
129,136.99,145.28,1
131,136.87,145.14,1
129,136.71,144.98,1
130,136.58,144.83,1
129,136.43,144.67,1
128,136.26,144.51,1
129,136.11,144.35,1
129,135.97,144.20,1
128,135.81,144.04,1
128,135.66,143.87,1
128,135.50,143.72,1
128,135.35,143.56,1
127,135.19,143.39,1
129,135.06,143.25,1
127,134.90,143.09,1
128,134.76,142.94,1
127,134.61,142.78,1
127,134.46,142.62,1
127,134.31,142.46,1
127,134.16,142.31,1
126,134.00,142.14,1
128,133.88,142.00,1
125,133.70,141.83,1
127,133.57,141.69,1
129,133.47,141.56,1
126,133.32,141.40,1
125,133.16,141.24,1
125,133.00,141.08,1
126,132.86,140.93,1
126,132.72,140.78,1
126,132.58,140.63,1
125,132.43,140.47,1
125,132.28,140.32,1
125,132.14,140.16,1
125,132.00,140.01,1
126,131.88,139.87,1
124,131.72,139.71,1
124,131.56,139.56,1
125,131.43,139.41,1
125,131.30,139.27,1
123,131.14,139.10,1
125,131.01,138.96,1
123,130.85,138.80,1
123,130.70,138.65,1
124,130.56,138.50,1
125,130.45,138.36,1
119,130.22,138.17,1
122,130.06,138.01,1
122,129.90,137.85,1
121,129.72,137.68,1
122,129.57,137.52,1
121,129.39,137.36,1
122,129.25,137.20,1
121,129.08,137.04,1
121,128.92,136.88,1
120,128.74,136.71,1
121,128.59,136.56,1
121,128.43,136.40,1
121,128.29,136.25,1
120,128.12,136.08,1
121,127.98,135.93,1
121,127.84,135.78,1
122,127.72,135.65,1
120,127.57,135.49,1
119,127.40,135.32,1
120,127.25,135.17,1
120,127.10,135.02,1
120,126.96,134.87,1
119,126.80,134.71,1
119,126.65,134.55,1
120,126.51,134.41,1
121,126.40,134.27,1
121,126.29,134.14,1
121,126.19,134.01,1
120,126.06,133.87,1
120,125.94,133.73,1
119,125.80,133.58,1
119,125.67,133.44,1
118,125.51,133.28,1
118,125.36,133.13,1
117,125.20,132.97,1
119,125.07,132.83,1
119,124.95,132.69,1
115,124.75,132.51,1
118,124.62,132.37,1
124,124.61,132.29,1
119,124.49,132.15,1
118,124.36,132.01,1
118,124.24,131.87,1
119,124.13,131.74,1
121,124.07,131.64,1
120,123.99,131.52,1
119,123.89,131.39,1
118,123.77,131.26,1
120,123.69,131.15,1
119,123.60,131.03,1
117,123.47,130.89,1
119,123.38,130.77,1
117,123.25,130.63,1
119,123.17,130.51,1
118,123.06,130.39,1
116,122.92,130.24,1
120,122.86,130.14,1
121,122.83,130.05,1
119,122.75,129.94,1
117,122.63,129.81,1
117,122.52,129.68,1
120,122.47,129.58,1
123,122.48,129.52,1
122,122.47,129.44,1
119,122.40,129.34,1
120,122.36,129.25,1
121,122.33,129.16,1
121,122.30,129.08,1
120,122.26,128.99,1
119,122.19,128.89,1
120,122.15,128.80,1
119,122.08,128.70,1
118,122.00,128.60,1
118,121.92,128.49,1
118,121.84,128.39,1
119,121.79,128.29,1
121,121.77,128.22,1
120,121.74,128.14,1
118,121.66,128.04,1
119,121.61,127.95,1
121,121.60,127.88,1
120,121.56,127.80,1
119,121.51,127.71,1
117,121.42,127.60,1
119,121.37,127.52,1
117,121.29,127.41,1
119,121.24,127.33,1
117,121.16,127.22,1
116,121.05,127.11,1
117,120.97,127.01,1
117,120.89,126.91,1
119,120.85,126.83,1
117,120.78,126.73,1
118,120.72,126.65,1
118,120.67,126.56,1
117,120.59,126.46,1
117,120.52,126.37,1
121,120.53,126.32,1
117,120.46,126.22,1
116,120.37,126.12,1
117,120.30,126.03,1
119,120.28,125.96,1
119,120.25,125.89,1
118,120.21,125.81,1
116,120.12,125.71,1
117,120.06,125.62,1
120,120.06,125.57,1
117,120.00,125.48,1
116,119.92,125.39,1
117,119.86,125.30,1
116,119.78,125.21,1
115,119.69,125.11,1
117,119.63,125.03,1
115,119.54,124.93,1
117,119.49,124.85,1
117,119.44,124.77,1
116,119.37,124.68,1
116,119.30,124.60,1
116,119.24,124.51,1
116,119.17,124.42,1
115,119.09,124.33,1
117,119.05,124.26,1
115,118.97,124.16,1
115,118.89,124.07,1
117,118.85,124.00,1
119,118.85,123.95,1
118,118.84,123.89,1
115,118.76,123.80,1
115,118.68,123.72,1
117,118.65,123.65,1
117,118.62,123.58,1
115,118.54,123.50,1
116,118.49,123.42,1
116,118.44,123.35,1
116,118.40,123.27,1
115,118.33,123.19,1
114,118.24,123.10,1
117,118.22,123.04,1
115,118.15,122.96,1
115,118.09,122.88,1
115,118.03,122.80,1
115,117.97,122.72,1
114,117.89,122.63,1
115,117.83,122.56,1
116,117.79,122.49,1
117,117.78,122.44,1
116,117.74,122.37,1
119,117.77,122.34,1
119,117.79,122.31,1
117,117.78,122.25,1
122,117.86,122.25,1
121,117.92,122.24,1
122,118.00,122.23,1
121,118.06,122.22,1
118,118.06,122.18,1
118,118.06,122.14,1
117,118.04,122.09,1
120,118.08,122.07,1
118,118.08,122.03,1
117,118.06,121.98,1
119,118.08,121.95,1
119,118.09,121.92,1
117,118.07,121.87,1
116,118.03,121.81,1
119,118.05,121.78,1
117,118.03,121.73,1
121,118.09,121.73,1
120,118.13,121.71,1
117,118.10,121.66,1
117,118.08,121.61,1
118,118.08,121.58,1
123,118.18,121.59,1
118,118.18,121.56,1
125,118.31,121.59,1
119,118.33,121.56,1
119,118.34,121.54,1
120,118.37,121.52,1
121,118.42,121.52,1
119,118.44,121.49,1
119,118.45,121.47,1
121,118.50,121.46,1
119,118.51,121.44,1
122,118.58,121.44,1
121,118.63,121.44,1
119,118.63,121.42,1
118,118.62,121.38,1
117,118.59,121.34,1
119,118.60,121.31,1
119,118.61,121.29,1
118,118.59,121.26,1
120,118.62,121.25,1
118,118.61,121.21,1
118,118.60,121.18,1
117,118.56,121.14,1
117,118.53,121.10,1
119,118.54,121.08,1
119,118.55,121.06,1
119,118.56,121.04,1
119,118.57,121.02,1
119,118.58,121.00,1
117,118.55,120.96,1
119,118.56,120.94,1
123,118.64,120.96,1
123,118.73,120.98,1
117,118.70,120.94,1
120,118.72,120.93,1
126,118.87,120.98,1
120,118.89,120.97,1
121,118.93,120.97,1
119,118.93,120.95,1
121,118.98,120.95,1
121,119.02,120.95,1
120,119.04,120.94,1
119,119.04,120.92,1
118,119.01,120.89,1
120,119.03,120.88,1
119,119.03,120.86,1
119,119.03,120.85,1
120,119.05,120.84,1
117,119.01,120.80,1
122,119.07,120.81,1
119,119.07,120.79,1
119,119.07,120.78,1
121,119.11,120.78,1
124,119.21,120.81,1
123,119.28,120.83,1
123,119.36,120.85,1
126,119.49,120.90,1
123,119.56,120.93,1
121,119.59,120.93,1
123,119.66,120.95,1
123,119.72,120.97,1
121,119.75,120.97,1
121,119.77,120.97,1
125,119.88,121.01,1
124,119.96,121.04,1
121,119.98,121.04,1
123,120.04,121.06,1
121,120.06,121.06,1
123,120.12,121.08,1
125,120.22,121.12,1
123,120.27,121.13,1
123,120.33,121.15,1
123,120.38,121.17,1
124,120.45,121.20,1
123,120.50,121.22,1
121,120.51,121.22,1
121,120.52,121.21,1
122,120.55,121.22,1
123,120.60,121.24,1
123,120.65,121.26,1
123,120.70,121.27,1
121,120.70,121.27,1
123,120.75,121.29,1
123,120.79,121.31,1
121,120.80,121.30,1
122,120.82,121.31,1
126,120.93,121.36,1
123,120.97,121.37,1
121,120.97,121.37,1
123,121.01,121.39,1
121,121.01,121.38,1
131,121.21,121.48,1
125,121.28,121.51,1
128,121.42,121.58,1
130,121.59,121.66,1
125,121.66,121.70,1
128,121.78,121.76,1
127,121.89,121.81,1
125,121.95,121.84,1
125,122.01,121.87,1
126,122.09,121.92,1
125,122.15,121.95,1
123,122.17,121.96,1
125,122.22,121.99,1
128,122.34,122.05,1
127,122.43,122.10,1
127,122.52,122.15,1
128,122.63,122.21,1
128,122.74,122.26,1
125,122.79,122.29,1
125,122.83,122.32,1
126,122.89,122.35,1
127,122.98,122.40,1
124,123.00,122.42,1
125,123.04,122.44,1
126,123.10,122.48,1
124,123.11,122.49,1
125,123.15,122.52,1
124,123.17,122.53,1
125,123.21,122.56,1
125,123.24,122.58,1
125,123.28,122.61,1
127,123.35,122.65,1
124,123.36,122.66,1
127,123.44,122.71,1
125,123.47,122.73,1
125,123.50,122.75,1
123,123.49,122.76,1
124,123.50,122.77,1
124,123.51,122.78,1
123,123.50,122.78,1
125,123.53,122.80,1
129,123.64,122.87,1
129,123.75,122.93,1
125,123.77,122.95,1
125,123.79,122.97,1
125,123.82,122.99,1
125,123.84,123.01,1
127,123.91,123.05,1
126,123.95,123.08,1
123,123.93,123.08,1
131,124.07,123.16,1
128,124.15,123.21,1
133,124.33,123.30,1
128,124.40,123.35,1
127,124.45,123.39,1
132,124.60,123.47,1
131,124.73,123.55,1
129,124.82,123.60,1
127,124.86,123.64,1
127,124.90,123.67,1
126,124.92,123.69,1
137,125.17,123.83,1
131,125.28,123.90,1
129,125.36,123.95,1
131,125.47,124.02,1
129,125.54,124.07,1
131,125.65,124.14,1
128,125.70,124.18,1
128,125.74,124.22,1
129,125.81,124.26,1
131,125.91,124.33,1
136,126.11,124.45,1
129,126.17,124.49,1
133,126.31,124.58,1
129,126.36,124.62,1
135,126.53,124.73,1
132,126.64,124.80,1
129,126.69,124.84,1
136,126.88,124.95,1
129,126.92,124.99,1
131,127.00,125.05,1
133,127.12,125.13,1
131,127.20,125.19,1
133,127.31,125.27,1
131,127.39,125.33,1
135,127.54,125.42,1
137,127.73,125.54,1
132,127.82,125.60,1
131,127.88,125.66,1
131,127.94,125.71,1
134,128.06,125.79,1
140,128.30,125.94,1
143,128.60,126.11,1
135,128.72,126.20,1
142,128.99,126.35,1
142,129.25,126.51,1
139,129.44,126.64,1
137,129.60,126.74,1
136,129.72,126.83,1
137,129.87,126.93,1
141,130.09,127.07,1
138,130.25,127.18,1
136,130.36,127.27,1
137,130.50,127.37,1
136,130.61,127.46,1
139,130.78,127.57,1
144,131.04,127.73,1
150,131.42,127.96,1
147,131.73,128.15,1
141,131.92,128.28,1
143,132.14,128.42,1
147,132.43,128.61,1
146,132.71,128.78,1
147,132.99,128.97,1
143,133.19,129.11,1
141,133.35,129.22,1
145,133.58,129.38,1
147,133.85,129.56,1
147,134.11,129.73,1
145,134.33,129.89,1
146,134.56,130.05,1
141,134.69,130.16,1
143,134.86,130.28,1
143,135.02,130.41,1
145,135.22,130.56,1
149,135.50,130.74,1
148,135.75,130.91,1
147,135.97,131.08,1
153,136.31,131.30,1
156,136.71,131.54,1
147,136.91,131.70,1
151,137.19,131.89,1
150,137.45,132.07,1
156,137.82,132.31,1
156,138.18,132.55,1
155,138.52,132.77,1
159,138.93,133.03,1
155,139.25,133.25,1
155,139.57,133.47,1
164,140.06,133.78,1
159,140.43,134.03,1
156,140.75,134.25,1
157,141.07,134.48,1
155,141.35,134.68,1
159,141.70,134.92,1
163,142.13,135.20,1
159,142.47,135.44,1
162,142.86,135.71,1
157,143.14,135.92,1
159,143.46,136.15,1
173,144.05,136.52,1
171,144.59,136.87,1
167,145.03,137.17,1
163,145.39,137.43,1
165,145.79,137.70,1
166,146.19,137.98,1
169,146.65,138.29,1
173,147.17,138.64,1
163,147.49,138.88,1
169,147.92,139.19,1
164,148.24,139.43,1
168,148.64,139.72,1
168,149.02,140.00,1
168,149.40,140.28,1
167,149.76,140.55,1
165,150.06,140.79,1
164,150.34,141.03,1
165,150.63,141.27,1
175,151.12,141.60,1
182,151.74,142.01,1
168,152.06,142.27,1
172,152.46,142.56,1
169,152.79,142.83,1
169,153.12,143.09,1
172,153.49,143.38,1
167,153.76,143.62,1
179,154.27,143.97,1
185,154.88,144.38,1
184,155.47,144.78,1
179,155.94,145.12,1
173,156.28,145.40,1
173,156.61,145.67,1
180,157.08,146.02,1
177,157.48,146.33,1
175,157.83,146.61,1
175,158.17,146.90,1
178,158.57,147.21,1
179,158.98,147.53,1
177,159.34,147.82,1
180,159.75,148.14,1
177,160.10,148.43,1
182,160.53,148.77,1
188,161.08,149.16,1
185,161.56,149.52,1
185,162.03,149.87,1
184,162.47,150.21,1
191,163.04,150.62,1
188,163.54,151.00,1
189,164.05,151.38,1
183,164.43,151.69,1
191,164.96,152.08,1
191,165.48,152.47,1
193,166.03,152.88,1
192,166.55,153.27,1
187,166.96,153.61,1
196,167.54,154.03,1
204,168.27,154.53,1
189,168.68,154.88,1
189,169.09,155.22,1
193,169.57,155.59,1
188,169.94,155.92,1
187,170.28,156.23,1
193,170.73,156.60,1
189,171.10,156.92,1
189,171.46,157.24,1
199,172.01,157.66,1
198,172.53,158.06,1
191,172.90,158.39,1
196,173.36,158.77,1
203,173.95,159.21,1
205,174.57,159.67,1
199,175.06,160.06,1
197,175.50,160.43,1
205,176.09,160.88,1
205,176.67,161.32,1
201,177.15,161.72,1
199,177.59,162.09,1
201,178.06,162.48,1
196,178.42,162.81,1
197,178.79,163.15,1
197,179.15,163.49,1
196,179.49,163.82,1
199,179.88,164.17,1
201,180.30,164.54,1
196,180.62,164.85,1
203,181.07,165.23,1
198,181.40,165.56,1
197,181.72,165.88,1
196,182.00,166.18,1
197,182.30,166.49,1
212,182.90,166.94,1
213,183.50,167.40,1
204,183.91,167.77,1
203,184.29,168.12,1
216,184.92,168.60,1
212,185.47,169.03,1
210,185.96,169.44,1
205,186.34,169.80,1
213,186.87,170.23,1
214,187.41,170.67,1
210,187.86,171.06,1
209,188.29,171.44,1
219,188.90,171.92,1
213,189.38,172.33,1
211,189.82,172.71,1
207,190.16,173.06,1
211,190.58,173.44,1
217,191.10,173.87,1
220,191.68,174.33,1
221,192.27,174.80,1
211,192.64,175.16,1
217,193.13,175.58,1
221,193.69,176.03,1
216,194.13,176.43,1
221,194.67,176.88,1
219,195.16,177.30,1
214,195.54,177.67,1
219,196.00,178.08,1
217,196.42,178.47,1
217,196.84,178.86,1
221,197.32,179.28,1
219,197.75,179.67,1
216,198.12,180.04,1
234,198.84,180.58,1
235,199.56,181.12,1
225,200.07,181.56,1
221,200.49,181.95,1
238,201.24,182.51,1
241,202.03,183.10,1
243,202.85,183.70,1
242,203.63,184.28,1
230,204.16,184.74,1
232,204.72,185.21,1
235,205.32,185.71,1
233,205.88,186.18,1
236,206.48,186.68,1
229,206.93,187.10,1
228,207.35,187.51,1
227,207.74,187.91,1
231,208.21,188.34,1
227,208.59,188.73,1
229,208.99,189.13,1
226,209.33,189.50,1
231,209.77,189.91,1
233,210.23,190.34,1
233,210.69,190.77,1
231,211.09,191.17,1
228,211.43,191.54,1
231,211.82,191.93,1
230,212.19,192.31,1
231,212.56,192.70,1
231,212.93,193.08,1
231,213.29,193.46,1
229,213.61,193.82,1
229,213.91,194.17,1
229,214.22,194.52,1
231,214.55,194.88,1
231,214.88,195.25,1
235,215.28,195.64,1
234,215.66,196.03,1
228,215.90,196.35,1
227,216.13,196.65,1
228,216.36,196.97,1
230,216.64,197.30,1
229,216.88,197.61,1
229,217.13,197.93,1
229,217.36,198.24,1
227,217.56,198.53,1
228,217.77,198.82,1
229,217.99,199.12,1
230,218.23,199.43,1
229,218.45,199.73,1
234,218.76,200.07,1
232,219.02,200.39,1
228,219.20,200.66,1
236,219.54,201.02,1
241,219.97,201.42,1
238,220.33,201.78,1
233,220.58,202.10,1
230,220.77,202.38,1
230,220.95,202.65,1
233,221.19,202.95,1
230,221.37,203.23,1
231,221.56,203.50,1
228,221.69,203.75,1
233,221.92,204.04,1
227,222.02,204.27,1
228,222.14,204.51,1
227,222.24,204.73,1
227,222.33,204.96,1
229,222.47,205.20,1
230,222.62,205.44,1
228,222.72,205.67,1
226,222.79,205.87,1
226,222.85,206.07,1
229,222.98,206.30,1
225,223.02,206.49,1
225,223.06,206.68,1
225,223.10,206.86,1
225,223.13,207.04,1
225,223.17,207.22,1
226,223.23,207.41,1
224,223.24,207.57,1
223,223.24,207.73,1
225,223.27,207.90,1
223,223.27,208.05,1
223,223.26,208.20,1
223,223.26,208.35,1
222,223.23,208.49,1
221,223.19,208.61,1
222,223.16,208.74,1
220,223.10,208.86,1
220,223.04,208.97,1
220,222.98,209.08,1
220,222.92,209.19,1
220,222.86,209.30,1
219,222.78,209.39,1
220,222.73,209.50,1
219,222.65,209.59,1
220,222.60,209.70,1
218,222.51,209.78,1
219,222.44,209.87,1
217,222.33,209.94,1
217,222.22,210.02,1
217,222.12,210.08,1
216,222.00,210.14,1
216,221.88,210.20,1
215,221.74,210.25,1
216,221.62,210.31,1
214,221.47,210.34,1
214,221.32,210.38,1
215,221.19,210.43,1
216,221.09,210.48,1
214,220.95,210.52,1
213,220.79,210.54,1
213,220.63,210.57,1
214,220.50,210.60,1
213,220.35,210.63,1
213,220.20,210.65,1
213,220.06,210.67,1
212,219.90,210.69,1
213,219.76,210.71,1
212,219.61,210.72,1
210,219.41,210.72,1
213,219.29,210.74,1
211,219.12,210.74,1
210,218.94,210.73,1
212,218.80,210.75,1
210,218.62,210.74,1
209,218.43,210.72,1
209,218.24,210.70,1
211,218.10,210.71,1
210,217.93,210.70,1
209,217.76,210.68,1
208,217.56,210.66,1
208,217.37,210.63,1
209,217.20,210.61,1
207,217.00,210.58,1
208,216.82,210.55,1
208,216.64,210.53,1
210,216.51,210.52,1
209,216.36,210.51,1
207,216.17,210.47,1
206,215.97,210.43,1
207,215.79,210.39,1
207,215.61,210.36,1
207,215.44,210.32,1
205,215.23,210.27,1
205,215.03,210.22,1
207,214.87,210.19,1
207,214.71,210.15,1
205,214.52,210.10,1
205,214.33,210.05,1
204,214.12,209.99,1
205,213.94,209.94,1
205,213.76,209.89,1
203,213.54,209.82,1
204,213.35,209.76,1
203,213.14,209.70,1
203,212.94,209.63,1
203,212.74,209.56,1
202,212.53,209.49,1
201,212.30,209.40,1
201,212.07,209.32,1
201,211.85,209.24,1
201,211.63,209.15,1
199,211.38,209.05,1
201,211.17,208.97,1
200,210.95,208.88,1
201,210.75,208.80,1
200,210.54,208.72,1
200,210.32,208.63,1
199,210.10,208.53,1
199,209.88,208.44,1
199,209.66,208.34,1
198,209.43,208.24,1
198,209.20,208.14,1
198,208.97,208.03,1
198,208.75,207.93,1
199,208.56,207.85,1
197,208.33,207.74,1
196,208.08,207.62,1
197,207.86,207.51,1
197,207.64,207.41,1
196,207.41,207.29,2
195,207.16,207.17,2
195,206.92,207.05,2
196,206.70,206.94,2
197,206.51,206.84,2
195,206.28,206.72,2
193,206.01,206.58,2
194,205.77,206.46,2
194,205.53,206.33,2
194,205.30,206.21,2
193,205.06,206.08,2
193,204.82,205.95,2
193,204.58,205.82,2
197,204.43,205.73,2
192,204.18,205.59,2
193,203.96,205.47,2
192,203.72,205.33,2
191,203.46,205.19,2
191,203.21,205.05,2
190,202.95,204.90,2
190,202.69,204.75,2
190,202.44,204.60,2
189,202.17,204.44,2
189,201.90,204.29,2
190,201.67,204.15,2
188,201.39,203.98,2
189,201.15,203.83,2
189,200.90,203.69,2
189,200.66,203.54,2
184,200.33,203.34,2
189,200.10,203.20,2
188,199.86,203.05,2
188,199.63,202.90,2
185,199.33,202.72,2
187,199.09,202.56,2
186,198.82,202.40,2
187,198.59,202.24,2
186,198.34,202.08,2
185,198.07,201.91,2
185,197.81,201.74,2
185,197.55,201.57,2
187,197.34,201.43,2
184,197.07,201.25,2
184,196.81,201.08,2
184,196.56,200.91,2
184,196.30,200.74,2
184,196.06,200.57,2
183,195.80,200.40,2
183,195.54,200.22,2
182,195.27,200.04,2
183,195.03,199.87,2
183,194.79,199.70,2
181,194.51,199.51,2
182,194.26,199.34,2
181,193.99,199.16,2
181,193.73,198.97,2
181,193.48,198.80,2
180,193.21,198.61,2
181,192.97,198.43,2
180,192.71,198.25,2
182,192.49,198.08,2
179,192.22,197.89,2
180,191.98,197.71,2
178,191.70,197.52,2
179,191.44,197.33,2
179,191.20,197.15,2
178,190.93,196.96,2
177,190.65,196.76,2
180,190.44,196.59,2
178,190.19,196.40,2
177,189.93,196.21,2
177,189.67,196.02,2
177,189.42,195.83,2
177,189.17,195.64,2
177,188.92,195.45,2
176,188.67,195.26,2
175,188.39,195.06,2
175,188.12,194.86,2
175,187.86,194.66,2
177,187.64,194.48,2
175,187.39,194.29,2
175,187.14,194.09,2
174,186.88,193.89,2
175,186.64,193.70,2
173,186.37,193.50,2
174,186.12,193.30,2
173,185.86,193.10,2
173,185.60,192.90,2
171,185.31,192.68,2
171,185.02,192.46,2
173,184.78,192.27,2
173,184.55,192.07,2
171,184.28,191.86,2
171,184.01,191.65,2
169,183.71,191.43,2
170,183.44,191.21,2
170,183.17,191.00,2
171,182.93,190.80,2
171,182.69,190.60,2
169,182.41,190.39,2
170,182.17,190.18,2
169,181.90,189.97,2
169,181.64,189.76,2
168,181.37,189.54,2
168,181.10,189.33,2
168,180.84,189.12,2
167,180.56,188.89,2
167,180.29,188.68,2
167,180.03,188.46,2
167,179.77,188.24,2
168,179.53,188.04,2
165,179.24,187.81,2
166,178.98,187.59,2
166,178.72,187.38,2
166,178.46,187.16,2
166,178.21,186.95,2
166,177.97,186.74,2
167,177.75,186.55,2
165,177.49,186.33,2
165,177.24,186.12,2
165,177.00,185.91,2
166,176.78,185.71,2
165,176.54,185.50,2
163,176.27,185.27,2
165,176.05,185.07,2
166,175.85,184.88,2
165,175.63,184.68,2
162,175.36,184.46,2
163,175.11,184.24,2
163,174.87,184.03,2
164,174.65,183.83,2
163,174.42,183.62,2
163,174.19,183.41,2
163,173.97,183.21,2
164,173.77,183.02,2
161,173.51,182.80,2
161,173.26,182.58,2
162,173.04,182.37,2
163,172.83,182.18,2
164,172.66,182.00,2
163,172.46,181.81,2
161,172.24,181.60,2
162,172.03,181.40,2
165,171.89,181.24,2
165,171.75,181.08,2
164,171.60,180.91,2
161,171.39,180.71,2
163,171.22,180.53,2
161,171.01,180.34,2
162,170.83,180.15,2
161,170.64,179.96,2
161,170.44,179.77,2
160,170.23,179.57,2
161,170.05,179.39,2
159,169.83,179.18,2
159,169.61,178.98,2
159,169.40,178.78,2
161,169.23,178.60,2
161,169.07,178.43,2
159,168.87,178.23,2
159,168.67,178.04,2
159,168.48,177.85,2
167,168.45,177.74,2
161,168.30,177.57,2
160,168.13,177.40,2
161,167.99,177.24,2
162,167.87,177.08,2
161,167.73,176.92,2
159,167.56,176.74,2
159,167.39,176.57,2
160,167.24,176.40,2
159,167.07,176.23,2
160,166.93,176.06,2
158,166.75,175.88,2
158,166.58,175.70,2
159,166.43,175.54,2
158,166.26,175.36,2
160,166.13,175.21,2
157,165.95,175.03,2
157,165.77,174.85,2
156,165.58,174.66,2
157,165.40,174.48,2
156,165.22,174.30,2
157,165.05,174.12,2
156,164.87,173.94,2
157,164.71,173.77,2
157,164.56,173.60,2
156,164.39,173.43,2
157,164.24,173.26,2
157,164.10,173.10,2
157,163.95,172.94,2
155,163.77,172.76,2
155,163.60,172.58,2
155,163.43,172.41,2
155,163.26,172.23,2
157,163.13,172.08,2
157,163.01,171.93,2
155,162.85,171.76,2
155,162.69,171.59,2
153,162.50,171.41,2
155,162.35,171.24,2
154,162.18,171.07,2
152,161.98,170.88,2
153,161.80,170.70,2
153,161.62,170.52,2
153,161.45,170.35,2
152,161.26,170.17,2
153,161.10,169.99,2
151,160.89,169.80,2
152,160.72,169.63,2
153,160.56,169.46,2
151,160.37,169.28,2
151,160.18,169.09,2
152,160.02,168.92,2
151,159.84,168.74,2
152,159.68,168.58,2
151,159.51,168.40,2
151,159.34,168.23,2
151,159.17,168.05,2
152,159.03,167.89,2
149,158.83,167.70,2
149,158.63,167.52,2
151,158.48,167.35,2
151,158.33,167.19,2
151,158.18,167.03,2
149,158.00,166.85,2
149,157.82,166.67,2
149,157.64,166.49,2
149,157.47,166.32,2
147,157.26,166.12,2
148,157.08,165.94,2
148,156.89,165.76,2
148,156.72,165.58,2
148,156.54,165.41,2
149,156.39,165.24,2
148,156.22,165.07,2
149,156.08,164.91,2
148,155.92,164.74,2
147,155.74,164.56,2
148,155.58,164.40,2
147,155.41,164.23,2
149,155.28,164.07,2
148,155.14,163.91,2
145,154.94,163.72,2
145,154.74,163.54,2
147,154.58,163.37,2
145,154.39,163.19,2
145,154.20,163.00,2
147,154.06,162.84,2
146,153.90,162.68,2
145,153.72,162.50,2
146,153.57,162.33,2
146,153.41,162.17,2
147,153.29,162.02,2
145,153.12,161.85,2
144,152.94,161.67,2
143,152.74,161.48,2
144,152.56,161.31,2
143,152.37,161.13,2
143,152.19,160.94,2
144,152.02,160.78,2
143,151.84,160.60,2
145,151.70,160.44,2
143,151.53,160.27,2
143,151.36,160.09,2
143,151.19,159.92,2
143,151.03,159.75,2
143,150.87,159.59,2
142,150.69,159.41,2
143,150.54,159.25,2
141,150.35,159.06,2
139,150.12,158.86,2
139,149.90,158.67,2
142,149.74,158.50,2
141,149.56,158.32,2
141,149.39,158.15,2
140,149.20,157.97,2
141,149.04,157.80,2
143,148.92,157.65,2
143,148.80,157.50,2
141,148.65,157.34,2
141,148.49,157.18,2
141,148.34,157.01,2
143,148.24,156.87,2
143,148.13,156.74,2
144,148.05,156.61,2
141,147.91,156.45,2
141,147.77,156.30,2
141,147.63,156.14,2
140,147.48,155.98,2
142,147.37,155.84,2
141,147.24,155.69,2
140,147.10,155.54,2
139,146.94,155.37,2
140,146.80,155.22,2
139,146.64,155.06,2
140,146.51,154.91,2
138,146.34,154.74,2
138,146.17,154.57,2
137,145.99,154.39,2
139,145.85,154.24,2
137,145.67,154.07,2
137,145.50,153.90,2
137,145.33,153.73,2
137,145.16,153.56,2
137,145.00,153.40,2
138,144.86,153.24,2
139,144.74,153.10,2
137,144.59,152.94,2
137,144.44,152.78,2
136,144.27,152.61,2
142,144.22,152.50,2
139,144.12,152.37,2
137,143.97,152.22,2
136,143.82,152.05,2
136,143.66,151.89,2
137,143.53,151.74,2
140,143.46,151.63,2
136,143.31,151.47,2
137,143.18,151.33,2
135,143.02,151.16,2
136,142.88,151.01,2
138,142.78,150.88,2
135,142.62,150.72,2
136,142.49,150.57,2
139,142.42,150.46,2
137,142.31,150.32,2
136,142.19,150.18,2
135,142.04,150.03,2
137,141.94,149.90,2
141,141.92,149.81,2
142,141.92,149.73,2
140,141.89,149.63,2
136,141.77,149.50,2
138,141.69,149.38,2
137,141.60,149.26,2
137,141.51,149.14,2
137,141.42,149.02,2
137,141.33,148.90,2
137,141.24,148.78,2
135,141.12,148.64,2
135,140.99,148.50,2
135,140.87,148.37,2
137,140.80,148.25,2
136,140.70,148.13,2
135,140.59,148.00,2
135,140.48,147.87,2
135,140.37,147.74,2
135,140.26,147.61,2
136,140.17,147.50,2
134,140.05,147.36,2
137,139.99,147.26,2
137,139.93,147.16,2
136,139.85,147.04,2
135,139.75,146.92,2
137,139.70,146.83,2
137,139.64,146.73,2
139,139.63,146.65,2
137,139.58,146.55,2
135,139.49,146.44,2
137,139.44,146.34,2
138,139.41,146.26,2
139,139.40,146.19,2
136,139.33,146.09,2
137,139.29,145.99,2
135,139.20,145.88,2
133,139.08,145.76,2
135,139.00,145.65,2
135,138.92,145.54,2
133,138.80,145.42,2
135,138.72,145.31,2
135,138.65,145.21,2
135,138.57,145.11,2
134,138.48,145.00,2
135,138.41,144.90,2
135,138.34,144.80,2
133,138.24,144.68,2
136,138.19,144.59,2
135,138.13,144.50,2
133,138.03,144.38,2
134,137.95,144.28,2
135,137.89,144.18,2
135,137.83,144.09,2
133,137.73,143.98,2
133,137.64,143.87,2
133,137.55,143.76,2
131,137.41,143.64,2
135,137.37,143.55,2
133,137.28,143.44,2
132,137.17,143.33,2
132,137.07,143.22,2
131,136.95,143.09,2
135,136.91,143.01,2
134,136.85,142.92,2
134,136.79,142.83,2
131,136.68,142.72,2
132,136.58,142.61,2
131,136.47,142.49,2
133,136.40,142.40,2
133,136.34,142.30,2
132,136.25,142.20,2
132,136.16,142.10,2
131,136.06,141.99,2
131,135.96,141.88,2
132,135.88,141.78,2
133,135.82,141.69,2
133,135.77,141.60,2
131,135.67,141.50,2
134,135.64,141.42,2
137,135.66,141.38,2
135,135.65,141.31,2
132,135.58,141.22,2
131,135.49,141.12,2
137,135.52,141.08,2
138,135.57,141.05,2
135,135.56,140.99,2
133,135.50,140.91,2
134,135.47,140.84,2
133,135.42,140.76,2
132,135.36,140.67,2
133,135.31,140.60,2
134,135.28,140.53,2
132,135.22,140.44,2
133,135.17,140.37,2
132,135.11,140.29,2
131,135.03,140.19,2
132,134.97,140.11,2
131,134.89,140.02,2
131,134.81,139.93,2
131,134.73,139.84,2
132,134.68,139.76,2
131,134.61,139.67,2
133,134.57,139.61,2
132,134.52,139.53,2
130,134.43,139.44,2
132,134.38,139.36,2
132,134.33,139.29,2
133,134.31,139.23,2
133,134.28,139.16,2
133,134.26,139.10,2
131,134.19,139.02,2
131,134.13,138.94,2
131,134.06,138.86,2
129,133.96,138.76,2
130,133.88,138.67,2
129,133.79,138.58,2
133,133.77,138.52,2
137,133.84,138.51,2
131,133.78,138.43,2
132,133.74,138.37,2
133,133.73,138.31,2
131,133.67,138.24,2
130,133.60,138.16,2
131,133.55,138.09,2
131,133.50,138.02,2
129,133.41,137.93,2
133,133.40,137.88,2
133,133.39,137.83,2
133,133.38,137.78,2
130,133.32,137.70,2
136,133.37,137.68,2
131,133.32,137.62,2
133,133.32,137.57,2
131,133.27,137.51,2
129,133.18,137.42,2
133,133.18,137.38,2
137,133.26,137.37,2
135,133.29,137.35,2
133,133.29,137.31,2
133,133.28,137.26,2
135,133.31,137.24,2
133,133.31,137.20,2
133,133.30,137.16,2
132,133.28,137.10,2
133,133.27,137.06,2
132,133.25,137.01,2
130,133.18,136.94,2
133,133.18,136.90,2
133,133.17,136.86,2
133,133.17,136.83,2
132,133.15,136.78,2
134,133.16,136.75,2
133,133.16,136.71,2
135,133.20,136.69,2
136,133.25,136.69,2
135,133.29,136.67,2
133,133.28,136.63,2
133,133.28,136.60,2
132,133.25,136.55,2
134,133.27,136.53,2
132,133.24,136.48,2
133,133.24,136.45,2
135,133.27,136.43,2
132,133.25,136.39,2
133,133.24,136.35,2
131,133.20,136.30,2
133,133.19,136.27,2
131,133.15,136.21,2
133,133.15,136.18,2
132,133.12,136.14,2
134,133.14,136.12,2
131,133.10,136.07,2
137,133.18,136.08,2
133,133.17,136.05,2
135,133.21,136.04,2
132,133.18,136.00,2
138,133.28,136.02,2
136,133.33,136.02,2
133,133.33,135.99,2
133,133.32,135.96,2
133,133.32,135.93,2
133,133.31,135.90,2
135,133.34,135.89,2
133,133.34,135.86,2
133,133.33,135.83,2
133,133.32,135.80,2
131,133.28,135.75,2
133,133.27,135.73,2
133,133.27,135.70,2
133,133.26,135.67,2
132,133.23,135.64,2
131,133.19,135.59,2
131,133.15,135.54,2
133,133.14,135.52,2
131,133.10,135.47,2
131,133.06,135.43,2
137,133.14,135.44,2
134,133.15,135.43,2
134,133.17,135.41,2
132,133.15,135.38,2
134,133.16,135.37,2
132,133.14,135.33,2
135,133.18,135.33,2
135,133.22,135.33,2
134,133.23,135.31,2
132,133.21,135.28,2
135,133.24,135.28,2
133,133.24,135.25,2
132,133.21,135.22,2
133,133.21,135.20,2
133,133.20,135.18,2
133,133.20,135.16,2
131,133.16,135.11,2
132,133.13,135.08,2
131,133.09,135.04,2
132,133.07,135.01,2
132,133.05,134.98,2
133,133.05,134.96,2
133,133.05,134.94,2
137,133.12,134.96,2
131,133.08,134.92,2
133,133.08,134.90,2
133,133.08,134.89,2
131,133.04,134.85,2
133,133.04,134.83,2
132,133.02,134.80,2
131,132.98,134.76,2
131,132.94,134.72,2
131,132.90,134.69,2
131,132.86,134.65,2
133,132.86,134.63,2
133,132.86,134.62,2
134,132.89,134.61,2
131,132.85,134.57,2
132,132.83,134.55,2
133,132.84,134.53,2
133,132.84,134.52,2
133,132.84,134.50,2
138,132.95,134.54,2
133,132.95,134.52,2
129,132.87,134.47,2
132,132.85,134.44,2
133,132.85,134.43,2
137,132.94,134.45,2
133,132.94,134.44,2
132,132.92,134.42,2
131,132.88,134.38,2
133,132.88,134.37,2
132,132.87,134.34,2
131,132.83,134.31,2
131,132.79,134.28,2
137,132.88,134.30,2
133,132.88,134.29,2
133,132.88,134.28,2
135,132.92,134.29,2
133,132.92,134.27,2
131,132.89,134.24,2
134,132.91,134.24,2
135,132.95,134.25,2
135,132.99,134.25,2
133,132.99,134.24,2
133,132.99,134.23,2
133,132.99,134.22,2
137,133.07,134.24,2
137,133.15,134.27,2
139,133.27,134.32,2
143,133.46,134.41,2
136,133.51,134.42,2
143,133.70,134.51,2
136,133.75,134.52,2
139,133.85,134.57,2
139,133.96,134.61,2
137,134.02,134.63,2
139,134.12,134.68,2
143,134.29,134.76,2
138,134.37,134.79,2
141,134.50,134.86,2
141,134.63,134.92,2
143,134.80,135.00,2
143,134.96,135.08,3
140,135.06,135.13,3
143,135.22,135.21,4
141,135.34,135.26,4
139,135.41,135.30,5
142,135.54,135.37,5
143,135.69,135.44,5
141,135.80,135.50,5
138,135.84,135.53,5
143,135.99,135.60,5
140,136.07,135.64,5
139,136.12,135.68,5
139,136.18,135.71,5
140,136.26,135.75,5
143,136.39,135.83,5
141,136.49,135.88,5
145,136.66,135.97,5
141,136.74,136.02,5
140,136.81,136.06,5
143,136.93,136.13,5
144,137.07,136.21,5
141,137.15,136.26,5
143,137.27,136.32,5
141,137.34,136.37,5
146,137.52,136.47,5
141,137.59,136.51,5
141,137.65,136.56,5
142,137.74,136.61,5
141,137.81,136.65,5
140,137.85,136.69,5
141,137.91,136.73,5
139,137.93,136.75,5
141,138.00,136.80,5
139,138.02,136.82,5
145,138.16,136.90,5
139,138.17,136.92,5
141,138.23,136.96,5
140,138.26,136.99,5
141,138.32,137.03,5
141,138.37,137.07,5
151,138.63,137.21,5
147,138.79,137.31,5
145,138.92,137.39,5
143,139.00,137.44,5
144,139.10,137.51,5
144,139.20,137.57,5
145,139.31,137.65,5
143,139.39,137.70,5
142,139.44,137.74,5
143,139.51,137.80,5
142,139.56,137.84,5
144,139.65,137.90,5
141,139.68,137.93,5
143,139.74,137.98,5
143,139.81,138.03,5
143,139.87,138.08,5
141,139.89,138.11,5
142,139.94,138.15,5
145,140.04,138.22,5
143,140.10,138.27,5
141,140.11,138.29,5
143,140.17,138.34,5
141,140.19,138.37,5
141,140.21,138.39,5
141,140.22,138.42,5
141,140.24,138.44,5
141,140.25,138.47,5
142,140.29,138.51,5
141,140.30,138.53,5
141,140.32,138.56,5
148,140.47,138.65,5
150,140.66,138.76,5
152,140.89,138.90,5
144,140.95,138.95,5
145,141.03,139.01,5
147,141.15,139.09,5
152,141.37,139.22,5
153,141.60,139.35,5
148,141.73,139.44,5
153,141.95,139.58,5
154,142.19,139.72,5
152,142.39,139.84,5
151,142.56,139.95,5
148,142.67,140.04,5
151,142.84,140.14,5
156,143.10,140.30,5
149,143.22,140.39,5
148,143.31,140.47,5
151,143.47,140.57,5
149,143.58,140.66,5
149,143.69,140.74,5
151,143.83,140.84,5
151,143.98,140.94,5
152,144.14,141.05,5
153,144.31,141.17,5
153,144.49,141.29,5
151,144.62,141.39,5
158,144.89,141.56,5
159,145.17,141.73,5
159,145.44,141.90,5
153,145.60,142.01,5
159,145.86,142.18,5
158,146.11,142.34,5
159,146.36,142.51,5
157,146.58,142.65,5
154,146.73,142.77,5
155,146.89,142.89,5
154,147.03,143.00,5
153,147.15,143.10,5
157,147.35,143.24,5
155,147.50,143.36,5
157,147.69,143.49,5
161,147.96,143.67,5
156,148.12,143.79,5
158,148.32,143.93,5
168,148.71,144.17,5
161,148.96,144.34,5
161,149.20,144.51,5
164,149.49,144.70,5
165,149.80,144.91,5
158,149.97,145.04,5
161,150.19,145.20,5
160,150.38,145.35,5
164,150.66,145.53,5
161,150.86,145.69,5
171,151.27,145.94,5
165,151.54,146.13,5
165,151.81,146.32,5
161,151.99,146.47,5
160,152.15,146.60,5
159,152.29,146.73,5
163,152.51,146.89,5
161,152.68,147.03,5
165,152.92,147.21,5
164,153.14,147.38,5
165,153.38,147.55,5
163,153.57,147.71,5
164,153.78,147.87,5
162,153.95,148.01,5
161,154.09,148.14,5
164,154.29,148.30,5
165,154.50,148.47,5
163,154.67,148.61,5
165,154.88,148.78,5
161,155.00,148.90,5
163,155.16,149.04,5
169,155.44,149.24,5
175,155.83,149.50,5
169,156.09,149.69,5
167,156.31,149.86,5
166,156.50,150.03,5
169,156.75,150.22,5
169,157.00,150.40,5
164,157.14,150.54,5
169,157.37,150.72,5
165,157.53,150.87,5
171,157.80,151.07,5
173,158.10,151.29,5
165,158.24,151.42,5
173,158.53,151.64,5
171,158.78,151.83,5
181,159.23,152.13,5
175,159.54,152.35,5
171,159.77,152.54,5
169,159.96,152.71,5
170,160.16,152.88,5
175,160.45,153.10,5
171,160.67,153.28,5
175,160.95,153.50,5
172,161.17,153.68,5
170,161.35,153.84,5
169,161.50,154.00,5
169,161.65,154.15,5
175,161.92,154.35,5
188,162.44,154.69,5
179,162.77,154.93,5
176,163.04,155.14,5
179,163.36,155.38,5
180,163.69,155.63,5
189,164.20,155.96,5
179,164.49,156.19,5
177,164.74,156.40,5
179,165.03,156.63,5
184,165.41,156.90,5
188,165.86,157.21,5
185,166.24,157.49,5
183,166.58,157.75,5
180,166.84,157.97,5
179,167.09,158.18,5
185,167.45,158.45,5
181,167.72,158.67,5
182,168.00,158.91,5
179,168.22,159.11,5
180,168.46,159.32,5
179,168.67,159.51,5
179,168.88,159.71,5
177,169.04,159.88,5
180,169.26,160.08,5
187,169.61,160.35,5
181,169.84,160.56,5
184,170.12,160.79,5
179,170.30,160.97,5
183,170.55,161.19,5
181,170.76,161.39,5
183,171.01,161.61,5
187,171.33,161.86,5
181,171.52,162.05,5
187,171.83,162.30,5
184,172.07,162.52,5
185,172.33,162.74,5
192,172.73,163.04,5
191,173.09,163.32,5
191,173.45,163.59,5
188,173.74,163.84,5
194,174.15,164.14,5
204,174.74,164.54,5
199,175.23,164.88,5
188,175.48,165.11,5
190,175.77,165.36,5
188,176.02,165.59,5
191,176.32,165.84,5
193,176.65,166.11,5
187,176.86,166.32,5
187,177.06,166.53,5
191,177.34,166.77,5
189,177.57,167.00,5
189,177.80,167.22,5
190,178.05,167.44,5
189,178.27,167.66,5
191,178.52,167.89,5
189,178.73,168.10,5
187,178.90,168.29,5
193,179.18,168.54,5
192,179.43,168.78,5
189,179.62,168.98,5
187,179.77,169.16,5
189,179.96,169.36,5
189,180.14,169.55,5
187,180.28,169.73,5
185,180.37,169.88,5
185,180.46,170.03,5
186,180.57,170.19,5
189,180.74,170.38,5
186,180.85,170.54,5
187,180.97,170.70,5
187,181.09,170.86,5
189,181.25,171.04,5
185,181.32,171.18,5
185,181.40,171.32,5
185,181.47,171.46,5
184,181.52,171.58,5
183,181.55,171.70,5
183,181.58,171.81,5
184,181.63,171.93,5
183,181.65,172.04,5
181,181.64,172.13,5
183,181.67,172.24,5
182,181.68,172.34,5
182,181.68,172.44,5
183,181.71,172.54,5
181,181.69,172.63,5
183,181.72,172.73,5
181,181.71,172.81,5
181,181.69,172.89,5
181,181.68,172.98,5
180,181.64,173.05,5
179,181.59,173.11,5
181,181.58,173.18,5
179,181.53,173.24,5
178,181.46,173.29,5
177,181.37,173.33,5
179,181.32,173.38,5
181,181.31,173.46,5
180,181.29,173.53,5
179,181.24,173.58,5
177,181.16,173.61,5
179,181.11,173.67,5
177,181.03,173.70,5
177,180.95,173.73,5
177,180.87,173.77,5
178,180.81,173.81,5
177,180.74,173.84,5
176,180.64,173.86,5
176,180.55,173.88,5
175,180.44,173.90,5
175,180.33,173.91,5
175,180.22,173.92,5
175,180.12,173.93,5
175,180.02,173.94,5
176,179.94,173.96,5
174,179.82,173.96,5
175,179.72,173.97,5
173,179.59,173.96,5
173,179.46,173.95,5
173,179.33,173.94,5
173,179.20,173.93,5
173,179.08,173.92,5
175,178.99,173.93,5
176,178.93,173.95,5
173,178.82,173.94,5
177,178.78,173.98,5
176,178.72,174.00,5
175,178.65,174.01,5
173,178.54,174.00,5
173,178.43,173.99,5
173,178.32,173.98,5
173,178.21,173.97,5
171,178.07,173.94,5
173,177.97,173.93,5
173,177.87,173.92,5
172,177.75,173.90,5
172,177.63,173.88,5
173,177.54,173.87,5
173,177.45,173.86,5
172,177.34,173.84,5
171,177.21,173.82,5
170,177.07,173.78,5
171,176.95,173.75,5
171,176.83,173.72,5
171,176.71,173.69,5
169,176.56,173.65,5
169,176.41,173.60,5
169,176.26,173.56,5
169,176.11,173.51,5
168,175.95,173.45,5
169,175.81,173.41,5
169,175.68,173.37,5
168,175.52,173.31,5
169,175.39,173.27,5
168,175.25,173.22,5
167,175.08,173.15,5
168,174.94,173.10,5
169,174.82,173.06,5
167,174.66,173.00,5
167,174.51,172.94,5
165,174.32,172.86,5
166,174.15,172.79,5
167,174.01,172.74,5
165,173.83,172.66,5
165,173.65,172.58,5
165,173.48,172.51,5
165,173.31,172.43,5
165,173.14,172.36,5
164,172.96,172.27,5
164,172.78,172.19,5
163,172.59,172.10,5
166,172.46,172.04,5
164,172.29,171.96,5
164,172.12,171.88,5
164,171.96,171.80,5
163,171.78,171.71,6
164,171.62,171.63,6
163,171.45,171.55,7
159,171.20,171.42,7
161,171.00,171.32,7
161,170.80,171.21,7
161,170.60,171.11,7
161,170.41,171.01,7
161,170.22,170.91,7
160,170.02,170.80,7
161,169.84,170.70,7
161,169.66,170.61,7
159,169.45,170.49,7
161,169.28,170.40,7
159,169.07,170.28,7
160,168.89,170.18,7
160,168.71,170.08,7
159,168.52,169.97,7
159,168.33,169.86,7
160,168.16,169.76,7
159,167.98,169.65,7
158,167.78,169.53,7
157,167.56,169.41,7
158,167.37,169.29,7
160,167.22,169.20,7
157,167.02,169.08,7
157,166.82,168.96,7
157,166.62,168.84,7
157,166.43,168.72,7
157,166.24,168.60,7
156,166.04,168.48,7
157,165.86,168.36,7
156,165.66,168.24,7
155,165.45,168.11,7
155,165.24,167.98,7
155,165.03,167.85,7
154,164.81,167.71,7
155,164.62,167.58,7
155,164.42,167.45,7
157,164.28,167.35,7
155,164.09,167.23,7
156,163.93,167.11,7
156,163.77,167.00,7
154,163.57,166.87,7
155,163.40,166.75,7
155,163.23,166.64,7
153,163.03,166.50,7
154,162.85,166.38,7
153,162.65,166.24,7
153,162.46,166.11,7
154,162.29,165.99,7
154,162.12,165.87,7
153,161.94,165.74,7
152,161.74,165.60,7
152,161.55,165.47,7
153,161.38,165.34,7
153,161.21,165.22,7
152,161.03,165.09,7
149,160.78,164.93,7
151,160.59,164.79,7
151,160.40,164.65,7
151,160.21,164.51,7
152,160.05,164.39,7
149,159.82,164.23,7
149,159.61,164.08,7
149,159.40,163.93,7
151,159.23,163.80,7
150,159.04,163.66,7
149,158.84,163.52,7
149,158.65,163.37,7
148,158.43,163.22,7
149,158.24,163.07,7
149,158.06,162.93,7
149,157.88,162.79,7
148,157.68,162.65,7
148,157.49,162.50,7
147,157.28,162.35,7
148,157.09,162.20,7
147,156.89,162.05,7
145,156.65,161.88,7
147,156.46,161.73,7
145,156.23,161.56,7
146,156.03,161.41,7
146,155.82,161.25,7
146,155.63,161.10,7
146,155.44,160.95,7
147,155.27,160.81,7
145,155.06,160.65,7
145,154.86,160.50,7
145,154.66,160.34,7
145,154.47,160.19,7
145,154.28,160.04,7
144,154.07,159.88,7
144,153.87,159.72,7
147,153.74,159.59,7
144,153.54,159.43,7
143,153.33,159.27,7
145,153.16,159.13,7
144,152.98,158.97,7
144,152.80,158.83,7
142,152.58,158.66,7
142,152.37,158.49,7
143,152.19,158.34,7
143,152.00,158.18,7
143,151.82,158.03,7
143,151.65,157.88,7
143,151.47,157.73,7
142,151.28,157.57,7
143,151.12,157.43,7
143,150.96,157.28,7
141,150.76,157.12,7
141,150.56,156.96,7
141,150.37,156.80,7
141,150.18,156.64,7
143,150.04,156.51,7
142,149.88,156.36,7
142,149.72,156.22,7
141,149.55,156.06,7
145,149.45,155.95,7
143,149.33,155.82,7
142,149.18,155.69,7
141,149.02,155.54,7
142,148.88,155.40,7
141,148.72,155.26,7
141,148.56,155.12,7
140,148.39,154.97,7
142,148.26,154.84,7
141,148.12,154.70,7
140,147.96,154.55,7
140,147.80,154.41,7
139,147.62,154.25,7
142,147.51,154.13,7
139,147.34,153.98,7
139,147.17,153.83,7
139,147.01,153.68,7
141,146.89,153.55,7
140,146.75,153.42,7
139,146.60,153.27,7
138,146.42,153.12,7
139,146.28,152.98,7
138,146.11,152.83,7
139,145.97,152.69,7
137,145.79,152.53,7
137,145.61,152.38,7
137,145.44,152.23,7
138,145.29,152.08,7
137,145.13,151.93,7
138,144.98,151.79,7
136,144.80,151.64,7
137,144.65,151.49,7
137,144.49,151.34,7
136,144.32,151.19,7
137,144.18,151.05,7
135,143.99,150.89,7
136,143.83,150.74,7
136,143.68,150.59,7
135,143.50,150.44,7
137,143.37,150.30,7
135,143.21,150.15,7
137,143.08,150.02,7
136,142.94,149.88,7
135,142.78,149.73,7
135,142.63,149.58,7
135,142.47,149.43,7
137,142.36,149.31,7
136,142.24,149.18,7
136,142.11,149.05,7
134,141.95,148.90,7
135,141.81,148.76,7
136,141.70,148.63,7
136,141.58,148.50,7
134,141.43,148.36,7
135,141.30,148.22,7
136,141.20,148.10,7
135,141.07,147.97,7
133,140.91,147.82,7
135,140.79,147.69,7
136,140.70,147.58,7
137,140.62,147.47,7
136,140.53,147.36,7
133,140.38,147.21,7
136,140.29,147.10,7
137,140.23,147.00,7
137,140.16,146.90,7
135,140.06,146.78,7
133,139.92,146.64,7
135,139.82,146.53,7
135,139.72,146.41,7
135,139.63,146.30,7
133,139.49,146.16,7
133,139.36,146.03,7
133,139.24,145.90,7
134,139.13,145.78,7
133,139.01,145.65,7
132,138.87,145.52,7
133,138.75,145.39,7
133,138.64,145.27,7
133,138.52,145.15,7
133,138.41,145.02,7
132,138.29,144.89,7
131,138.14,144.76,7
132,138.02,144.63,7
131,137.88,144.49,7
132,137.76,144.37,7
132,137.64,144.24,7
133,137.55,144.13,7
133,137.46,144.02,7
130,137.31,143.88,7
131,137.19,143.75,7
134,137.12,143.65,7
133,137.04,143.55,7
134,136.98,143.45,7
134,136.92,143.36,7
133,136.84,143.25,7
133,136.76,143.15,7
132,136.67,143.04,7
133,136.59,142.94,7
132,136.50,142.83,7
132,136.41,142.72,7
132,136.32,142.61,7
131,136.22,142.50,7
130,136.09,142.37,7
132,136.01,142.27,7
131,135.91,142.16,7
132,135.83,142.05,7
132,135.76,141.95,7
132,135.68,141.85,7
130,135.57,141.74,7
131,135.48,141.63,7
131,135.39,141.52,7
132,135.32,141.43,7
129,135.19,141.30,7
130,135.09,141.19,7
132,135.03,141.10,7
130,134.93,140.99,7
131,134.85,140.89,7
129,134.73,140.77,7
129,134.62,140.65,7
129,134.50,140.53,7
129,134.39,140.42,7
129,134.29,140.30,7
129,134.18,140.19,7
129,134.08,140.08,7
128,133.96,139.96,7
130,133.88,139.86,7
131,133.82,139.77,7
132,133.78,139.69,7
129,133.69,139.59,7
128,133.57,139.47,7
129,133.48,139.37,7
129,133.39,139.26,7
127,133.26,139.14,7
129,133.18,139.04,7
129,133.10,138.94,7
127,132.97,138.82,7
127,132.85,138.70,7
127,132.74,138.58,7
127,132.62,138.47,7
128,132.53,138.36,7
126,132.40,138.24,7
126,132.27,138.12,7
125,132.13,137.98,7
126,132.00,137.87,7
125,131.86,137.74,7
125,131.73,137.61,7
125,131.59,137.48,7
125,131.46,137.36,7
125,131.33,137.23,7
125,131.20,137.11,7
125,131.08,136.99,7
125,130.96,136.87,7
125,130.84,136.75,7
123,130.68,136.61,7
127,130.61,136.52,7
126,130.52,136.41,7
126,130.43,136.31,7
125,130.32,136.20,7
125,130.21,136.08,7
123,130.07,135.95,7
125,129.97,135.84,7
125,129.87,135.74,7
126,129.79,135.64,7
125,129.69,135.53,7
123,129.56,135.41,7
124,129.45,135.29,7
124,129.34,135.18,7
125,129.25,135.08,7
123,129.13,134.96,7
124,129.02,134.85,7
123,128.90,134.73,7
122,128.77,134.60,7
122,128.63,134.48,7
122,128.50,134.35,7
121,128.35,134.22,7
124,128.26,134.12,7
121,128.12,133.98,7
123,128.01,133.87,7
124,127.93,133.78,7
122,127.81,133.66,7
122,127.70,133.54,7
121,127.56,133.42,7
121,127.43,133.29,7
121,127.30,133.17,7
121,127.18,133.05,7
123,127.10,132.95,7
124,127.03,132.86,7
121,126.91,132.74,7
121,126.79,132.62,7
121,126.68,132.50,7
122,126.58,132.40,7
121,126.47,132.29,7
121,126.36,132.17,7
120,126.24,132.05,7
120,126.11,131.93,7
121,126.01,131.82,7
119,125.87,131.69,7
119,125.73,131.57,7
119,125.60,131.44,7
120,125.49,131.33,7
119,125.36,131.20,7
119,125.23,131.08,7
119,125.10,130.96,7
120,125.00,130.85,7
119,124.88,130.73,7
118,124.74,130.60,7
118,124.61,130.48,7
119,124.50,130.36,7
119,124.39,130.25,7
118,124.26,130.13,7
117,124.11,130.00,7
117,123.97,129.87,7
118,123.85,129.75,7
118,123.74,129.63,7
117,123.60,129.50,7
117,123.47,129.38,7
117,123.34,129.26,7
118,123.23,129.14,7
117,123.11,129.02,7
118,123.01,128.91,7
117,122.89,128.79,7
117,122.77,128.67,7
117,122.65,128.56,7
115,122.50,128.42,7
117,122.39,128.31,7
115,122.24,128.17,7
115,122.10,128.04,7
116,121.97,127.92,7
117,121.88,127.81,7
117,121.78,127.70,7
116,121.66,127.59,7
115,121.53,127.46,7
115,121.40,127.34,7
116,121.29,127.22,7
115,121.16,127.10,7
117,121.08,127.00,7
115,120.96,126.88,7
113,120.80,126.74,7
115,120.68,126.62,7
116,120.59,126.52,7
114,120.46,126.39,7
115,120.35,126.28,7
113,120.20,126.15,7
113,120.06,126.01,7
114,119.94,125.89,7
116,119.86,125.80,7
115,119.76,125.69,7
113,119.63,125.56,7
113,119.49,125.44,7
113,119.36,125.31,7
113,119.24,125.19,7
113,119.11,125.07,7
113,118.99,124.95,7
113,118.87,124.83,7
111,118.71,124.69,7
113,118.60,124.57,7
113,118.49,124.46,7
112,118.36,124.33,7
111,118.21,124.20,7
113,118.11,124.09,7
112,117.98,123.96,7
111,117.84,123.83,7
111,117.71,123.71,7
111,117.57,123.58,7
113,117.48,123.47,7
112,117.37,123.36,7
111,117.24,123.24,7
112,117.14,123.12,7
111,117.02,123.00,7
113,116.94,122.90,7
111,116.82,122.78,7
111,116.70,122.66,7
110,116.57,122.54,7
113,116.50,122.44,7
112,116.41,122.34,7
111,116.30,122.22,7
111,116.19,122.11,7
112,116.11,122.01,7
112,116.03,121.91,7
112,115.95,121.81,7
111,115.85,121.70,7
109,115.71,121.58,7
111,115.62,121.47,7
111,115.52,121.37,7
111,115.43,121.26,7
111,115.34,121.16,7
111,115.26,121.06,7
111,115.17,120.96,7
111,115.09,120.86,7
109,114.97,120.74,7
109,114.85,120.62,7
110,114.75,120.52,7
110,114.66,120.41,7
111,114.58,120.32,7
112,114.53,120.23,7
109,114.42,120.12,7
109,114.31,120.01,7
111,114.25,119.92,7
111,114.18,119.83,7
111,114.12,119.74,7
109,114.01,119.64,7
109,113.91,119.53,7
110,113.84,119.43,7
109,113.74,119.33,7
109,113.64,119.23,7
111,113.59,119.14,7
109,113.50,119.04,7
109,113.41,118.94,7
109,113.32,118.84,7
110,113.26,118.75,7
109,113.17,118.66,7
109,113.09,118.56,7
109,113.00,118.46,7
108,112.90,118.36,7
109,112.83,118.27,7
109,112.75,118.17,7
109,112.68,118.08,7
111,112.64,118.01,7
109,112.57,117.92,7
109,112.50,117.83,7
109,112.43,117.74,7
109,112.36,117.66,7
110,112.31,117.58,7
110,112.27,117.50,7
108,112.18,117.41,7
107,112.08,117.30,7
109,112.02,117.22,7
107,111.91,117.12,7
107,111.82,117.02,7
109,111.76,116.94,7
108,111.68,116.85,7
108,111.61,116.76,7
108,111.54,116.67,7
107,111.45,116.58,7
107,111.36,116.48,7
109,111.31,116.41,7
107,111.23,116.31,7
108,111.16,116.23,7
109,111.12,116.16,7
111,111.12,116.10,7
109,111.07,116.03,7
109,111.03,115.96,7
107,110.95,115.87,7
111,110.95,115.82,7
111,110.95,115.78,7
111,110.95,115.73,7
109,110.92,115.66,7
107,110.84,115.57,7
110,110.82,115.52,7
110,110.80,115.46,7
109,110.77,115.40,7
108,110.71,115.32,7
109,110.68,115.26,7
107,110.60,115.18,7
108,110.55,115.11,7
107,110.48,115.03,7
107,110.41,114.95,7
109,110.38,114.89,7
112,110.42,114.86,7
111,110.43,114.82,7
108,110.38,114.75,7
109,110.35,114.69,7
111,110.36,114.66,7
111,110.38,114.62,7
111,110.39,114.58,7
111,110.40,114.55,7
111,110.41,114.51,7
109,110.39,114.46,7
111,110.40,114.42,7
113,110.45,114.41,7
116,110.56,114.42,7
111,110.57,114.39,7
109,110.54,114.34,7
111,110.55,114.30,7
112,110.58,114.28,7
113,110.62,114.27,7
112,110.65,114.24,7
111,110.66,114.21,7
113,110.71,114.20,7
112,110.73,114.18,7
111,110.74,114.15,7
112,110.76,114.12,7
112,110.79,114.10,7
113,110.83,114.09,7
109,110.80,114.04,7
113,110.84,114.03,7
109,110.80,113.98,7
113,110.85,113.97,7
111,110.85,113.94,7
111,110.85,113.91,7
111,110.86,113.88,7
111,110.86,113.85,7
114,110.92,113.86,7
113,110.96,113.85,7
109,110.92,113.80,7
111,110.93,113.77,7
111,110.93,113.74,7
111,110.93,113.72,7
110,110.91,113.68,7
113,110.95,113.67,7
114,111.01,113.67,7
113,111.05,113.67,7
113,111.09,113.66,7
113,111.13,113.65,7
111,111.13,113.63,7
112,111.14,113.61,7
110,111.12,113.58,7
111,111.12,113.55,7
111,111.12,113.52,7
111,111.11,113.50,7
112,111.13,113.48,7
112,111.15,113.47,7
111,111.15,113.44,7
111,111.14,113.42,7
113,111.18,113.42,7
114,111.24,113.42,7
111,111.23,113.40,7
112,111.25,113.38,7
111,111.24,113.36,7
113,111.28,113.36,7
111,111.27,113.33,7
114,111.33,113.34,7
113,111.36,113.34,7
112,111.37,113.32,7
113,111.41,113.32,7
119,111.56,113.38,7
113,111.59,113.37,7
113,111.61,113.37,7
114,111.66,113.37,7
111,111.65,113.35,7
115,111.72,113.37,7
115,111.78,113.38,7
119,111.93,113.44,7
116,112.01,113.47,7
114,112.05,113.47,7
114,112.09,113.48,7
117,112.18,113.51,7
116,112.26,113.54,7
114,112.30,113.54,7
113,112.31,113.54,7
115,112.36,113.55,7
116,112.44,113.57,7
113,112.45,113.57,7
113,112.46,113.56,7
113,112.47,113.56,7
113,112.48,113.55,7
113,112.49,113.55,7
113,112.50,113.54,7
113,112.51,113.54,7
115,112.56,113.55,7
116,112.63,113.57,7
115,112.68,113.59,7
115,112.72,113.60,7
116,112.79,113.63,7
116,112.85,113.65,7
118,112.96,113.69,7
117,113.04,113.73,7
117,113.12,113.76,7
115,113.15,113.77,7
116,113.21,113.79,7
118,113.31,113.84,7
116,113.36,113.86,7
115,113.39,113.87,7
113,113.39,113.86,7
116,113.44,113.88,7
116,113.49,113.90,7
115,113.52,113.91,7
116,113.57,113.94,7
115,113.60,113.95,7
113,113.59,113.94,7
114,113.59,113.94,7
115,113.62,113.95,7
115,113.65,113.96,7
115,113.68,113.97,7
113,113.66,113.96,7
115,113.69,113.97,7
115,113.72,113.98,7
116,113.76,114.00,7
113,113.75,113.99,7
115,113.77,114.00,7
113,113.76,113.99,7
113,113.74,113.98,7
114,113.75,113.98,7
114,113.75,113.98,7
113,113.74,113.97,7
113,113.72,113.96,7
113,113.71,113.95,7
113,113.69,113.94,7
113,113.68,113.93,7
117,113.75,113.96,7
116,113.79,113.98,7
115,113.81,113.99,7
118,113.90,114.03,7
117,113.96,114.06,7
116,114.00,114.08,7
116,114.04,114.10,7
116,114.08,114.12,7
119,114.18,114.17,7
116,114.22,114.19,7
116,114.25,114.21,7
115,114.27,114.21,7
115,114.28,114.22,7
114,114.27,114.22,7
114,114.27,114.22,7
115,114.28,114.23,7
120,114.40,114.28,7
113,114.37,114.27,7
115,114.38,114.28,7
116,114.42,114.30,7
116,114.45,114.31,7
116,114.48,114.33,7
115,114.49,114.34,7
115,114.50,114.34,7
117,114.55,114.37,7
113,114.52,114.36,7
115,114.53,114.36,7
115,114.54,114.37,7
117,114.59,114.39,7
117,114.63,114.42,7
118,114.70,114.46,7
113,114.67,114.44,7
113,114.63,114.43,7
113,114.60,114.41,7
116,114.63,114.43,7
114,114.62,114.42,7
114,114.60,114.42,7
114,114.59,114.42,7
113,114.56,114.40,7
113,114.53,114.39,7
113,114.50,114.37,7
114,114.49,114.37,7
114,114.48,114.37,7
112,114.43,114.34,7
118,114.50,114.38,7
121,114.63,114.45,7
117,114.68,114.47,7
115,114.68,114.48,7
121,114.81,114.54,7
121,114.93,114.61,7
125,115.14,114.71,7
121,115.25,114.77,7
119,115.33,114.82,7
121,115.44,114.88,7
120,115.53,114.93,7
117,115.56,114.95,7
125,115.75,115.05,7
121,115.86,115.11,7
119,115.92,115.15,7
119,115.98,115.19,7
121,116.08,115.24,7
121,116.18,115.30,7
119,116.24,115.34,7
120,116.31,115.39,7
118,116.34,115.41,7
121,116.44,115.47,7
120,116.51,115.51,7
121,116.60,115.57,7
119,116.65,115.60,7
123,116.77,115.68,7
121,116.86,115.73,7
120,116.92,115.77,7
121,117.00,115.82,7
123,117.12,115.90,7
123,117.24,115.97,7
123,117.36,116.04,7
120,117.41,116.08,7
124,117.54,116.16,7
121,117.61,116.21,7
120,117.66,116.24,7
121,117.72,116.29,7
121,117.79,116.34,7
121,117.85,116.38,7
119,117.88,116.41,7
121,117.94,116.46,7
124,118.06,116.53,7
123,118.16,116.60,7
121,118.22,116.64,7
124,118.33,116.71,7
121,118.39,116.76,7
127,118.56,116.86,7
123,118.65,116.92,7
124,118.75,116.99,7
121,118.80,117.03,7
123,118.88,117.09,7
125,119.00,117.17,7
123,119.08,117.23,7
121,119.12,117.27,7
123,119.20,117.32,7
122,119.26,117.37,7
121,119.29,117.41,7
122,119.35,117.45,7
122,119.40,117.50,7
123,119.47,117.55,7
121,119.50,117.59,7
121,119.53,117.62,7
121,119.56,117.66,7
124,119.65,117.72,7
121,119.68,117.75,7
121,119.70,117.78,7
121,119.73,117.82,7
120,119.73,117.84,7
121,119.76,117.87,7
121,119.78,117.90,7
122,119.83,117.94,7
122,119.87,117.98,7
120,119.87,118.00,7
121,119.90,118.03,7
125,120.00,118.10,7
120,120.00,118.12,7
123,120.06,118.17,7
120,120.06,118.19,7
121,120.08,118.22,7
121,120.10,118.24,7
122,120.13,118.28,7
123,120.19,118.33,7
125,120.29,118.40,7
121,120.30,118.42,7
123,120.36,118.47,7
121,120.37,118.49,7
120,120.36,118.51,7
124,120.43,118.56,7
123,120.48,118.61,7
122,120.52,118.64,7
123,120.56,118.69,7
121,120.57,118.71,7
122,120.60,118.74,7
121,120.61,118.76,7
125,120.70,118.83,7
126,120.80,118.90,7
123,120.85,118.94,7
122,120.87,118.97,7
124,120.93,119.02,7
123,120.97,119.06,7
133,121.22,119.20,7
125,121.29,119.26,7
124,121.35,119.30,7
131,121.54,119.42,7
127,121.65,119.50,7
123,121.67,119.53,7
129,121.82,119.63,7
127,121.92,119.70,7
127,122.03,119.77,7
127,122.13,119.85,7
128,122.24,119.93,7
126,122.32,119.99,7
129,122.45,120.08,7
125,122.50,120.13,7
126,122.57,120.19,7
125,122.62,120.23,7
125,122.67,120.28,7
125,122.72,120.33,7
123,122.72,120.36,7
124,122.75,120.39,7
125,122.79,120.44,7
125,122.84,120.48,7
123,122.84,120.51,7
127,122.92,120.57,7
126,122.98,120.63,7
129,123.10,120.71,7
126,123.16,120.77,7
127,123.24,120.83,7
126,123.29,120.88,7
126,123.35,120.93,7
127,123.42,120.99,7
129,123.53,121.07,7
127,123.60,121.13,7
127,123.67,121.19,7
130,123.80,121.28,7
127,123.86,121.33,7
129,123.96,121.41,7
128,124.04,121.48,7
131,124.18,121.57,7
135,124.40,121.71,7
133,124.57,121.82,7
133,124.74,121.93,7
131,124.87,122.02,7
138,125.13,122.18,7
140,125.43,122.36,7
135,125.62,122.49,7
131,125.73,122.57,7
129,125.79,122.64,7
130,125.87,122.71,7
133,126.02,122.81,7
133,126.16,122.91,7
133,126.29,123.02,7
139,126.55,123.17,7
137,126.76,123.31,7
134,126.90,123.42,7
137,127.10,123.56,7
141,127.38,123.73,7
135,127.53,123.84,7
134,127.66,123.94,7
135,127.81,124.06,7
137,127.99,124.18,7
135,128.13,124.29,7
134,128.25,124.39,7
137,128.43,124.52,7
133,128.52,124.60,7
136,128.67,124.71,7
137,128.83,124.84,7
134,128.94,124.93,7
135,129.06,125.03,7
135,129.18,125.13,7
136,129.31,125.24,7
141,129.55,125.40,7
137,129.70,125.51,7
137,129.84,125.63,7
137,129.99,125.74,7
140,130.19,125.88,7
137,130.32,125.99,7
139,130.50,126.12,7
143,130.75,126.29,7
139,130.91,126.42,7
142,131.13,126.58,7
141,131.33,126.72,7
138,131.46,126.83,7
143,131.69,126.99,7
144,131.94,127.16,7
141,132.12,127.30,7
139,132.26,127.42,7
140,132.41,127.55,7
141,132.59,127.68,7
141,132.75,127.81,7
137,132.84,127.91,7
139,132.96,128.02,7
141,133.12,128.15,7
140,133.26,128.26,7
141,133.42,128.39,7
144,133.63,128.55,7
139,133.73,128.65,7
140,133.86,128.77,7
141,134.00,128.89,7
139,134.10,128.99,7
145,134.32,129.15,7
147,134.57,129.33,7
146,134.80,129.50,7
145,135.01,129.65,7
141,135.13,129.76,7
147,135.36,129.94,7
156,135.78,130.20,7
145,135.96,130.34,7
143,136.10,130.47,7
146,136.30,130.63,7
153,136.63,130.85,7
153,136.96,131.07,7
148,137.18,131.24,7
145,137.34,131.38,7
145,137.49,131.51,7
147,137.68,131.67,7
146,137.85,131.81,7
155,138.19,132.04,7
157,138.57,132.29,7
155,138.90,132.52,7
149,139.10,132.69,7
159,139.50,132.95,7
153,139.77,133.15,7
154,140.05,133.36,7
154,140.33,133.56,7
153,140.58,133.76,7
160,140.97,134.02,7
167,141.49,134.35,7
168,142.02,134.69,7
171,142.60,135.05,7
169,143.13,135.39,7
164,143.55,135.68,7
159,143.86,135.91,7
174,144.46,136.29,7
175,145.07,136.68,7
175,145.67,137.06,7
164,146.04,137.33,7
171,146.53,137.67,7
177,147.14,138.06,7
178,147.76,138.46,7
171,148.23,138.79,7
168,148.62,139.08,7
176,149.17,139.45,7
184,149.87,139.89,7
180,150.47,140.29,7
173,150.92,140.62,7
178,151.46,140.99,7
184,152.11,141.42,7
185,152.77,141.86,7
181,153.33,142.25,7
176,153.79,142.59,7
183,154.37,142.99,7
181,154.90,143.37,7
183,155.47,143.77,7
177,155.90,144.10,7
182,156.42,144.48,7
176,156.81,144.80,7
177,157.21,145.12,7
182,157.71,145.49,7
183,158.22,145.86,7
181,158.67,146.21,7
183,159.16,146.58,7
181,159.59,146.93,7
179,159.98,147.25,7
180,160.38,147.57,7
183,160.84,147.93,7
179,161.20,148.24,7
180,161.57,148.56,7
185,162.04,148.92,7
179,162.38,149.22,7
187,162.87,149.60,7
191,163.44,150.01,7
197,164.11,150.48,7
192,164.67,150.90,7
192,165.21,151.31,7
203,165.97,151.83,7
204,166.73,152.35,7
195,167.29,152.77,7
193,167.81,153.18,7
189,168.23,153.53,7
192,168.71,153.92,7
193,169.19,154.31,7
192,169.65,154.69,7
191,170.08,155.05,7
200,170.68,155.50,7
190,171.06,155.84,7
190,171.44,156.19,7
189,171.79,156.51,7
189,172.14,156.84,7
193,172.55,157.20,7
195,173.00,157.58,7
195,173.44,157.95,7
192,173.81,158.29,7
197,174.28,158.68,7
199,174.77,159.08,7
200,175.28,159.49,7
193,175.63,159.83,7
193,175.98,160.16,7
196,176.38,160.52,7
199,176.83,160.90,7
204,177.37,161.33,7
200,177.83,161.72,7
196,178.19,162.06,7
209,178.81,162.53,7
209,179.41,163.00,7
199,179.80,163.36,7
199,180.19,163.71,7
198,180.54,164.06,7
197,180.87,164.39,7
197,181.19,164.71,7
197,181.51,165.04,7
199,181.86,165.37,7
201,182.24,165.73,7
201,182.62,166.08,7
203,183.03,166.45,7
197,183.31,166.76,7
201,183.66,167.10,7
201,184.01,167.44,7
197,184.27,167.74,7
200,184.58,168.06,7
201,184.91,168.39,7
197,185.15,168.67,7
197,185.39,168.96,7
199,185.66,169.26,7
197,185.89,169.53,7
205,186.27,169.89,7
207,186.68,170.26,7
202,186.99,170.58,7
203,187.31,170.90,7
209,187.74,171.28,7
199,187.97,171.56,7
200,188.21,171.84,7
200,188.45,172.13,7
199,188.66,172.40,7
200,188.88,172.67,7
201,189.13,172.95,7
207,189.48,173.29,7
206,189.81,173.62,7
205,190.12,173.94,7
200,190.32,174.20,7
200,190.51,174.45,7
201,190.72,174.72,7
203,190.96,175.00,7
199,191.12,175.24,7
202,191.34,175.51,7
202,191.56,175.78,7
203,191.78,176.05,7
200,191.95,176.29,7
201,192.13,176.53,7
199,192.27,176.76,7
202,192.46,177.01,7
203,192.67,177.27,7
199,192.80,177.49,7
199,192.92,177.70,7
197,193.00,177.90,7
197,193.08,178.09,7
198,193.18,178.29,7
199,193.30,178.49,7
200,193.43,178.71,7
206,193.68,178.98,7
203,193.87,179.22,7
200,193.99,179.43,7
201,194.13,179.65,7
199,194.23,179.84,7
200,194.35,180.04,7
198,194.42,180.22,7
202,194.57,180.44,7
200,194.68,180.63,7
197,194.73,180.80,7
197,194.77,180.96,7
199,194.86,181.14,7
197,194.90,181.30,7
197,194.94,181.46,7
196,194.96,181.60,7
197,195.00,181.75,7
197,195.04,181.91,7
195,195.04,182.04,7
195,195.04,182.17,7
195,195.04,182.30,7
194,195.02,182.41,7
194,195.00,182.53,7
193,194.96,182.63,7
195,194.96,182.76,7
195,194.96,182.88,7
194,194.94,182.99,7
192,194.88,183.08,7
191,194.81,183.16,7
192,194.75,183.25,7
193,194.71,183.35,7
193,194.68,183.44,7
193,194.65,183.54,7
191,194.57,183.61,7
191,194.50,183.69,7
193,194.47,183.78,7
192,194.42,183.86,7
191,194.35,183.93,7
191,194.29,184.00,7
191,194.22,184.07,7
192,194.18,184.15,7
190,194.09,184.21,7
189,193.99,184.26,7
189,193.89,184.31,7
189,193.79,184.35,7
189,193.70,184.40,7
189,193.60,184.45,7
189,193.51,184.49,7
190,193.44,184.55,7
189,193.35,184.59,7
188,193.25,184.63,7
191,193.20,184.69,7
189,193.12,184.73,7
187,192.99,184.76,7
188,192.89,184.79,7
188,192.80,184.82,7
186,192.66,184.83,7
185,192.51,184.83,7
187,192.40,184.85,7
187,192.29,184.88,7
187,192.18,184.90,7
186,192.06,184.91,7
185,191.92,184.91,7
185,191.78,184.91,7
185,191.64,184.91,7
185,191.51,184.91,7
184,191.36,184.90,7
185,191.23,184.90,7
185,191.11,184.91,7
185,190.99,184.91,7
183,190.83,184.89,7
184,190.69,184.88,7
181,190.50,184.84,7
182,190.33,184.81,7
181,190.14,184.77,7
185,190.04,184.78,7
181,189.86,184.74,7
181,189.68,184.70,7
181,189.51,184.66,7
181,189.34,184.63,7
179,189.13,184.57,7
179,188.93,184.51,7
179,188.73,184.46,7
179,188.53,184.40,7
180,188.36,184.36,7
179,188.18,184.31,7
180,188.01,184.26,7
177,187.79,184.19,7
177,187.58,184.12,7
177,187.36,184.05,7
177,187.16,183.98,7
176,186.93,183.90,7
176,186.72,183.82,7
175,186.48,183.73,7
175,186.25,183.64,7
175,186.03,183.56,7
176,185.83,183.48,7
176,185.63,183.41,7
174,185.40,183.31,7
175,185.19,183.23,7
175,184.99,183.15,7
175,184.79,183.07,7
173,184.55,182.97,7
175,184.36,182.89,7
173,184.13,182.79,7
175,183.95,182.71,7
174,183.75,182.62,7
173,183.54,182.53,7
173,183.32,182.43,7
172,183.10,182.33,7
173,182.90,182.23,7
171,182.66,182.12,7
172,182.45,182.02,7
171,182.22,181.91,7
172,182.01,181.81,7
172,181.81,181.71,8
172,181.62,181.61,8
170,181.38,181.50,9
170,181.16,181.38,9
169,180.91,181.26,9
169,180.67,181.14,9
169,180.44,181.02,9
171,180.25,180.92,9
170,180.05,180.81,9
169,179.83,180.69,9
168,179.59,180.56,9
168,179.36,180.44,9
168,179.13,180.31,9
167,178.89,180.18,9
167,178.65,180.05,9
167,178.42,179.92,9
167,178.19,179.79,9
166,177.94,179.65,9
167,177.73,179.52,9
167,177.51,179.40,9
165,177.26,179.25,9
165,177.02,179.11,9
166,176.80,178.98,9
165,176.56,178.84,9
165,176.33,178.70,9
165,176.10,178.56,9
164,175.86,178.42,9
165,175.64,178.28,9
165,175.43,178.15,9
164,175.20,178.01,9
163,174.96,177.86,9
164,174.74,177.72,9
164,174.52,177.58,9
163,174.29,177.44,9
162,174.05,177.28,9
161,173.79,177.12,9
162,173.55,176.97,9
163,173.34,176.83,9
164,173.15,176.70,9
162,172.93,176.56,9
161,172.69,176.40,9
161,172.46,176.25,9
161,172.23,176.09,9
160,171.98,175.93,9
160,171.74,175.77,9
160,171.51,175.62,9
159,171.26,175.45,9
160,171.03,175.29,9
159,170.79,175.13,9
159,170.56,174.97,9
157,170.29,174.79,9
159,170.06,174.63,9
158,169.82,174.47,9
157,169.56,174.29,9
160,169.37,174.15,9
159,169.16,174.00,9
160,168.98,173.86,9
157,168.74,173.69,9
157,168.51,173.52,9
157,168.28,173.36,9
158,168.07,173.20,9
157,167.85,173.04,9
157,167.63,172.88,9
157,167.42,172.72,9
156,167.19,172.55,9
157,166.99,172.40,9
155,166.75,172.23,9
156,166.53,172.06,9
155,166.30,171.89,9
156,166.10,171.73,9
155,165.87,171.57,9
156,165.68,171.41,9
155,165.46,171.25,9
156,165.27,171.09,9
156,165.09,170.94,9
154,164.87,170.77,9
155,164.67,170.62,9
153,164.44,170.44,9
154,164.23,170.28,9
153,164.00,170.10,9
153,163.78,169.93,9
153,163.57,169.76,9
153,163.36,169.59,9
153,163.15,169.43,9
153,162.95,169.26,9
153,162.75,169.10,9
152,162.53,168.93,9
152,162.32,168.76,9
155,162.17,168.62,9
152,161.97,168.46,9
151,161.75,168.28,9
150,161.52,168.10,9
151,161.31,167.93,9
152,161.12,167.77,9
152,160.94,167.61,9
150,160.72,167.44,9
150,160.50,167.26,9
151,160.31,167.10,9
149,160.09,166.92,9
149,159.87,166.74,9
150,159.67,166.57,9
149,159.46,166.40,9
151,159.29,166.24,9
150,159.10,166.08,9
149,158.90,165.91,9
150,158.72,165.75,9
149,158.53,165.58,9
150,158.36,165.43,9
149,158.17,165.26,9
150,158.01,165.11,9
150,157.85,164.96,9
149,157.67,164.80,9
149,157.50,164.64,9
147,157.29,164.46,9
148,157.10,164.30,9
147,156.90,164.13,9
148,156.72,163.97,9
148,156.55,163.81,9
147,156.35,163.64,9
146,156.15,163.46,9
147,155.96,163.30,9
147,155.79,163.13,9
147,155.61,162.97,9
147,155.44,162.81,9
145,155.23,162.63,9
144,155.00,162.45,9
147,154.84,162.29,9
145,154.65,162.12,9
145,154.45,161.95,9
145,154.26,161.78,9
146,154.10,161.62,9
148,153.98,161.49,9
145,153.80,161.32,9
143,153.58,161.14,9
144,153.39,160.97,9
145,153.22,160.81,9
145,153.06,160.65,9
145,152.90,160.49,9
143,152.70,160.32,9
143,152.51,160.14,9
143,152.32,159.97,9
143,152.13,159.80,9
143,151.95,159.63,9
142,151.75,159.46,9
143,151.57,159.29,9
142,151.38,159.12,9
141,151.17,158.94,9
143,151.01,158.78,9
146,150.91,158.65,9
145,150.79,158.52,9
143,150.64,158.36,9
141,150.44,158.19,9
143,150.29,158.04,9
143,150.15,157.89,9
143,150.01,157.74,9
143,149.87,157.59,9
141,149.69,157.42,9
141,149.51,157.26,9
141,149.34,157.10,9
143,149.22,156.96,9
140,149.03,156.79,9
141,148.87,156.63,9
141,148.71,156.47,9
141,148.56,156.32,9
141,148.41,156.16,9
140,148.24,156.00,9
140,148.08,155.84,9
140,147.91,155.68,9
139,147.74,155.52,9
140,147.58,155.36,9
139,147.41,155.20,9
141,147.28,155.06,9
140,147.14,154.91,9
138,146.95,154.74,9
139,146.79,154.58,9
142,146.70,154.45,9
139,146.54,154.30,9
139,146.39,154.15,9
138,146.23,153.98,9
137,146.04,153.81,9
140,145.92,153.68,9
139,145.78,153.53,9
139,145.65,153.38,9
137,145.47,153.22,9
137,145.30,153.06,9
137,145.14,152.90,9
137,144.98,152.74,9
138,144.84,152.59,9
136,144.66,152.43,9
137,144.51,152.27,9
137,144.36,152.12,9
137,144.21,151.97,9
137,144.06,151.82,9
136,143.90,151.66,9
135,143.72,151.49,9
136,143.57,151.34,9
136,143.42,151.18,9
135,143.25,151.02,9
137,143.13,150.88,9
136,142.98,150.73,9
135,142.82,150.58,9
136,142.69,150.43,9
134,142.51,150.27,9
135,142.36,150.11,9
135,142.22,149.96,9
136,142.09,149.82,9
135,141.95,149.67,9
135,141.81,149.53,9
133,141.63,149.36,9
135,141.50,149.22,9
133,141.33,149.06,9
133,141.17,148.90,9
133,141.00,148.74,9
133,140.84,148.58,9
132,140.66,148.41,9
133,140.51,148.26,9
133,140.36,148.11,9
133,140.21,147.96,9
132,140.05,147.80,9
132,139.89,147.64,9
131,139.71,147.47,9
133,139.58,147.33,9
133,139.45,147.18,9
131,139.28,147.02,9
133,139.15,146.88,9
131,138.99,146.72,9
131,138.83,146.57,9
132,138.69,146.42,9
134,138.60,146.30,9
134,138.51,146.17,9
131,138.36,146.02,9
131,138.21,145.87,9
131,138.06,145.72,9
131,137.92,145.58,9
131,137.78,145.43,9
130,137.63,145.28,9
131,137.50,145.13,9
130,137.35,144.98,9
131,137.22,144.84,9
131,137.10,144.70,9
131,136.97,144.57,9
131,136.85,144.43,9
132,136.76,144.31,9
131,136.64,144.17,9
129,136.49,144.02,9
129,136.34,143.87,9
130,136.21,143.73,9
132,136.13,143.62,9
129,135.99,143.47,9
130,135.87,143.33,9
129,135.73,143.19,9
129,135.59,143.05,9
129,135.46,142.91,9
129,135.33,142.77,9
129,135.21,142.63,9
128,135.06,142.49,9
129,134.94,142.35,9
128,134.80,142.21,9
131,134.73,142.09,9
127,134.57,141.94,9
127,134.42,141.79,9
125,134.23,141.63,9
128,134.11,141.49,9
128,133.98,141.36,9
128,133.87,141.22,9
128,133.75,141.09,9
127,133.61,140.95,9
127,133.48,140.81,9
127,133.35,140.67,9
128,133.24,140.54,9
128,133.14,140.42,9
127,133.02,140.28,9
127,132.90,140.15,9
127,132.78,140.02,9
124,132.60,139.86,9
125,132.45,139.71,9
125,132.30,139.56,9
125,132.16,139.42,9
125,132.01,139.27,9
127,131.91,139.15,9
127,131.81,139.03,9
125,131.68,138.89,9
125,131.54,138.75,9
126,131.43,138.62,9
127,131.34,138.51,9
125,131.22,138.37,9
124,131.07,138.23,9
125,130.95,138.10,9
127,130.87,137.99,9
125,130.76,137.86,9
125,130.64,137.73,9
124,130.51,137.59,9
123,130.36,137.44,9
125,130.25,137.32,9
126,130.17,137.21,9
123,130.02,137.06,9
123,129.88,136.92,9
122,129.72,136.77,9
123,129.59,136.64,9
121,129.42,136.48,9
123,129.29,136.35,9
123,129.16,136.21,9
124,129.06,136.09,9
123,128.94,135.96,9
123,128.82,135.83,9
123,128.70,135.70,9
124,128.61,135.58,9
123,128.50,135.46,9
122,128.37,135.32,9
122,128.24,135.19,9
123,128.14,135.07,9
121,127.99,134.93,9
123,127.89,134.81,9
123,127.79,134.69,9
121,127.66,134.55,9
122,127.55,134.43,9
121,127.41,134.29,9
123,127.33,134.18,9
121,127.20,134.05,9
120,127.06,133.91,9
121,126.93,133.78,9
121,126.82,133.65,9
121,126.70,133.53,9
121,126.59,133.40,9
121,126.47,133.28,9
121,126.36,133.15,9
122,126.28,133.04,9
121,126.17,132.92,9
119,126.03,132.78,9
121,125.93,132.66,9
121,125.83,132.55,9
121,125.73,132.43,9
120,125.62,132.31,9
119,125.49,132.17,9
119,125.36,132.04,9
120,125.25,131.92,9
122,125.18,131.82,9
120,125.08,131.71,9
119,124.96,131.58,9
119,124.84,131.45,9
121,124.76,131.35,9
120,124.67,131.23,9
119,124.55,131.11,9
118,124.42,130.98,9
119,124.31,130.86,9
119,124.21,130.74,9
119,124.10,130.62,9
118,123.98,130.50,9
119,123.88,130.38,9
119,123.78,130.27,9
119,123.69,130.16,9
118,123.58,130.04,9
117,123.44,129.91,9
117,123.31,129.78,9
117,123.19,129.65,9
117,123.06,129.52,9
117,122.94,129.40,9
117,122.82,129.27,9
117,122.71,129.15,9
117,122.59,129.03,9
116,122.46,128.90,9
117,122.35,128.78,9
115,122.21,128.64,9
117,122.10,128.53,9
117,122.00,128.41,9
117,121.90,128.30,9
116,121.78,128.17,9
117,121.69,128.06,9
114,121.53,127.92,9
116,121.42,127.80,9
115,121.29,127.67,9
115,121.17,127.55,9
113,121.00,127.40,9
115,120.88,127.28,9
113,120.73,127.13,9
115,120.61,127.01,9
115,120.50,126.89,9
115,120.39,126.77,9
115,120.28,126.66,9
114,120.16,126.53,9
115,120.05,126.41,9
115,119.95,126.30,9
114,119.83,126.18,9
113,119.70,126.05,9
115,119.60,125.93,9
114,119.49,125.82,9
113,119.36,125.69,9
113,119.23,125.56,9
112,119.09,125.42,9
113,118.97,125.30,9
112,118.83,125.17,9
114,118.73,125.06,9
114,118.64,124.95,9
113,118.52,124.83,9
112,118.39,124.70,9
113,118.29,124.58,9
113,118.18,124.46,9
113,118.08,124.35,9
113,117.97,124.24,9
113,117.88,124.12,9
112,117.76,124.00,9
113,117.66,123.89,9
115,117.61,123.80,9
115,117.56,123.72,9
113,117.47,123.61,9
113,117.38,123.50,9
113,117.29,123.40,9
120,117.34,123.36,9
116,117.32,123.29,9
115,117.27,123.21,9
113,117.18,123.11,9
116,117.16,123.03,9
116,117.14,122.96,9
115,117.09,122.88,9
113,117.01,122.79,9
113,116.93,122.69,9
116,116.91,122.62,9
115,116.88,122.54,9
115,116.84,122.47,9
117,116.84,122.41,9
116,116.82,122.35,9
114,116.77,122.27,9
115,116.73,122.19,9
115,116.70,122.12,9
121,116.78,122.11,9
117,116.79,122.06,9
115,116.75,121.99,9
113,116.68,121.90,9
117,116.68,121.85,9
118,116.71,121.81,9
117,116.72,121.76,9
116,116.70,121.71,9
115,116.67,121.64,9
120,116.73,121.62,9
120,116.80,121.61,9
117,116.80,121.56,9
115,116.77,121.49,9
116,116.75,121.44,9
119,116.80,121.42,9
118,116.82,121.38,9
116,116.81,121.33,9
117,116.81,121.28,9
115,116.77,121.22,9
115,116.74,121.16,9
119,116.78,121.14,9
115,116.75,121.08,9
115,116.71,121.02,9
116,116.70,120.97,9
116,116.68,120.92,9
115,116.65,120.86,9
113,116.58,120.78,9
115,116.55,120.72,9
116,116.53,120.67,9
115,116.50,120.62,9
116,116.49,120.57,9
117,116.50,120.53,9
116,116.49,120.49,9
115,116.46,120.43,9
114,116.41,120.37,9
117,116.43,120.34,9
115,116.40,120.28,9
117,116.41,120.25,9
115,116.38,120.20,9
114,116.33,120.14,9
114,116.29,120.07,9
113,116.22,120.00,9
115,116.20,119.95,9
113,116.13,119.88,9
115,116.11,119.83,9
116,116.11,119.80,9
114,116.07,119.74,9
115,116.05,119.69,9
115,116.02,119.64,9
115,116.00,119.60,9
113,115.94,119.53,9
113,115.88,119.47,9
113,115.83,119.40,9
113,115.77,119.34,9
115,115.76,119.29,9
115,115.74,119.25,9
113,115.69,119.19,9
113,115.63,119.13,9
113,115.58,119.07,9
113,115.53,119.01,9
113,115.48,118.95,9
113,115.43,118.89,9
113,115.38,118.83,9
112,115.31,118.76,9
114,115.28,118.71,9
113,115.24,118.65,9
115,115.23,118.62,9
113,115.19,118.56,9
112,115.13,118.50,9
111,115.04,118.42,9
112,114.98,118.36,9
111,114.90,118.28,9
113,114.86,118.23,9
114,114.85,118.19,9
115,114.85,118.16,9
113,114.81,118.10,9
111,114.74,118.03,9
115,114.74,118.00,9
112,114.69,117.94,9
111,114.61,117.87,9
113,114.58,117.82,9
116,114.61,117.81,9
115,114.62,117.78,9
111,114.55,117.71,9
112,114.49,117.65,9
111,114.42,117.59,9
114,114.42,117.55,9
113,114.39,117.51,9
111,114.32,117.44,9
111,114.25,117.38,9
113,114.23,117.33,9
115,114.24,117.31,9
111,114.18,117.25,9
109,114.08,117.16,9
111,114.01,117.10,9
111,113.95,117.04,9
113,113.93,117.00,9
111,113.88,116.94,9
111,113.82,116.88,9
113,113.80,116.84,9
113,113.79,116.80,9
113,113.77,116.77,9
113,113.76,116.73,9
111,113.70,116.67,9
111,113.65,116.61,9
113,113.63,116.58,9
113,113.62,116.54,9
113,113.61,116.51,9
111,113.56,116.45,9
113,113.54,116.42,9
111,113.49,116.36,9
112,113.46,116.32,9
111,113.41,116.27,9
112,113.39,116.22,9
111,113.34,116.17,9
110,113.27,116.11,9
111,113.23,116.06,9
113,113.22,116.03,9
116,113.28,116.03,9
111,113.23,115.98,9
111,113.19,115.93,9
115,113.22,115.92,9
116,113.28,115.92,9
114,113.29,115.90,9
111,113.25,115.85,9
115,113.28,115.84,9
117,113.36,115.85,9
115,113.39,115.85,9
116,113.44,115.85,9
113,113.43,115.82,9
112,113.40,115.78,9
116,113.46,115.78,9
115,113.49,115.77,9
113,113.48,115.75,9
114,113.49,115.73,9
113,113.48,115.70,9
114,113.49,115.69,9
112,113.46,115.65,9
113,113.45,115.62,9
117,113.52,115.64,9
117,113.59,115.65,9
117,113.66,115.66,9
119,113.77,115.70,9
119,113.87,115.73,9
117,113.93,115.74,9
117,113.99,115.75,9
115,114.01,115.75,9
119,114.11,115.78,9
116,114.15,115.78,9
118,114.23,115.80,9
116,114.26,115.81,9
115,114.28,115.80,9
115,114.29,115.79,9
115,114.31,115.78,9
115,114.32,115.77,9
115,114.33,115.77,9
115,114.35,115.76,9
115,114.36,115.75,9
113,114.33,115.72,9
115,114.35,115.72,9
113,114.32,115.69,9
113,114.29,115.66,9
113,114.27,115.64,9
113,114.24,115.61,9
115,114.26,115.60,9
117,114.31,115.62,9
118,114.39,115.64,9
113,114.36,115.61,9
118,114.43,115.64,9
115,114.44,115.63,9
118,114.51,115.66,9
117,114.56,115.67,9
115,114.57,115.66,9
115,114.58,115.66,9
115,114.59,115.65,9
113,114.56,115.62,9
116,114.59,115.63,9
115,114.59,115.62,9
116,114.62,115.62,9
115,114.63,115.62,9
115,114.64,115.61,9
114,114.63,115.60,9
117,114.67,115.61,9
115,114.68,115.60,9
114,114.67,115.59,9
113,114.63,115.56,9
113,114.60,115.54,9
115,114.61,115.53,9
115,114.62,115.53,9
115,114.62,115.52,9
116,114.65,115.52,9
114,114.64,115.51,9
115,114.64,115.50,9
113,114.61,115.48,9
115,114.62,115.47,9
113,114.59,115.45,9
116,114.62,115.46,9
113,114.58,115.43,9
113,114.55,115.41,9
112,114.50,115.37,9
116,114.53,115.38,9
115,114.54,115.38,9
113,114.51,115.35,9
114,114.50,115.34,9
113,114.47,115.31,9
116,114.50,115.32,9
112,114.45,115.29,9
113,114.42,115.27,9
113,114.39,115.24,9
113,114.36,115.22,9
115,114.38,115.22,9
113,114.35,115.20,9
113,114.32,115.17,9
113,114.30,115.15,9
116,114.33,115.16,9
117,114.38,115.18,9
114,114.38,115.17,9
113,114.35,115.15,9
113,114.32,115.12,9
114,114.32,115.11,9
113,114.29,115.09,9
113,114.26,115.07,9
114,114.26,115.06,9
114,114.25,115.05,9
113,114.23,115.03,9
114,114.22,115.02,9
111,114.16,114.98,9
112,114.12,114.95,9
113,114.09,114.93,9
113,114.07,114.91,9
113,114.05,114.89,9
112,114.01,114.86,9
115,114.03,114.86,9
112,113.99,114.83,9
113,113.97,114.82,9
111,113.91,114.78,9
113,113.89,114.76,9
114,113.89,114.75,9
112,113.86,114.73,9
112,113.82,114.70,9
113,113.80,114.68,9
113,113.79,114.66,9
111,113.73,114.63,9
113,113.72,114.61,9
111,113.66,114.58,9
111,113.61,114.54,9
111,113.56,114.50,9
112,113.52,114.48,9
113,113.51,114.46,9
111,113.46,114.43,9
115,113.49,114.44,9
116,113.54,114.45,9
113,113.53,114.44,9
113,113.52,114.42,9
113,113.51,114.41,9
115,113.54,114.41,9
114,113.55,114.41,9
113,113.54,114.40,9
115,113.57,114.40,9
114,113.58,114.40,9
115,113.61,114.40,9
115,113.63,114.41,9
113,113.62,114.40,9
115,113.65,114.40,9
114,113.66,114.40,9
113,113.64,114.38,9
113,113.63,114.37,9
117,113.70,114.40,9
117,113.76,114.42,9
113,113.75,114.41,9
115,113.77,114.41,9
115,113.80,114.42,9
113,113.78,114.41,9
115,113.81,114.41,9
113,113.79,114.40,9
117,113.85,114.42,9
115,113.88,114.43,9
113,113.86,114.41,9
115,113.88,114.42,9
117,113.95,114.45,9
115,113.97,114.45,9
119,114.07,114.50,9
117,114.13,114.52,9
113,114.10,114.51,9
117,114.16,114.53,9
117,114.22,114.56,9
115,114.23,114.56,9
114,114.23,114.56,9
114,114.22,114.55,9
116,114.26,114.56,9
119,114.35,114.61,9
120,114.47,114.66,9
118,114.54,114.70,9
117,114.59,114.72,9
123,114.76,114.80,9
117,114.80,114.82,9
118,114.86,114.86,9
121,114.99,114.92,9
121,115.11,114.98,9
124,115.29,115.07,9
117,115.32,115.09,9
121,115.43,115.15,9
125,115.62,115.25,9
125,115.81,115.34,9
121,115.92,115.40,9
119,115.98,115.44,9
126,116.18,115.54,9
124,116.33,115.63,9
121,116.43,115.68,9
124,116.58,115.76,9
121,116.67,115.81,9
125,116.83,115.91,9
127,117.04,116.02,9
121,117.12,116.07,9
122,117.21,116.13,9
121,117.29,116.18,9
121,117.36,116.22,9
126,117.54,116.32,9
123,117.65,116.39,9
123,117.75,116.45,9
124,117.88,116.53,9
123,117.98,116.59,9
125,118.12,116.68,9
125,118.26,116.76,9
123,118.35,116.82,9
124,118.47,116.90,9
125,118.60,116.98,9
125,118.73,117.06,9
124,118.83,117.13,9
123,118.91,117.19,9
123,119.00,117.24,9
122,119.06,117.29,9
125,119.17,117.37,9
125,119.29,117.44,9
127,119.45,117.54,9
131,119.68,117.67,9
129,119.86,117.79,9
127,120.01,117.88,9
129,120.19,117.99,9
135,120.48,118.16,9
133,120.73,118.31,9
127,120.86,118.40,9
138,121.20,118.59,9
133,121.44,118.74,9
131,121.63,118.86,9
133,121.86,119.00,9
133,122.08,119.14,9
129,122.22,119.24,9
131,122.39,119.36,9
137,122.68,119.53,9
132,122.87,119.66,9
131,123.03,119.77,9
129,123.15,119.86,9
130,123.29,119.97,9
129,123.40,120.06,9
135,123.64,120.21,9
132,123.80,120.32,9
139,124.11,120.51,9
137,124.36,120.67,9
132,124.52,120.79,9
136,124.75,120.94,9
139,125.03,121.12,9
133,125.19,121.24,9
136,125.41,121.39,9
139,125.68,121.56,9
135,125.87,121.70,9
141,126.17,121.89,9
139,126.43,122.06,9
140,126.70,122.24,9
136,126.88,122.38,9
141,127.17,122.56,9
153,127.68,122.87,9
152,128.17,123.16,9
150,128.60,123.43,9
146,128.95,123.65,9
144,129.25,123.86,9
160,129.87,124.22,9
163,130.53,124.61,9
155,131.02,124.91,9
153,131.46,125.19,9
149,131.81,125.43,9
152,132.21,125.70,9
161,132.79,126.05,9
166,133.45,126.45,9
165,134.09,126.83,9
167,134.74,127.24,9
156,135.17,127.52,9
170,135.87,127.95,9
175,136.65,128.42,9
171,137.34,128.84,9
166,137.91,129.22,9
160,138.35,129.52,9
169,138.96,129.92,9
167,139.52,130.29,9
165,140.03,130.64,9
169,140.61,131.02,9
167,141.14,131.38,9
173,141.78,131.80,9
164,142.22,132.12,9
169,142.76,132.49,9
165,143.20,132.81,9
169,143.72,133.17,9
166,144.16,133.50,9
169,144.66,133.86,9
173,145.23,134.25,9
172,145.76,134.63,9
171,146.27,134.99,9
169,146.72,135.33,9
171,147.21,135.69,9
172,147.70,136.05,9
177,148.29,136.46,9
179,148.90,136.88,9
169,149.31,137.21,9
185,150.02,137.68,9
187,150.76,138.18,9
188,151.50,138.68,9
184,152.15,139.13,9
176,152.63,139.50,9
177,153.12,139.87,9
177,153.60,140.24,9
180,154.12,140.64,9
185,154.74,141.08,9
183,155.31,141.50,9
181,155.82,141.90,9
181,156.32,142.29,9
185,156.90,142.72,9
197,157.70,143.26,9
189,158.33,143.72,9
187,158.90,144.15,9
193,159.58,144.64,9
201,160.41,145.20,9
185,160.90,145.60,9
189,161.46,146.03,9
189,162.01,146.46,9
192,162.61,146.92,9
193,163.22,147.38,9
189,163.74,147.80,9
197,164.40,148.29,9
198,165.07,148.79,9
195,165.67,149.25,9
190,166.16,149.65,9
188,166.60,150.04,9
196,167.18,150.50,9
192,167.68,150.91,9
192,168.17,151.32,9
196,168.72,151.77,9
194,169.23,152.19,9
205,169.94,152.72,9
210,170.75,153.29,9
204,171.41,153.80,9
208,172.14,154.34,9
211,172.92,154.91,9
213,173.72,155.49,9
211,174.47,156.05,9
206,175.10,156.54,9
204,175.68,157.02,9
202,176.20,157.47,9
217,177.02,158.06,9
213,177.74,158.61,9
209,178.36,159.12,9
205,178.90,159.58,9
205,179.42,160.03,9
203,179.89,160.46,9
205,180.39,160.91,9
205,180.88,161.35,9
204,181.35,161.77,9
216,182.04,162.32,9
209,182.58,162.78,9
209,183.11,163.24,9
205,183.54,163.66,9
204,183.95,164.07,9
212,184.51,164.55,9
208,184.98,164.98,9
207,185.42,165.40,9
209,185.90,165.84,9
214,186.46,166.32,9
209,186.91,166.74,9
207,187.31,167.15,9
212,187.80,167.60,9
209,188.23,168.01,9
206,188.58,168.39,9
208,188.97,168.79,9
219,189.57,169.29,9
209,189.96,169.68,9
209,190.34,170.08,9
219,190.92,170.57,9
211,191.32,170.97,9
212,191.73,171.38,9
213,192.16,171.80,9
209,192.49,172.17,9
209,192.82,172.54,9
209,193.15,172.90,9
208,193.44,173.25,9
209,193.76,173.61,9
207,194.02,173.95,9
211,194.36,174.32,9
211,194.69,174.68,9
208,194.96,175.02,9
207,195.20,175.34,9
209,195.48,175.67,9
212,195.81,176.04,9
209,196.07,176.37,9
210,196.35,176.70,9
209,196.60,177.02,9
209,196.85,177.34,9
211,197.13,177.68,9
207,197.33,177.97,9
205,197.48,178.24,9
206,197.65,178.52,9
205,197.80,178.79,9
205,197.94,179.05,9
206,198.11,179.32,9
204,198.22,179.57,9
206,198.38,179.83,9
205,198.51,180.08,9
205,198.64,180.33,9
207,198.81,180.60,9
207,198.97,180.86,9
213,199.25,181.18,9
214,199.55,181.51,9
209,199.74,181.79,9
208,199.90,182.05,9
217,200.24,182.40,9
209,200.42,182.66,9
209,200.59,182.93,9
215,200.88,183.25,9
209,201.04,183.50,9
207,201.16,183.74,9
212,201.38,184.02,9
214,201.63,184.32,9
213,201.86,184.61,9
208,201.98,184.84,9
209,202.12,185.08,9
209,202.26,185.32,9
208,202.37,185.55,9
207,202.47,185.76,9
206,202.54,185.97,9
207,202.63,186.18,9
206,202.69,186.38,9
207,202.78,186.58,9
205,202.82,186.77,9
206,202.89,186.96,9
205,202.93,187.14,9
206,202.99,187.33,9
204,203.01,187.49,9
204,203.03,187.66,9
203,203.03,187.81,9
204,203.05,187.97,9
204,203.07,188.13,9
203,203.07,188.28,9
203,203.07,188.43,9
204,203.08,188.59,9
202,203.06,188.72,9
201,203.02,188.84,9
201,202.98,188.96,9
201,202.94,189.09,9
203,202.94,189.22,9
201,202.90,189.34,9
200,202.85,189.45,9
199,202.77,189.54,9
200,202.71,189.65,9
199,202.64,189.74,9
199,202.57,189.83,9
198,202.48,189.92,9
198,202.39,190.00,9
198,202.30,190.08,9
197,202.19,190.15,9
198,202.11,190.23,9
198,202.03,190.30,9
197,201.93,190.37,9
196,201.81,190.43,9
197,201.71,190.49,9
197,201.62,190.56,9
196,201.50,190.61,9
196,201.39,190.67,9
195,201.27,190.71,9
195,201.14,190.75,9
195,201.02,190.79,9
195,200.90,190.84,9
195,200.78,190.88,9
194,200.64,190.91,9
194,200.51,190.94,9
195,200.40,190.98,9
196,200.31,191.03,9
195,200.21,191.07,9
193,200.06,191.09,9
191,199.88,191.09,9
193,199.74,191.11,9
193,199.61,191.13,9
193,199.48,191.15,9
193,199.35,191.16,9
191,199.18,191.16,9
192,199.04,191.17,9
193,198.92,191.19,9
192,198.78,191.20,9
191,198.62,191.20,9
191,198.47,191.19,9
191,198.32,191.19,9
190,198.15,191.18,9
190,197.99,191.17,9
191,197.85,191.17,9
189,197.67,191.14,9
190,197.52,191.13,9
189,197.35,191.11,9
188,197.16,191.08,9
189,197.00,191.06,9
189,196.84,191.04,9
189,196.68,191.02,9
189,196.53,191.00,9
189,196.38,190.98,9
189,196.23,190.96,9
188,196.07,190.93,9
187,195.89,190.89,9
188,195.73,190.86,9
187,195.55,190.82,9
187,195.38,190.78,9
187,195.21,190.75,9
184,194.99,190.68,9
185,194.79,190.62,9
185,194.59,190.57,9
188,194.46,190.54,9
187,194.31,190.50,9
187,194.17,190.47,9
185,193.98,190.41,9
185,193.80,190.36,9
186,193.65,190.32,9
185,193.48,190.26,9
184,193.29,190.20,9
185,193.12,190.15,9
185,192.96,190.10,9
185,192.80,190.05,9
183,192.60,189.98,9
183,192.41,189.91,9
183,192.22,189.84,9
182,192.02,189.76,9
181,191.80,189.67,9
181,191.58,189.59,9
183,191.41,189.52,9
182,191.22,189.44,9
181,191.02,189.36,9
183,190.86,189.30,9
181,190.66,189.21,9
181,190.47,189.13,9
181,190.28,189.05,9
181,190.09,188.97,9
180,189.89,188.88,9
181,189.71,188.80,9
182,189.56,188.73,9
180,189.37,188.65,9
183,189.24,188.59,9
179,189.03,188.49,9
179,188.83,188.40,9
178,188.62,188.29,9
178,188.40,188.19,9
179,188.22,188.10,10
178,188.01,188.00,10
177,187.79,187.89,11
179,187.62,187.80,11
178,187.42,187.70,11
181,187.30,187.63,11
178,187.11,187.54,11
176,186.89,187.42,11
175,186.65,187.30,11
175,186.42,187.18,11
175,186.19,187.05,11
175,185.96,186.93,11
175,185.75,186.81,11
175,185.53,186.70,11
176,185.34,186.59,11
174,185.11,186.46,11
174,184.89,186.34,11
175,184.69,186.22,11
174,184.48,186.10,11
174,184.27,185.98,11
174,184.06,185.86,11
174,183.86,185.74,11
172,183.63,185.61,11
172,183.39,185.47,11
172,183.17,185.33,11
173,182.96,185.21,11
175,182.80,185.11,11
172,182.59,184.98,11
171,182.35,184.84,11
174,182.19,184.73,11
175,182.04,184.63,11
175,181.90,184.54,11
171,181.69,184.40,11
172,181.49,184.28,11
174,181.34,184.17,11
173,181.17,184.06,11
172,180.99,183.94,11
171,180.79,183.81,11
169,180.56,183.66,11
172,180.38,183.55,11
175,180.28,183.46,11
170,180.07,183.33,11
170,179.87,183.19,11
169,179.65,183.05,11
170,179.46,182.92,11
170,179.27,182.79,11
169,179.06,182.65,11
169,178.86,182.52,11
169,178.67,182.38,11
168,178.45,182.24,11
168,178.24,182.10,11
169,178.06,181.97,11
168,177.86,181.83,11
167,177.64,181.68,11
167,177.43,181.53,11
168,177.24,181.40,11
167,177.03,181.25,11
167,176.83,181.11,11
166,176.62,180.96,11
166,176.40,180.81,11
166,176.20,180.66,11
167,176.01,180.52,11
166,175.81,180.38,11
165,175.60,180.23,11
164,175.36,180.06,11
166,175.18,179.92,11
166,174.99,179.78,11
164,174.77,179.63,11
164,174.56,179.47,11
165,174.37,179.32,11
166,174.20,179.19,11
166,174.04,179.06,11
165,173.86,178.92,11
165,173.68,178.78,11
165,173.50,178.64,11
166,173.35,178.52,11
164,173.17,178.37,11
163,172.96,178.22,11
163,172.76,178.06,11
163,172.57,177.91,11
162,172.36,177.75,11
162,172.15,177.60,11
162,171.95,177.44,11
162,171.75,177.29,11
161,171.53,177.12,11
163,171.36,176.98,11
162,171.18,176.83,11
164,171.03,176.70,11
159,170.79,176.53,11
163,170.64,176.39,11
162,170.46,176.25,11
163,170.31,176.12,11
166,170.23,176.01,11
165,170.12,175.90,11
161,169.94,175.76,11
164,169.82,175.64,11
162,169.67,175.50,11
162,169.51,175.37,11
162,169.36,175.23,11
161,169.19,175.09,11
161,169.03,174.95,11
161,168.87,174.81,11
159,168.67,174.65,11
159,168.48,174.50,11
162,168.35,174.37,11
163,168.24,174.26,11
163,168.14,174.14,11
159,167.96,173.99,11
164,167.88,173.89,11
163,167.78,173.78,11
163,167.68,173.68,11
162,167.57,173.56,11
162,167.46,173.44,11
160,167.31,173.31,11
163,167.22,173.21,11
164,167.16,173.11,11
162,167.05,173.00,11
160,166.91,172.87,11
159,166.76,172.73,11
161,166.64,172.62,11
161,166.53,172.50,11
160,166.40,172.38,11
162,166.31,172.27,11
159,166.16,172.14,11
160,166.04,172.02,11
159,165.90,171.89,11
161,165.80,171.78,11
159,165.66,171.65,11
162,165.59,171.55,11
160,165.48,171.44,11
160,165.37,171.32,11
163,165.32,171.24,11
163,165.28,171.16,11
159,165.15,171.04,11
159,165.03,170.92,11
161,164.95,170.82,11
162,164.89,170.73,11
167,164.93,170.69,11
163,164.89,170.62,11
160,164.79,170.51,11
160,164.70,170.40,11
162,164.64,170.32,11
164,164.63,170.26,11
160,164.54,170.15,11
160,164.45,170.05,11
160,164.36,169.95,11
160,164.27,169.85,11
159,164.17,169.74,11
158,164.04,169.63,11
161,163.98,169.54,11
161,163.92,169.45,11
160,163.84,169.36,11
158,163.73,169.25,11
159,163.63,169.14,11
159,163.54,169.04,11
160,163.47,168.95,11
159,163.38,168.85,11
159,163.29,168.75,11
159,163.21,168.66,11
160,163.14,168.57,11
159,163.06,168.47,11
158,162.96,168.37,11
158,162.86,168.27,11
158,162.76,168.16,11
157,162.65,168.05,11
157,162.53,167.94,11
158,162.44,167.84,11
159,162.37,167.75,11
160,162.33,167.68,11
158,162.24,167.58,11
158,162.16,167.48,11
158,162.07,167.39,11
163,162.09,167.34,11
162,162.09,167.29,11
160,162.05,167.22,11
157,161.95,167.12,11
159,161.89,167.04,11
162,161.89,166.98,11
162,161.89,166.93,11
159,161.83,166.86,11
157,161.74,166.76,11
159,161.68,166.68,11
160,161.65,166.61,11
160,161.62,166.55,11
159,161.56,166.47,11
158,161.49,166.39,11
159,161.44,166.31,11
159,161.39,166.24,11
159,161.35,166.17,11
159,161.30,166.10,11
157,161.21,166.00,11
160,161.19,165.94,11
158,161.12,165.86,11
157,161.04,165.78,11
156,160.94,165.68,11
158,160.88,165.60,11
156,160.79,165.51,11
157,160.71,165.42,11
156,160.62,165.33,11
156,160.52,165.23,11
156,160.43,165.14,11
157,160.36,165.06,11
159,160.34,165.00,11
157,160.27,164.92,11
159,160.24,164.86,11
157,160.18,164.78,11
158,160.14,164.71,11
160,160.13,164.67,11
161,160.15,164.63,11
160,160.15,164.58,11
159,160.12,164.53,11
157,160.06,164.45,11
159,160.04,164.40,11
159,160.02,164.34,11
158,159.98,164.28,11
157,159.92,164.21,11
157,159.86,164.14,11
157,159.80,164.06,11
155,159.71,163.97,11
157,159.65,163.90,11
155,159.56,163.81,11
156,159.49,163.74,11
156,159.42,163.66,11
155,159.33,163.57,11
157,159.29,163.51,11
155,159.20,163.42,11
155,159.12,163.34,11
155,159.03,163.25,11
156,158.97,163.18,11
154,158.87,163.09,11
158,158.86,163.04,11
157,158.82,162.98,11
156,158.76,162.91,11
154,158.67,162.82,11
155,158.59,162.74,11
157,158.56,162.68,11
156,158.51,162.62,11
158,158.50,162.57,11
159,158.51,162.54,11
156,158.46,162.47,11
154,158.37,162.39,11
155,158.30,162.31,11
159,158.32,162.28,11
159,158.33,162.25,11
161,158.38,162.23,11
158,158.38,162.19,11
156,158.33,162.13,11
156,158.28,162.07,11
156,158.24,162.01,11
159,158.25,161.98,11
155,158.19,161.91,11
155,158.12,161.84,11
157,158.10,161.79,11
158,158.10,161.75,11
155,158.04,161.68,11
155,157.98,161.62,11
157,157.96,161.57,11
158,157.96,161.54,11
158,157.96,161.50,11
155,157.90,161.44,11
155,157.84,161.37,11
157,157.82,161.33,11
158,157.83,161.29,11
156,157.79,161.24,11
156,157.76,161.19,11
155,157.70,161.13,11
156,157.67,161.08,11
156,157.63,161.02,11
155,157.58,160.96,11
155,157.53,160.90,11
155,157.48,160.85,11
156,157.45,160.80,11
155,157.40,160.74,11
154,157.33,160.67,11
154,157.27,160.61,11
159,157.30,160.59,11
159,157.33,160.57,11
156,157.31,160.53,11
155,157.26,160.47,11
154,157.20,160.41,11
159,157.23,160.39,11
159,157.27,160.38,11
156,157.24,160.34,11
156,157.22,160.29,11
156,157.19,160.25,11
156,157.17,160.21,11
155,157.13,160.15,11
154,157.06,160.09,11
155,157.02,160.04,11
154,156.96,159.98,11
154,156.90,159.92,11
154,156.84,159.86,11
154,156.79,159.80,11
158,156.81,159.79,11
157,156.82,159.76,11
154,156.76,159.70,11
155,156.72,159.65,11
155,156.69,159.61,11
155,156.66,159.56,11
154,156.60,159.51,11
154,156.55,159.45,11
154,156.50,159.40,11
155,156.47,159.35,11
154,156.42,159.30,11
154,156.37,159.25,11
155,156.34,159.20,11
155,156.32,159.16,11
154,156.27,159.11,11
154,156.23,159.06,11
154,156.18,159.01,11
156,156.18,158.98,11
158,156.21,158.97,11
156,156.21,158.94,11
153,156.15,158.88,11
155,156.12,158.84,11
157,156.14,158.82,11
159,156.20,158.82,11
156,156.19,158.80,11
153,156.13,158.74,11
155,156.11,158.70,11
157,156.12,158.68,11
155,156.10,158.65,11
154,156.06,158.60,11
154,156.02,158.55,11
155,156.00,158.52,11
155,155.98,158.48,11
154,155.94,158.44,11
154,155.90,158.39,11
155,155.88,158.36,11
154,155.84,158.32,11
154,155.81,158.27,11
151,155.71,158.20,11
156,155.72,158.18,11
156,155.72,158.16,11
157,155.75,158.14,11
153,155.69,158.09,11
153,155.64,158.04,11
155,155.63,158.01,11
155,155.61,157.98,11
152,155.54,157.92,11
153,155.49,157.87,11
154,155.46,157.83,11
156,155.47,157.82,11
155,155.46,157.79,11
153,155.41,157.74,11
154,155.39,157.70,11
155,155.38,157.68,11
157,155.41,157.67,11
154,155.38,157.63,11
152,155.31,157.58,11
155,155.31,157.55,11
156,155.32,157.53,11
155,155.32,157.51,11
153,155.27,157.46,11
153,155.22,157.42,11
155,155.22,157.40,11
157,155.25,157.39,11
153,155.21,157.35,11
154,155.19,157.31,11
155,155.18,157.29,11
155,155.18,157.27,11
154,155.15,157.24,11
153,155.11,157.19,11
154,155.09,157.16,11
158,155.15,157.17,11
157,155.18,157.17,11
154,155.16,157.14,11
153,155.12,157.09,11
155,155.12,157.07,11
156,155.13,157.06,11
155,155.13,157.04,11
154,155.11,157.01,11
155,155.11,156.99,11
156,155.12,156.98,11
156,155.14,156.97,11
154,155.12,156.94,11
152,155.06,156.89,11
156,155.07,156.88,11
156,155.09,156.87,11
155,155.09,156.86,11
154,155.07,156.83,11
153,155.03,156.79,11
156,155.05,156.78,11
154,155.03,156.75,11
153,154.99,156.72,11
154,154.97,156.69,11
154,154.95,156.66,11
155,154.95,156.65,11
154,154.93,156.62,11
153,154.89,156.58,11
153,154.85,156.55,11
156,154.88,156.54,11
155,154.88,156.53,11
153,154.84,156.49,11
154,154.82,156.47,11
155,154.83,156.45,11
154,154.81,156.43,11
152,154.75,156.38,11
152,154.70,156.34,11
154,154.69,156.32,11
155,154.69,156.30,11
155,154.70,156.29,11
152,154.64,156.25,11
153,154.61,156.21,11
155,154.62,156.20,11
157,154.67,156.21,11
153,154.63,156.18,11
152,154.58,156.14,11
155,154.59,156.12,11
155,154.60,156.11,11
153,154.57,156.08,11
154,154.55,156.06,11
156,154.58,156.06,11
156,154.61,156.06,11
154,154.60,156.04,11
152,154.55,156.00,11
153,154.52,155.97,11
153,154.49,155.94,11
156,154.52,155.94,11
155,154.53,155.93,11
152,154.48,155.89,11
154,154.47,155.87,11
156,154.50,155.87,11
155,154.51,155.86,11
152,154.46,155.83,11
152,154.41,155.79,11
154,154.40,155.77,11
155,154.41,155.76,11
153,154.38,155.73,11
152,154.34,155.70,11
154,154.33,155.68,11
155,154.34,155.67,11
154,154.34,155.66,11
152,154.29,155.62,11
154,154.28,155.60,11
155,154.30,155.60,11
155,154.31,155.59,11
152,154.26,155.56,11
152,154.22,155.52,11
153,154.20,155.50,11
155,154.21,155.49,11
154,154.21,155.48,11
152,154.16,155.44,11
152,154.12,155.41,11
154,154.12,155.39,11
156,154.15,155.40,11
152,154.11,155.36,11
155,154.13,155.36,11
154,154.13,155.35,11
155,154.14,155.34,11
154,154.14,155.33,11
152,154.10,155.30,11
153,154.08,155.27,11
154,154.08,155.26,11
153,154.05,155.24,11
152,154.01,155.21,11
153,153.99,155.18,11
155,154.01,155.18,11
155,154.03,155.18,11
155,154.05,155.18,11
152,154.01,155.15,11
154,154.01,155.14,11
157,154.07,155.15,11
154,154.07,155.14,11
153,154.05,155.12,11
153,154.03,155.10,11
156,154.07,155.11,11
156,154.10,155.12,11
153,154.08,155.10,11
153,154.06,155.08,11
153,154.04,155.06,11
155,154.06,155.05,11
157,154.12,155.07,11
153,154.10,155.05,11
154,154.09,155.04,11
154,154.09,155.03,11
155,154.11,155.03,11
154,154.11,155.02,11
152,154.07,154.99,11
155,154.08,154.99,11
157,154.14,155.01,11
155,154.16,155.01,11
152,154.12,154.98,11
153,154.09,154.96,11
156,154.13,154.97,11
156,154.17,154.98,11
154,154.17,154.97,11
153,154.14,154.95,11
155,154.16,154.95,11
157,154.22,154.97,11
156,154.25,154.98,11
154,154.25,154.97,11
155,154.26,154.97,11
155,154.28,154.97,11
154,154.27,154.96,11
154,154.27,154.96,11
153,154.24,154.94,11
156,154.28,154.95,11
158,154.35,154.98,11
153,154.32,154.96,11
153,154.30,154.94,11
154,154.29,154.93,11
155,154.31,154.93,11
155,154.32,154.93,11
154,154.31,154.92,11
153,154.29,154.90,11
154,154.28,154.89,11
156,154.32,154.90,11
153,154.29,154.88,11
152,154.24,154.86,11
153,154.22,154.84,11
155,154.23,154.84,11
155,154.25,154.84,11
153,154.22,154.82,11
152,154.18,154.79,11
155,154.20,154.80,11
156,154.23,154.81,11
151,154.17,154.77,11
152,154.12,154.74,11
153,154.10,154.72,11
156,154.14,154.74,11
156,154.18,154.75,11
154,154.17,154.74,11
153,154.15,154.72,11
155,154.17,154.73,11
154,154.16,154.72,11
154,154.16,154.71,11
152,154.12,154.69,11
156,154.15,154.70,11
156,154.19,154.71,11
156,154.23,154.72,11
153,154.20,154.71,11
153,154.18,154.69,11
156,154.22,154.70,11
155,154.23,154.71,11
154,154.23,154.70,11
153,154.20,154.68,11
154,154.20,154.68,11
157,154.25,154.70,11
155,154.27,154.70,11
152,154.22,154.67,11
154,154.22,154.67,11
155,154.23,154.67,11
156,154.27,154.68,11
152,154.22,154.66,11
152,154.18,154.63,11
156,154.22,154.65,11
156,154.25,154.66,11
155,154.27,154.66,11
153,154.24,154.65,11
153,154.22,154.63,11
156,154.25,154.64,11
153,154.23,154.63,11
153,154.20,154.61,11
153,154.18,154.59,11
154,154.18,154.59,11
155,154.19,154.59,11
154,154.19,154.59,11
152,154.14,154.56,11
153,154.12,154.54,11
155,154.14,154.55,11
156,154.18,154.56,11
153,154.15,154.55,11
152,154.11,154.52,11
154,154.11,154.52,11
155,154.13,154.52,11
154,154.12,154.52,11
153,154.10,154.50,11
154,154.10,154.50,11
156,154.14,154.51,11
155,154.15,154.52,11
153,154.13,154.50,11
154,154.13,154.50,11
155,154.15,154.50,11
155,154.16,154.51,11
154,154.16,154.50,11
154,154.16,154.50,11
154,154.15,154.49,11
156,154.19,154.51,11
153,154.17,154.49,11
152,154.12,154.47,11
153,154.10,154.45,11
155,154.12,154.46,11
155,154.14,154.46,11
156,154.17,154.48,11
152,154.13,154.45,11
154,154.13,154.45,11
156,154.16,154.46,11
154,154.16,154.46,11
152,154.12,154.44,11
153,154.10,154.42,11
154,154.09,154.42,11
155,154.11,154.42,11
154,154.11,154.42,11
152,154.07,154.39,11
153,154.05,154.38,11
156,154.09,154.40,11
155,154.10,154.40,11
152,154.06,154.38,11
153,154.04,154.36,11
156,154.08,154.38,11
154,154.08,154.38,11
153,154.06,154.36,11
153,154.04,154.35,11
155,154.05,154.36,11
155,154.07,154.36,11
155,154.09,154.37,11
152,154.05,154.35,11
153,154.03,154.33,11
