Teste de posicionamento 3(EMG tendao-inervacao (Vermelho A, Verde C) + Ref no pulso) - 16/09/2024 - teste5 - 5 contrações
long frequencia = 1000;                 //frequência de aquisição do sinal, neste caso, 1000 sinais por segundo
float fator1 = 0.02, fator2 = 0.01;
float incerteza = 0.13;
float pico_basal = 130; // Mínimo para ser considerado um pico de contração
int filtro_horizontal=200000; //intervalo de 200ms valores não pode ter mais de 1 contração

Biceps_D,mediaMovel_1,mediaMovel_2,Contracao
142,2.84,1.42,0
144,5.66,2.85,0
145,8.45,4.27,0
144,11.16,5.66,0
144,13.82,7.05,0
142,16.38,8.40,0
143,18.91,9.74,0
144,21.42,11.09,0
146,23.91,12.44,0
145,26.33,13.76,0
141,28.62,15.03,0
141,30.87,16.29,0
143,33.11,17.56,0
143,35.31,18.81,0
145,37.50,20.08,0
143,39.61,21.31,0
142,41.66,22.51,0
143,43.69,23.72,0
144,45.69,24.92,0
145,47.68,26.12,0
143,49.59,27.29,0
141,51.42,28.43,0
143,53.25,29.57,0
143,55.04,30.71,0
147,56.88,31.87,0
143,58.60,32.98,0
141,60.25,34.06,0
142,61.89,35.14,0
143,63.51,36.22,0
145,65.14,37.31,0
144,66.72,38.37,0
142,68.22,39.41,0
142,69.70,40.44,0
143,71.16,41.46,0
145,72.64,42.50,0
145,74.09,43.52,0
142,75.45,44.51,0
143,76.80,45.49,0
143,78.12,46.47,0
145,79.46,47.45,0
144,80.75,48.42,0
142,81.97,49.35,0
142,83.17,50.28,0
143,84.37,51.21,0
146,85.60,52.16,0
145,86.79,53.08,0
143,87.92,53.98,0
141,88.98,54.85,0
143,90.06,55.73,0
143,91.12,56.61,0
145,92.19,57.49,0
143,93.21,58.35,0
143,94.21,59.19,0
142,95.16,60.02,0
143,96.12,60.85,0
148,97.16,61.72,0
145,98.11,62.55,0
142,98.99,63.35,0
143,99.87,64.15,0
142,100.71,64.92,0
146,101.62,65.74,0
142,102.43,66.50,0
141,103.20,67.24,0
142,103.97,67.99,0
142,104.74,68.73,0
144,105.52,69.48,0
143,106.27,70.22,0
141,106.96,70.93,0
142,107.67,71.64,0
143,108.37,72.35,0
144,109.08,73.07,0
140,109.70,73.74,0
141,110.33,74.41,0
142,110.96,75.08,0
143,111.60,75.76,0
142,112.21,76.43,0
142,112.81,77.08,0
142,113.39,77.73,0
142,113.96,78.37,0
143,114.54,79.02,0
144,115.13,79.67,0
141,115.65,80.28,0
141,116.16,80.89,0
141,116.65,81.49,0
143,117.18,82.11,0
143,117.70,82.72,0
141,118.16,83.30,0
140,118.60,83.87,0
142,119.07,84.45,0
144,119.57,85.04,0
145,120.08,85.64,0
140,120.47,86.19,0
141,120.88,86.73,0
142,121.31,87.29,0
144,121.76,87.85,0
142,122.17,88.39,0
141,122.54,88.92,0
141,122.91,89.44,0
142,123.29,89.97,0
144,123.71,90.51,0
143,124.09,91.03,0
140,124.41,91.52,0
142,124.76,92.03,0
142,125.11,92.53,0
144,125.49,93.04,0
142,125.82,93.53,0
141,126.12,94.01,0
143,126.46,94.50,0
143,126.79,94.98,0
143,127.11,95.46,0
142,127.41,95.93,0
140,127.66,96.37,0
142,127.95,96.82,0
143,128.25,97.29,0
145,128.58,97.76,0
142,128.85,98.20,0
140,129.08,98.62,0
146,129.41,99.10,0
142,129.67,99.53,0
144,129.95,99.97,0
142,130.19,100.39,0
141,130.41,100.80,0
142,130.64,101.21,0
143,130.89,101.63,0
146,131.19,102.07,0
141,131.39,102.46,0
141,131.58,102.85,0
142,131.79,103.24,0
145,132.05,103.65,0
143,132.27,104.05,0
141,132.45,104.42,0
141,132.62,104.78,0
143,132.82,105.17,0
143,133.03,105.54,0
142,133.21,105.91,0
141,133.36,106.26,0
141,133.52,106.61,0
145,133.75,106.99,0
143,133.93,107.35,0
142,134.09,107.70,0
140,134.21,108.02,0
142,134.37,108.36,0
143,134.54,108.71,0
143,134.71,109.05,0
141,134.83,109.37,0
141,134.96,109.68,0
143,135.12,110.02,0
144,135.30,110.36,0
142,135.43,110.67,0
141,135.54,110.98,0
142,135.67,111.29,0
143,135.82,111.60,0
143,135.96,111.92,0
141,136.06,112.21,0
141,136.16,112.50,0
141,136.26,112.78,0
143,136.39,113.08,0
141,136.48,113.36,0
141,136.57,113.64,0
141,136.66,113.91,0
142,136.77,114.19,0
144,136.91,114.49,0
142,137.02,114.77,0
141,137.10,115.03,0
142,137.19,115.30,0
143,137.31,115.58,0
143,137.42,115.85,0
141,137.50,116.10,0
143,137.61,116.37,0
143,137.71,116.64,0
143,137.82,116.90,0
143,137.92,117.16,0
141,137.98,117.40,0
140,138.02,117.63,0
143,138.12,117.88,0
145,138.26,118.15,0
141,138.32,118.38,0
141,138.37,118.61,0
141,138.42,118.83,0
143,138.51,119.07,0
143,138.60,119.31,0
141,138.65,119.53,0
140,138.68,119.73,0
141,138.73,119.95,0
144,138.83,120.19,0
142,138.89,120.40,0
141,138.94,120.61,0
141,138.98,120.81,0
142,139.04,121.03,0
141,139.08,121.23,0
142,139.14,121.43,0
139,139.13,121.61,0
141,139.17,121.80,0
143,139.25,122.02,0
142,139.30,122.22,0
140,139.32,122.39,0
141,139.35,122.58,0
142,139.40,122.77,0
143,139.47,122.98,0
142,139.53,123.17,0
140,139.53,123.33,0
141,139.56,123.51,0
141,139.59,123.69,0
144,139.68,123.89,0
141,139.71,124.06,0
140,139.71,124.22,0
139,139.70,124.37,0
142,139.74,124.54,0
141,139.77,124.71,0
140,139.77,124.86,0
141,139.80,125.02,0
141,139.82,125.18,0
143,139.89,125.36,0
141,139.91,125.52,0
140,139.91,125.66,0
141,139.93,125.81,0
141,139.95,125.97,0
143,140.01,126.14,0
140,140.01,126.28,0
138,139.97,126.39,0
141,139.99,126.54,0
141,140.01,126.68,0
141,140.03,126.83,0
139,140.01,126.95,0
139,139.99,127.07,0
140,139.99,127.20,0
142,140.03,127.35,0
143,140.09,127.50,0
139,140.07,127.62,0
141,140.09,127.75,0
142,140.13,127.89,0
142,140.17,128.04,0
140,140.16,128.15,0
141,140.18,128.28,0
139,140.16,128.39,0
143,140.21,128.54,0
141,140.23,128.66,0
140,140.22,128.77,0
141,140.24,128.90,0
141,140.25,129.02,0
143,140.31,129.16,0
141,140.32,129.28,0
140,140.32,129.38,0
141,140.33,129.50,0
143,140.38,129.63,0
144,140.46,129.78,0
143,140.51,129.91,0
140,140.50,130.01,0
141,140.51,130.12,0
143,140.56,130.25,0
141,140.57,130.36,0
139,140.53,130.44,0
140,140.52,130.54,0
141,140.53,130.64,0
141,140.54,130.75,0
139,140.51,130.83,0
141,140.52,130.93,0
140,140.51,131.02,0
142,140.54,131.13,0
144,140.61,131.26,0
140,140.60,131.35,0
141,140.61,131.44,0
143,140.65,131.56,0
143,140.70,131.67,0
142,140.73,131.78,0
140,140.71,131.86,0
139,140.68,131.93,0
141,140.68,132.02,0
143,140.73,132.13,0
141,140.74,132.22,0
139,140.70,132.29,0
141,140.71,132.38,0
142,140.73,132.47,0
147,140.86,132.62,0
141,140.86,132.70,0
139,140.82,132.76,0
141,140.83,132.85,0
142,140.85,132.94,0
142,140.87,133.03,0
140,140.86,133.10,0
141,140.86,133.18,0
141,140.86,133.26,0
141,140.87,133.33,0
139,140.83,133.39,0
141,140.83,133.47,0
140,140.81,133.53,0
143,140.86,133.63,0
143,140.90,133.72,0
141,140.90,133.79,0
138,140.85,133.83,0
141,140.85,133.91,0
143,140.89,134.00,0
143,140.93,134.09,0
141,140.93,134.16,0
140,140.92,134.21,0
141,140.92,134.28,0
143,140.96,134.37,0
141,140.96,134.44,0
140,140.94,134.49,0
141,140.94,134.56,0
142,140.96,134.63,0
143,141.00,134.71,0
140,140.98,134.77,0
142,141.00,134.84,0
141,141.00,134.90,0
144,141.06,134.99,0
143,141.10,135.07,0
140,141.08,135.12,0
140,141.06,135.17,0
141,141.06,135.23,0
143,141.10,135.31,0
142,141.11,135.37,0
140,141.09,135.42,0
140,141.07,135.47,0
143,141.11,135.54,0
141,141.11,135.60,0
140,141.09,135.64,0
140,141.06,135.68,0
141,141.06,135.74,0
141,141.06,135.79,0
143,141.10,135.86,0
139,141.06,135.89,0
141,141.06,135.94,0
140,141.04,135.98,0
141,141.03,136.03,0
141,141.03,136.08,0
141,141.03,136.13,0
139,140.99,136.16,0
141,140.99,136.21,0
143,141.03,136.28,0
139,140.99,136.31,0
141,140.99,136.35,0
141,140.99,136.40,0
143,141.03,136.46,0
141,141.03,136.51,0
141,141.03,136.56,0
141,141.03,136.60,0
143,141.07,136.66,0
143,141.11,136.73,0
141,141.11,136.77,0
141,141.10,136.81,0
141,141.10,136.85,0
141,141.10,136.90,0
143,141.14,136.96,0
140,141.12,136.99,0
139,141.07,137.01,0
141,141.07,137.05,0
141,141.07,137.09,0
141,141.07,137.13,0
139,141.03,137.14,0
140,141.01,137.17,0
140,140.99,137.20,0
141,140.99,137.24,0
139,140.95,137.26,0
140,140.93,137.28,0
139,140.89,137.30,0
139,140.85,137.32,0
141,140.86,137.36,0
140,140.84,137.38,0
139,140.80,137.40,0
140,140.79,137.42,0
141,140.79,137.46,0
141,140.79,137.49,0
141,140.80,137.53,0
138,140.74,137.53,0
140,140.73,137.56,0
139,140.69,137.57,0
139,140.66,137.59,0
137,140.59,137.58,0
139,140.55,137.60,0
139,140.52,137.61,0
140,140.51,137.63,0
137,140.44,137.63,0
139,140.41,137.64,0
141,140.43,137.68,0
143,140.48,137.73,0
140,140.47,137.75,0
139,140.44,137.76,0
137,140.37,137.76,0
140,140.36,137.78,0
143,140.41,137.83,0
140,140.41,137.85,0
138,140.36,137.85,0
135,140.25,137.83,0
140,140.25,137.85,0
139,140.22,137.86,0
139,140.20,137.87,0
141,140.21,137.90,0
140,140.21,137.92,0
141,140.22,137.95,0
140,140.22,137.97,0
139,140.20,137.98,0
141,140.21,138.01,0
141,140.23,138.04,0
143,140.28,138.09,0
141,140.30,138.12,0
139,140.27,138.13,0
141,140.29,138.16,0
141,140.30,138.19,0
142,140.33,138.23,0
139,140.31,138.23,0
141,140.32,138.26,0
140,140.31,138.28,0
141,140.33,138.31,0
139,140.30,138.31,0
139,140.28,138.32,0
137,140.21,138.31,0
139,140.19,138.31,0
141,140.20,138.34,0
143,140.26,138.39,0
139,140.23,138.39,0
139,140.21,138.40,0
139,140.18,138.41,0
143,140.24,138.45,0
141,140.26,138.48,0
139,140.23,138.48,0
139,140.21,138.49,0
142,140.24,138.52,0
138,140.20,138.52,0
138,140.15,138.51,0
137,140.09,138.50,0
137,140.03,138.48,0
142,140.07,138.52,0
141,140.09,138.54,0
139,140.06,138.55,0
139,140.04,138.55,0
141,140.06,138.58,0
140,140.06,138.59,0
139,140.04,138.59,0
139,140.02,138.60,0
141,140.04,138.62,0
141,140.06,138.65,0
143,140.12,138.69,0
141,140.13,138.71,0
139,140.11,138.72,0
143,140.17,138.76,0
148,140.33,138.85,0
144,140.40,138.90,0
140,140.39,138.91,0
141,140.40,138.93,0
141,140.42,138.95,0
140,140.41,138.97,0
141,140.42,138.99,0
141,140.43,139.01,0
141,140.44,139.03,0
139,140.41,139.03,0
142,140.45,139.06,0
139,140.42,139.05,0
140,140.41,139.06,0
139,140.38,139.06,0
140,140.37,139.07,0
139,140.34,139.07,0
138,140.30,139.06,0
139,140.27,139.06,0
143,140.33,139.10,0
146,140.44,139.17,0
141,140.45,139.19,0
139,140.42,139.19,0
142,140.45,139.21,0
145,140.54,139.27,0
148,140.69,139.36,0
143,140.74,139.40,0
141,140.75,139.41,0
143,140.79,139.45,0
141,140.79,139.46,0
141,140.80,139.48,0
141,140.80,139.49,0
143,140.85,139.53,0
142,140.87,139.55,0
143,140.91,139.59,0
143,140.95,139.62,0
143,140.99,139.66,0
141,141.00,139.67,0
143,141.04,139.70,0
140,141.01,139.71,0
144,141.07,139.75,0
143,141.11,139.78,0
142,141.13,139.80,0
143,141.17,139.83,0
141,141.16,139.85,0
145,141.24,139.90,0
141,141.24,139.91,0
143,141.27,139.94,0
145,141.35,139.99,0
142,141.36,140.01,0
141,141.35,140.02,0
141,141.35,140.03,0
141,141.34,140.04,0
141,141.33,140.05,0
141,141.32,140.06,0
144,141.38,140.10,0
141,141.37,140.11,0
141,141.36,140.12,0
143,141.40,140.15,0
142,141.41,140.16,0
143,141.44,140.19,0
144,141.49,140.23,0
145,141.56,140.28,0
141,141.55,140.29,0
145,141.62,140.33,0
141,141.61,140.34,0
143,141.63,140.37,0
146,141.72,140.42,0
143,141.75,140.45,0
143,141.77,140.47,0
143,141.80,140.50,0
143,141.82,140.52,0
144,141.86,140.56,0
142,141.87,140.57,0
141,141.85,140.58,0
142,141.85,140.59,0
142,141.86,140.61,0
141,141.84,140.61,0
141,141.82,140.61,0
143,141.85,140.64,0
141,141.83,140.64,0
142,141.83,140.65,0
143,141.86,140.68,0
143,141.88,140.70,0
142,141.88,140.71,0
143,141.90,140.74,0
141,141.89,140.74,0
144,141.93,140.77,0
141,141.91,140.77,0
140,141.87,140.77,0
141,141.85,140.77,0
144,141.90,140.80,0
141,141.88,140.80,0
145,141.94,140.85,0
143,141.96,140.87,0
145,142.02,140.91,0
141,142.00,140.91,0
143,142.02,140.93,0
141,142.00,140.93,0
141,141.98,140.93,0
141,141.96,140.93,0
141,141.94,140.93,0
143,141.96,140.95,0
141,141.94,140.95,0
142,141.95,140.96,0
141,141.93,140.96,0
141,141.91,140.97,0
141,141.89,140.97,0
140,141.85,140.96,0
141,141.84,140.96,0
140,141.80,140.95,0
139,141.74,140.93,0
139,141.69,140.91,0
143,141.71,140.93,0
143,141.74,140.95,0
143,141.77,140.97,0
142,141.77,140.98,0
141,141.75,140.98,0
139,141.70,140.96,0
143,141.73,140.98,0
141,141.71,140.98,0
141,141.70,140.98,0
148,141.82,141.05,0
144,141.87,141.08,0
149,142.01,141.16,0
142,142.01,141.17,0
141,141.99,141.17,0
144,142.03,141.20,0
141,142.01,141.19,0
146,142.09,141.24,0
148,142.21,141.31,0
143,142.22,141.33,0
151,142.40,141.42,0
149,142.53,141.50,0
147,142.62,141.55,0
145,142.67,141.59,0
157,142.95,141.74,0
157,143.23,141.89,0
150,143.37,141.98,0
149,143.48,142.05,0
149,143.59,142.12,0
153,143.78,142.22,0
149,143.89,142.29,0
149,143.99,142.36,0
147,144.05,142.41,0
149,144.15,142.47,0
151,144.28,142.56,0
149,144.38,142.62,0
147,144.43,142.67,0
149,144.52,142.73,0
146,144.55,142.76,0
149,144.64,142.82,0
147,144.69,142.87,0
149,144.77,142.93,0
149,144.86,142.99,0
148,144.92,143.04,0
147,144.96,143.08,0
151,145.08,143.16,0
151,145.20,143.23,0
149,145.28,143.29,0
148,145.33,143.34,0
147,145.37,143.38,0
150,145.46,143.44,0
147,145.49,143.48,0
153,145.64,143.57,0
149,145.71,143.63,0
149,145.77,143.68,0
147,145.80,143.71,0
151,145.90,143.79,0
148,145.94,143.83,0
151,146.04,143.90,0
148,146.08,143.94,0
151,146.18,144.01,0
148,146.22,144.05,0
154,146.37,144.15,0
148,146.41,144.19,0
149,146.46,144.24,0
148,146.49,144.28,0
150,146.56,144.33,0
149,146.61,144.38,0
148,146.64,144.42,0
151,146.72,144.48,0
151,146.81,144.55,0
155,146.97,144.65,0
149,147.01,144.70,0
151,147.09,144.76,0
152,147.19,144.83,0
154,147.33,144.92,0
150,147.38,144.97,0
149,147.41,145.01,0
151,147.48,145.07,0
149,147.52,145.11,0
152,147.60,145.18,0
149,147.63,145.22,0
154,147.76,145.31,0
155,147.90,145.40,0
149,147.93,145.44,0
155,148.07,145.54,0
150,148.11,145.58,0
149,148.12,145.61,0
149,148.14,145.65,0
159,148.36,145.78,0
152,148.43,145.84,0
152,148.50,145.91,0
157,148.67,146.02,0
158,148.86,146.14,0
158,149.04,146.26,0
155,149.16,146.34,0
161,149.40,146.49,0
159,149.59,146.61,0
159,149.78,146.74,0
157,149.92,146.84,0
157,150.06,146.94,0
160,150.26,147.07,0
157,150.40,147.17,0
155,150.49,147.25,0
159,150.66,147.37,0
157,150.79,147.46,0
158,150.93,147.57,0
155,151.01,147.64,0
158,151.15,147.75,0
155,151.23,147.82,0
155,151.31,147.89,0
157,151.42,147.98,0
158,151.55,148.08,0
156,151.64,148.16,0
165,151.91,148.33,0
157,152.01,148.42,0
157,152.11,148.50,0
156,152.19,148.58,0
159,152.32,148.68,0
155,152.38,148.75,0
160,152.53,148.86,0
159,152.66,148.96,0
167,152.94,149.14,0
157,153.03,149.22,0
164,153.25,149.37,0
165,153.48,149.52,0
161,153.63,149.64,0
159,153.74,149.73,0
158,153.82,149.81,0
161,153.97,149.93,0
169,154.27,150.12,0
167,154.52,150.29,0
160,154.63,150.38,0
165,154.84,150.53,0
163,155.00,150.65,0
167,155.24,150.82,0
165,155.44,150.96,0
161,155.55,151.06,0
168,155.80,151.23,0
168,156.04,151.40,0
165,156.22,151.53,0
172,156.54,151.74,0
167,156.75,151.89,0
165,156.91,152.02,0
165,157.07,152.15,0
165,157.23,152.28,0
169,157.47,152.45,0
167,157.66,152.59,0
165,157.80,152.72,0
174,158.13,152.93,0
169,158.35,153.09,0
169,158.56,153.25,0
173,158.85,153.45,0
167,159.01,153.58,0
171,159.25,153.76,0
173,159.53,153.95,0
173,159.79,154.14,0
167,159.94,154.27,0
173,160.20,154.45,0
173,160.46,154.64,0
174,160.73,154.83,0
169,160.89,154.98,0
169,161.05,155.12,0
172,161.27,155.28,0
173,161.51,155.46,0
174,161.76,155.65,0
176,162.04,155.85,0
172,162.24,156.01,0
170,162.40,156.15,0
177,162.69,156.36,0
175,162.94,156.55,0
173,163.14,156.71,0
171,163.29,156.85,0
177,163.57,157.06,0
173,163.76,157.22,0
172,163.92,157.36,0
174,164.12,157.53,0
175,164.34,157.70,0
177,164.59,157.90,0
181,164.92,158.13,0
172,165.06,158.27,0
173,165.22,158.41,0
176,165.44,158.59,0
181,165.75,158.81,0
178,165.99,159.01,0
175,166.17,159.17,0
185,166.55,159.42,0
185,166.92,159.68,0
184,167.26,159.92,0
186,167.64,160.18,0
188,168.04,160.46,0
181,168.30,160.67,0
181,168.56,160.87,0
182,168.83,161.08,0
189,169.23,161.36,0
189,169.62,161.64,0
189,170.01,161.91,0
190,170.41,162.19,0
185,170.70,162.42,0
193,171.15,162.73,0
190,171.53,163.00,0
185,171.80,163.22,0
187,172.10,163.46,0
186,172.38,163.68,0
185,172.63,163.90,0
191,173.00,164.17,0
184,173.22,164.36,0
191,173.57,164.63,0
193,173.96,164.91,0
193,174.34,165.20,0
187,174.60,165.41,0
191,174.92,165.67,0
188,175.19,165.89,0
198,175.64,166.21,0
194,176.01,166.49,0
191,176.31,166.74,0
192,176.62,166.99,0
188,176.85,167.20,0
190,177.11,167.43,0
192,177.41,167.67,0
195,177.76,167.95,0
190,178.01,168.17,0
197,178.39,168.46,0
192,178.66,168.69,0
195,178.99,168.95,0
189,179.19,169.15,0
192,179.44,169.38,0
195,179.75,169.64,0
200,180.16,169.94,0
197,180.50,170.21,0
193,180.75,170.44,0
193,180.99,170.67,0
196,181.29,170.92,0
193,181.53,171.14,0
193,181.75,171.36,0
191,181.94,171.56,0
191,182.12,171.75,0
191,182.30,171.94,0
191,182.47,172.13,0
192,182.66,172.33,0
192,182.85,172.53,0
192,183.03,172.72,0
196,183.29,172.96,0
194,183.51,173.17,0
195,183.74,173.38,0
197,184.00,173.62,0
196,184.24,173.84,0
197,184.50,174.08,0
193,184.67,174.27,0
191,184.79,174.43,0
199,185.08,174.68,0
191,185.20,174.84,0
191,185.31,175.00,0
193,185.47,175.18,0
193,185.62,175.36,0
199,185.88,175.60,0
199,186.15,175.83,0
195,186.32,176.02,0
192,186.44,176.18,0
193,186.57,176.35,0
194,186.72,176.53,0
192,186.82,176.68,0
193,186.95,176.85,0
191,187.03,176.99,0
191,187.11,177.13,0
193,187.22,177.29,0
192,187.32,177.43,0
193,187.43,177.59,0
193,187.55,177.74,0
195,187.69,177.92,0
191,187.76,178.05,0
192,187.85,178.19,0
192,187.93,178.32,0
191,187.99,178.45,0
193,188.09,178.60,0
189,188.11,178.70,0
189,188.13,178.80,0
192,188.20,178.94,0
189,188.22,179.04,0
194,188.33,179.19,0
192,188.41,179.31,0
189,188.42,179.41,0
189,188.43,179.51,0
188,188.42,179.59,0
189,188.43,179.69,0
189,188.45,179.78,0
188,188.44,179.86,0
188,188.43,179.94,0
188,188.42,180.02,0
187,188.39,180.09,0
187,188.36,180.16,0
186,188.32,180.22,0
187,188.29,180.29,0
185,188.22,180.34,0
188,188.22,180.41,0
185,188.16,180.46,0
185,188.09,180.50,0
185,188.03,180.55,0
185,187.97,180.59,0
184,187.89,180.63,0
183,187.79,180.65,0
183,187.70,180.67,0
183,187.60,180.70,0
181,187.47,180.70,0
185,187.42,180.74,0
183,187.33,180.77,0
186,187.31,180.82,0
187,187.30,180.88,0
186,187.27,180.93,0
186,187.25,180.98,0
189,187.28,181.06,0
185,187.24,181.10,0
185,187.19,181.14,0
185,187.15,181.18,0
183,187.07,181.20,0
183,186.98,181.22,0
183,186.91,181.23,0
182,186.81,181.24,0
182,186.71,181.25,0
181,186.60,181.25,0
181,186.48,181.24,0
181,186.38,181.24,0
183,186.31,181.26,0
179,186.16,181.24,0
179,186.02,181.21,0
179,185.88,181.19,0
181,185.78,181.19,0
180,185.66,181.18,0
180,185.55,181.17,0
178,185.40,181.13,0
180,185.29,181.12,0
179,185.17,181.10,0
181,185.08,181.10,0
181,185.00,181.10,0
178,184.86,181.07,0
177,184.70,181.03,0
180,184.61,181.02,0
177,184.46,180.98,0
177,184.31,180.94,0
177,184.16,180.90,0
175,183.98,180.84,0
177,183.84,180.80,0
175,183.66,180.74,0
175,183.49,180.69,0
175,183.32,180.63,0
175,183.15,180.57,0
175,182.99,180.52,0
174,182.81,180.45,0
174,182.63,180.39,0
173,182.44,180.31,0
173,182.25,180.24,0
173,182.07,180.17,0
173,181.89,180.10,0
171,181.67,180.01,0
174,181.52,179.95,0
173,181.35,179.88,0
173,181.18,179.81,0
171,180.97,179.72,0
173,180.82,179.65,0
172,180.64,179.58,0
173,180.49,179.51,0
170,180.28,179.41,0
171,180.09,179.33,0
171,179.91,179.25,0
172,179.75,179.17,0
170,179.56,179.08,0
169,179.34,178.98,0
169,179.14,178.88,0
169,178.94,178.78,0
170,178.76,178.70,1
169,178.56,178.60,1
168,178.35,178.49,1
168,178.14,178.39,1
168,177.94,178.28,1
168,177.74,178.18,1
169,177.57,178.09,1
167,177.36,177.98,1
167,177.15,177.87,1
168,176.97,177.77,1
167,176.77,177.66,1
166,176.55,177.55,1
166,176.34,177.43,1
165,176.11,177.31,1
167,175.93,177.20,1
167,175.75,177.10,1
164,175.52,176.97,1
166,175.33,176.86,1
166,175.14,176.75,1
165,174.94,176.63,1
165,174.74,176.52,1
164,174.52,176.39,1
163,174.29,176.26,1
165,174.11,176.15,1
165,173.93,176.03,1
162,173.69,175.89,1
164,173.49,175.77,1
164,173.30,175.66,1
163,173.10,175.53,1
162,172.88,175.40,1
161,172.64,175.25,1
161,172.40,175.11,1
163,172.22,174.99,1
163,172.03,174.87,1
161,171.81,174.73,1
161,171.60,174.59,1
161,171.38,174.46,1
161,171.18,174.32,1
161,170.97,174.19,1
159,170.73,174.04,1
160,170.52,173.90,1
159,170.29,173.75,1
160,170.08,173.61,1
159,169.86,173.46,1
160,169.66,173.33,1
158,169.43,173.18,1
159,169.22,173.03,1
163,169.10,172.93,1
159,168.90,172.79,1
157,168.66,172.64,1
158,168.44,172.49,1
159,168.26,172.35,1
158,168.05,172.21,1
157,167.83,172.06,1
157,167.61,171.91,1
157,167.40,171.76,1
158,167.21,171.62,1
159,167.05,171.50,1
157,166.85,171.35,1
157,166.65,171.21,1
157,166.46,171.07,1
158,166.29,170.93,1
156,166.08,170.79,1
153,165.82,170.61,1
157,165.64,170.47,1
157,165.47,170.34,1
157,165.30,170.20,1
155,165.10,170.05,1
155,164.89,169.90,1
157,164.74,169.77,1
157,164.58,169.64,1
155,164.39,169.50,1
155,164.20,169.35,1
155,164.02,169.21,1
154,163.82,169.06,1
155,163.64,168.92,1
155,163.47,168.78,1
153,163.26,168.62,1
154,163.07,168.47,1
155,162.91,168.34,1
155,162.75,168.21,1
153,162.56,168.05,1
153,162.37,167.90,1
153,162.18,167.75,1
155,162.04,167.63,1
153,161.86,167.48,1
152,161.66,167.33,1
153,161.49,167.18,1
152,161.30,167.03,1
153,161.13,166.89,1
152,160.95,166.74,1
151,160.75,166.58,1
151,160.55,166.43,1
152,160.38,166.28,1
152,160.21,166.14,1
151,160.03,165.99,1
151,159.85,165.84,1
151,159.67,165.69,1
152,159.52,165.55,1
151,159.35,165.41,1
149,159.14,165.24,1
150,158.96,165.09,1
153,158.84,164.97,1
150,158.66,164.82,1
151,158.51,164.68,1
149,158.32,164.53,1
149,158.13,164.37,1
150,157.97,164.23,1
151,157.83,164.09,1
149,157.65,163.94,1
149,157.48,163.79,1
149,157.31,163.65,1
149,157.15,163.50,1
151,157.02,163.38,1
147,156.82,163.21,1
149,156.67,163.07,1
149,156.51,162.93,1
149,156.36,162.79,1
148,156.20,162.64,1
148,156.03,162.49,1
147,155.85,162.34,1
148,155.69,162.20,1
147,155.52,162.04,1
146,155.33,161.88,1
147,155.16,161.74,1
147,155.00,161.59,1
148,154.86,161.45,1
145,154.66,161.29,1
145,154.47,161.12,1
148,154.34,160.99,1
149,154.23,160.87,1
148,154.11,160.74,1
146,153.95,160.60,1
147,153.81,160.46,1
147,153.67,160.33,1
147,153.54,160.19,1
148,153.43,160.07,1
145,153.26,159.92,1
145,153.09,159.77,1
145,152.93,159.62,1
147,152.81,159.50,1
145,152.66,159.35,1
145,152.50,159.21,1
144,152.33,159.06,1
144,152.17,158.91,1
145,152.02,158.77,1
144,151.86,158.62,1
143,151.69,158.46,1
143,151.51,158.31,1
143,151.34,158.16,1
143,151.17,158.00,1
143,151.01,157.85,1
142,150.83,157.70,1
143,150.67,157.55,1
145,150.56,157.42,1
143,150.41,157.28,1
143,150.26,157.14,1
146,150.18,157.02,1
145,150.07,156.90,1
145,149.97,156.79,1
141,149.79,156.63,1
142,149.64,156.48,1
143,149.50,156.35,1
145,149.41,156.23,1
144,149.31,156.11,1
143,149.18,155.98,1
142,149.04,155.84,1
143,148.91,155.71,1
143,148.80,155.58,1
142,148.66,155.45,1
141,148.51,155.30,1
141,148.36,155.16,1
143,148.25,155.04,1
144,148.17,154.93,1
143,148.06,154.81,1
141,147.92,154.67,1
141,147.78,154.53,1
141,147.65,154.40,1
142,147.53,154.28,1
141,147.40,154.14,1
140,147.25,154.00,1
141,147.13,153.87,1
141,147.01,153.74,1
139,146.85,153.60,1
141,146.73,153.47,1
141,146.62,153.34,1
142,146.52,153.23,1
141,146.41,153.11,1
141,146.30,152.99,1
141,146.20,152.87,1
141,146.09,152.75,1
145,146.07,152.67,1
145,146.05,152.60,1
143,145.99,152.50,1
141,145.89,152.38,1
142,145.81,152.28,1
145,145.80,152.21,1
143,145.74,152.12,1
143,145.69,152.02,1
141,145.59,151.91,1
141,145.50,151.80,1
141,145.41,151.70,1
140,145.30,151.58,1
140,145.20,151.46,1
142,145.13,151.37,1
141,145.05,151.27,1
141,144.97,151.16,1
139,144.85,151.04,1
140,144.75,150.93,1
141,144.68,150.83,1
139,144.56,150.71,1
141,144.49,150.62,1
138,144.36,150.49,1
139,144.25,150.38,1
139,144.15,150.26,1
141,144.09,150.17,1
139,143.99,150.06,1
139,143.89,149.95,1
138,143.77,149.83,1
139,143.67,149.72,1
139,143.58,149.61,1
137,143.45,149.49,1
137,143.32,149.36,1
139,143.23,149.26,1
137,143.11,149.13,1
137,142.99,149.01,1
137,142.87,148.89,1
137,142.75,148.77,1
137,142.63,148.66,1
137,142.52,148.54,1
136,142.39,148.41,1
137,142.28,148.30,1
139,142.22,148.21,1
137,142.11,148.10,1
137,142.01,147.98,1
136,141.89,147.86,1
136,141.77,147.75,1
137,141.68,147.64,1
140,141.64,147.56,1
137,141.55,147.46,1
136,141.44,147.34,1
135,141.31,147.22,1
136,141.20,147.11,1
137,141.12,147.01,1
137,141.04,146.90,1
135,140.92,146.79,1
136,140.82,146.68,1
137,140.74,146.58,1
135,140.63,146.47,1
135,140.52,146.35,1
135,140.40,146.24,1
139,140.38,146.16,1
135,140.27,146.05,1
136,140.18,145.95,1
133,140.04,145.82,1
135,139.94,145.72,1
135,139.84,145.61,1
136,139.76,145.51,1
134,139.65,145.40,1
135,139.56,145.29,1
133,139.42,145.17,1
134,139.32,145.06,1
133,139.19,144.94,1
133,139.07,144.82,1
133,138.94,144.70,1
133,138.83,144.58,1
135,138.75,144.49,1
132,138.61,144.36,1
132,138.48,144.24,1
131,138.33,144.11,1
132,138.21,143.99,1
131,138.06,143.86,1
132,137.94,143.74,1
131,137.80,143.61,1
131,137.67,143.48,1
131,137.53,143.36,1
132,137.42,143.24,1
132,137.31,143.13,1
133,137.23,143.03,1
132,137.12,142.92,1
132,137.02,142.81,1
131,136.90,142.69,1
130,136.76,142.57,1
131,136.65,142.45,1
132,136.55,142.35,1
133,136.48,142.25,1
131,136.37,142.14,1
132,136.29,142.04,1
130,136.16,141.92,1
132,136.08,141.82,1
131,135.97,141.71,1
130,135.86,141.59,1
130,135.74,141.48,1
131,135.64,141.37,1
131,135.55,141.27,1
131,135.46,141.17,1
129,135.33,141.05,1
129,135.20,140.92,1
131,135.12,140.83,1
130,135.02,140.72,1
129,134.90,140.60,1
129,134.78,140.48,1
129,134.66,140.37,1
131,134.59,140.28,1
128,134.46,140.15,1
129,134.35,140.04,1
129,134.24,139.93,1
129,134.14,139.82,1
131,134.07,139.73,1
129,133.97,139.63,1
129,133.87,139.52,1
129,133.78,139.41,1
129,133.68,139.31,1
130,133.61,139.22,1
129,133.51,139.12,1
127,133.38,138.99,1
128,133.28,138.88,1
129,133.19,138.79,1
128,133.09,138.68,1
127,132.97,138.56,1
127,132.85,138.45,1
129,132.77,138.35,1
129,132.69,138.26,1
129,132.62,138.16,1
127,132.51,138.05,1
127,132.40,137.94,1
127,132.29,137.83,1
128,132.20,137.73,1
129,132.14,137.65,1
128,132.06,137.55,1
126,131.94,137.44,1
128,131.86,137.34,1
127,131.76,137.24,1
127,131.66,137.14,1
125,131.53,137.01,1
126,131.42,136.90,1
128,131.35,136.81,1
128,131.29,136.73,1
126,131.18,136.62,1
126,131.08,136.51,1
127,130.99,136.42,1
127,130.91,136.32,1
127,130.84,136.23,1
125,130.72,136.12,1
125,130.61,136.01,1
128,130.55,135.93,1
126,130.46,135.83,1
125,130.35,135.72,1
125,130.25,135.61,1
125,130.14,135.51,1
126,130.06,135.41,1
125,129.96,135.31,1
125,129.86,135.20,1
125,129.76,135.10,1
126,129.69,135.01,1
125,129.59,134.91,1
125,129.50,134.81,1
125,129.41,134.71,1
123,129.28,134.60,1
125,129.20,134.50,1
125,129.11,134.41,1
121,128.95,134.27,1
124,128.85,134.17,1
124,128.75,134.07,1
125,128.68,133.98,1
124,128.59,133.88,1
123,128.47,133.77,1
123,128.36,133.66,1
123,128.26,133.55,1
123,128.15,133.45,1
123,128.05,133.34,1
122,127.93,133.23,1
123,127.83,133.13,1
121,127.69,133.01,1
124,127.62,132.92,1
122,127.51,132.81,1
121,127.38,132.69,1
121,127.25,132.57,1
121,127.12,132.46,1
121,127.00,132.34,1
121,126.88,132.23,1
121,126.76,132.12,1
122,126.67,132.02,1
122,126.57,131.91,1
121,126.46,131.81,1
121,126.35,131.70,1
122,126.27,131.60,1
123,126.20,131.51,1
121,126.10,131.41,1
121,126.00,131.31,1
121,125.90,131.20,1
121,125.80,131.10,1
121,125.70,131.00,1
120,125.59,130.89,1
120,125.48,130.78,1
121,125.39,130.68,1
121,125.30,130.59,1
121,125.21,130.49,1
119,125.09,130.38,1
119,124.97,130.26,1
122,124.91,130.18,1
119,124.79,130.07,1
120,124.69,129.97,1
119,124.58,129.86,1
119,124.47,129.75,1
120,124.38,129.65,1
120,124.29,129.55,1
119,124.19,129.45,1
119,124.08,129.34,1
119,123.98,129.24,1
118,123.86,129.13,1
119,123.76,129.03,1
119,123.67,128.93,1
117,123.53,128.81,1
119,123.44,128.71,1
121,123.40,128.63,1
120,123.33,128.55,1
118,123.22,128.44,1
119,123.14,128.35,1
119,123.05,128.25,1
120,122.99,128.17,1
119,122.91,128.08,1
117,122.79,127.97,1
120,122.74,127.89,1
120,122.68,127.81,1
120,122.63,127.73,1
118,122.54,127.63,1
119,122.47,127.55,1
118,122.38,127.45,1
121,122.35,127.39,1
119,122.28,127.30,1
117,122.18,127.20,1
119,122.11,127.12,1
119,122.05,127.04,1
118,121.97,126.95,1
117,121.87,126.85,1
117,121.77,126.75,1
117,121.68,126.65,1
117,121.58,126.55,1
117,121.49,126.46,1
117,121.40,126.36,1
117,121.31,126.27,1
116,121.21,126.17,1
118,121.14,126.09,1
117,121.06,126.00,1
117,120.98,125.91,1
116,120.88,125.81,1
117,120.80,125.72,1
117,120.73,125.63,1
117,120.65,125.55,1
115,120.54,125.44,1
116,120.45,125.35,1
116,120.36,125.25,1
117,120.29,125.17,1
115,120.19,125.07,1
117,120.12,124.99,1
117,120.06,124.91,1
117,120.00,124.83,1
115,119.90,124.73,1
116,119.82,124.64,1
115,119.72,124.55,1
117,119.67,124.47,1
117,119.62,124.40,1
115,119.52,124.30,1
117,119.47,124.23,1
117,119.42,124.16,1
117,119.38,124.09,1
117,119.33,124.01,1
115,119.24,123.92,1
116,119.18,123.84,1
117,119.13,123.78,1
119,119.13,123.73,1
117,119.09,123.66,1
115,119.01,123.57,1
117,118.97,123.51,1
118,118.95,123.45,1
119,118.95,123.41,1
116,118.89,123.34,1
116,118.83,123.26,1
117,118.79,123.20,1
117,118.76,123.14,1
117,118.72,123.08,1
118,118.71,123.03,1
119,118.72,122.99,1
119,118.72,122.95,1
119,118.73,122.91,1
118,118.71,122.86,1
117,118.68,122.80,1
121,118.72,122.78,1
120,118.75,122.75,1
121,118.79,122.73,1
117,118.76,122.68,1
117,118.72,122.62,1
118,118.71,122.57,1
117,118.67,122.52,1
117,118.64,122.46,1
116,118.59,122.40,1
116,118.54,122.33,1
116,118.49,122.27,1
119,118.50,122.24,1
117,118.47,122.19,1
117,118.44,122.13,1
117,118.41,122.08,1
117,118.38,122.03,1
119,118.39,122.00,1
117,118.36,121.95,1
116,118.32,121.89,1
115,118.25,121.82,1
117,118.23,121.78,1
115,118.16,121.71,1
113,118.06,121.62,1
115,118.00,121.55,1
115,117.94,121.49,1
116,117.90,121.43,1
119,117.92,121.41,1
116,117.88,121.36,1
115,117.82,121.29,1
115,117.77,121.23,1
115,117.71,121.17,1
117,117.70,121.13,1
114,117.62,121.05,1
117,117.61,121.01,1
116,117.58,120.96,1
116,117.55,120.91,1
114,117.48,120.84,1
117,117.47,120.81,1
115,117.42,120.75,1
116,117.39,120.70,1
113,117.30,120.62,1
115,117.26,120.57,1
115,117.21,120.51,1
116,117.19,120.47,1
114,117.12,120.40,1
115,117.08,120.35,1
113,117.00,120.27,1
115,116.96,120.22,1
113,116.88,120.15,1
114,116.82,120.09,1
113,116.75,120.02,1
113,116.67,119.95,1
116,116.66,119.91,1
113,116.58,119.84,1
115,116.55,119.79,1
113,116.48,119.72,1
115,116.45,119.67,1
116,116.44,119.64,1
115,116.41,119.59,1
114,116.37,119.54,1
113,116.30,119.47,1
116,116.29,119.44,1
115,116.27,119.39,1
116,116.26,119.36,1
115,116.24,119.31,1
111,116.13,119.23,1
114,116.09,119.18,1
115,116.07,119.14,1
115,116.05,119.10,1
113,115.98,119.03,1
113,115.93,118.97,1
115,115.91,118.93,1
115,115.89,118.89,1
113,115.83,118.84,1
113,115.77,118.78,1
113,115.72,118.72,1
112,115.64,118.65,1
113,115.59,118.60,1
113,115.54,118.54,1
114,115.51,118.49,1
116,115.52,118.47,1
114,115.49,118.43,1
112,115.42,118.36,1
112,115.35,118.30,1
112,115.28,118.23,1
112,115.22,118.17,1
111,115.13,118.10,1
115,115.13,118.07,1
115,115.13,118.04,1
111,115.05,117.97,1
113,115.00,117.92,1
114,114.98,117.88,1
114,114.96,117.84,1
113,114.93,117.79,1
111,114.85,117.72,1
113,114.81,117.68,1
113,114.77,117.63,1
117,114.82,117.62,1
115,114.82,117.60,1
116,114.85,117.58,1
118,114.91,117.59,1
116,114.93,117.57,1
115,114.93,117.54,1
117,114.97,117.54,1
117,115.01,117.53,1
115,115.01,117.51,1
113,114.97,117.46,1
114,114.95,117.43,1
115,114.95,117.40,1
116,114.98,117.39,1
115,114.98,117.37,1
114,114.96,117.33,1
115,114.96,117.31,1
113,114.92,117.27,1
117,114.96,117.26,1
113,114.92,117.22,1
111,114.84,117.16,1
114,114.83,117.13,1
116,114.85,117.12,1
115,114.85,117.09,1
117,114.89,117.09,1
116,114.92,117.08,1
117,114.96,117.08,1
115,114.96,117.06,1
119,115.04,117.08,1
115,115.04,117.06,1
117,115.08,117.06,1
117,115.12,117.06,1
115,115.11,117.04,1
116,115.13,117.03,1
114,115.11,117.00,1
115,115.11,116.98,1
114,115.09,116.95,1
116,115.10,116.94,1
115,115.10,116.92,1
116,115.12,116.91,1
113,115.08,116.87,1
113,115.04,116.83,1
116,115.06,116.82,1
118,115.11,116.84,1
115,115.11,116.82,1
115,115.11,116.80,1
117,115.15,116.80,1
114,115.12,116.77,1
115,115.12,116.75,1
114,115.10,116.73,1
118,115.16,116.74,1
118,115.21,116.75,1
116,115.23,116.75,1
118,115.29,116.76,1
121,115.40,116.80,1
115,115.39,116.78,1
117,115.42,116.78,1
117,115.46,116.79,1
115,115.45,116.77,1
118,115.50,116.78,1
118,115.55,116.79,1
117,115.58,116.80,1
121,115.68,116.84,1
116,115.69,116.83,1
116,115.70,116.82,1
117,115.72,116.82,1
116,115.73,116.81,1
115,115.71,116.80,1
115,115.70,116.78,1
115,115.69,116.76,1
117,115.71,116.76,1
117,115.74,116.77,1
119,115.80,116.79,1
122,115.93,116.84,1
121,116.03,116.88,1
115,116.01,116.86,1
118,116.05,116.87,1
120,116.13,116.90,1
119,116.18,116.93,1
117,116.20,116.93,1
119,116.26,116.95,1
119,116.31,116.97,1
117,116.33,116.97,1
118,116.36,116.98,1
117,116.37,116.98,1
117,116.38,116.98,1
117,116.40,116.98,1
117,116.41,116.98,1
117,116.42,116.98,1
118,116.45,116.99,1
117,116.46,116.99,1
117,116.47,116.99,1
117,116.48,116.99,1
117,116.49,116.99,1
119,116.54,117.01,1
116,116.53,117.00,1
116,116.52,116.99,1
117,116.53,116.99,1
121,116.62,117.03,1
117,116.63,117.03,1
119,116.68,117.05,1
121,116.76,117.09,1
117,116.77,117.09,1
120,116.83,117.12,1
121,116.92,117.16,1
120,116.98,117.18,1
118,117.00,117.19,1
117,117.00,117.19,1
117,117.00,117.19,1
120,117.06,117.22,1
117,117.06,117.22,1
120,117.12,117.24,1
117,117.11,117.24,1
121,117.19,117.28,1
121,117.27,117.32,1
118,117.28,117.32,1
117,117.28,117.32,1
124,117.41,117.39,1
123,117.52,117.44,1
119,117.55,117.46,1
125,117.70,117.53,1
126,117.87,117.62,1
120,117.91,117.64,1
120,117.95,117.66,1
125,118.09,117.74,1
121,118.15,117.77,1
122,118.23,117.81,1
127,118.40,117.91,1
123,118.50,117.96,1
125,118.63,118.03,1
122,118.69,118.07,1
123,118.78,118.12,1
123,118.86,118.16,1
125,118.99,118.23,1
131,119.23,118.36,1
128,119.40,118.46,1
125,119.51,118.52,1
124,119.60,118.58,1
125,119.71,118.64,1
128,119.88,118.73,1
123,119.94,118.78,1
125,120.04,118.84,1
125,120.14,118.90,1
126,120.26,118.97,1
125,120.35,119.03,1
128,120.51,119.12,1
125,120.60,119.18,1
125,120.68,119.24,1
126,120.79,119.31,1
127,120.91,119.38,1
125,121.00,119.44,1
127,121.12,119.52,1
130,121.29,119.62,1
127,121.41,119.69,1
129,121.56,119.79,1
131,121.75,119.90,1
127,121.85,119.97,1
125,121.92,120.02,1
127,122.02,120.09,1
131,122.20,120.20,1
126,122.27,120.26,1
129,122.41,120.35,1
128,122.52,120.42,1
126,122.59,120.48,1
129,122.72,120.56,1
133,122.92,120.69,1
127,123.00,120.75,1
129,123.12,120.83,1
128,123.22,120.90,1
127,123.30,120.97,1
128,123.39,121.04,1
127,123.46,121.10,1
132,123.63,121.20,1
127,123.70,121.26,1
129,123.81,121.34,1
129,123.91,121.42,1
133,124.09,121.53,1
130,124.21,121.62,1
133,124.39,121.73,1
133,124.56,121.84,1
129,124.65,121.91,1
129,124.74,121.99,1
129,124.82,122.06,1
132,124.96,122.16,1
133,125.13,122.26,1
130,125.22,122.34,1
133,125.38,122.45,1
131,125.49,122.53,1
133,125.64,122.64,1
135,125.83,122.76,1
134,125.99,122.87,1
142,126.31,123.07,1
135,126.49,123.18,1
141,126.78,123.36,1
143,127.10,123.56,1
139,127.34,123.71,1
140,127.59,123.88,1
140,127.84,124.04,1
137,128.02,124.17,1
141,128.28,124.34,1
143,128.58,124.52,1
140,128.81,124.68,1
141,129.05,124.84,1
145,129.37,125.04,1
147,129.72,125.26,1
143,129.99,125.44,1
141,130.21,125.59,1
143,130.46,125.77,1
147,130.79,125.98,1
141,131.00,126.13,1
141,131.20,126.28,1
139,131.35,126.41,1
143,131.59,126.57,1
143,131.81,126.74,1
141,132.00,126.88,1
141,132.18,127.02,1
141,132.35,127.16,1
140,132.51,127.29,1
141,132.68,127.43,1
145,132.92,127.60,1
140,133.07,127.73,1
144,133.28,127.89,1
147,133.56,128.08,1
149,133.87,128.29,1
149,134.17,128.50,1
145,134.39,128.66,1
154,134.78,128.91,1
147,135.02,129.10,1
147,135.26,129.27,1
149,135.54,129.47,1
147,135.77,129.65,1
149,136.03,129.84,1
150,136.31,130.04,1
146,136.50,130.20,1
148,136.73,130.38,1
147,136.94,130.55,1
149,137.18,130.73,1
149,137.42,130.91,1
155,137.77,131.15,1
153,138.07,131.37,1
151,138.33,131.57,1
151,138.59,131.76,1
151,138.83,131.96,1
155,139.16,132.19,1
150,139.37,132.36,1
149,139.57,132.53,1
152,139.82,132.73,1
148,139.98,132.88,1
149,140.16,133.04,1
154,140.44,133.25,1
155,140.73,133.47,1
151,140.93,133.64,1
158,141.27,133.89,1
157,141.59,134.12,1
153,141.82,134.31,1
150,141.98,134.46,1
152,142.18,134.64,1
150,142.34,134.79,1
153,142.55,134.97,1
152,142.74,135.14,1
156,143.00,135.35,1
162,143.38,135.62,1
165,143.82,135.91,1
166,144.26,136.21,1
157,144.52,136.42,1
173,145.09,136.79,1
168,145.54,137.10,1
158,145.79,137.31,1
164,146.16,137.57,1
160,146.43,137.80,1
160,146.71,138.02,1
165,147.07,138.29,1
166,147.45,138.57,1
161,147.72,138.79,1
167,148.11,139.07,1
162,148.38,139.30,1
163,148.68,139.54,1
175,149.20,139.90,1
177,149.76,140.27,1
170,150.16,140.56,1
172,150.60,140.88,1
184,151.27,141.31,1
184,151.92,141.74,1
176,152.40,142.08,1
173,152.82,142.39,1
173,153.22,142.69,1
176,153.68,143.03,1
170,154.00,143.30,1
175,154.42,143.61,1
171,154.75,143.89,1
172,155.10,144.17,1
176,155.52,144.49,1
170,155.81,144.74,1
170,156.09,144.99,1
173,156.43,145.27,1
173,156.76,145.55,1
172,157.06,145.82,1
180,157.52,146.16,1
183,158.03,146.53,1
181,158.49,146.87,1
173,158.78,147.13,1
173,159.07,147.39,1
181,159.51,147.73,1
181,159.94,148.06,1
176,160.26,148.34,1
188,160.81,148.74,1
179,161.18,149.04,1
189,161.73,149.44,1
195,162.40,149.89,1
184,162.83,150.24,1
185,163.27,150.58,1
191,163.83,150.99,1
181,164.17,151.29,1
181,164.51,151.58,1
183,164.88,151.90,1
184,165.26,152.22,1
189,165.73,152.59,1
184,166.10,152.90,1
183,166.44,153.20,1
185,166.81,153.52,1
181,167.09,153.80,1
183,167.41,154.09,1
187,167.80,154.42,1
183,168.11,154.70,1
185,168.44,155.01,1
183,168.74,155.29,1
183,169.02,155.56,1
181,169.26,155.82,1
181,169.50,156.07,1
181,169.73,156.32,1
182,169.97,156.57,1
180,170.17,156.81,1
187,170.51,157.11,1
187,170.84,157.41,1
191,171.24,157.75,1
189,171.60,158.06,1
182,171.80,158.30,1
182,172.01,158.53,1
182,172.21,158.77,1
188,172.52,159.06,1
185,172.77,159.32,1
188,173.08,159.61,1
195,173.52,159.96,1
194,173.93,160.30,1
185,174.15,160.55,1
188,174.42,160.82,1
187,174.68,161.09,1
190,174.98,161.37,1
187,175.22,161.63,1
185,175.42,161.86,1
185,175.61,162.10,1
187,175.84,162.34,1
185,176.02,162.57,1
187,176.24,162.82,1
186,176.44,163.05,1
185,176.61,163.27,1
185,176.78,163.48,1
189,177.02,163.74,1
186,177.20,163.96,1
187,177.40,164.19,1
188,177.61,164.43,1
187,177.80,164.66,1
184,177.92,164.85,1
184,178.04,165.04,1
188,178.24,165.27,1
187,178.42,165.49,1
190,178.65,165.73,1
185,178.77,165.93,1
187,178.94,166.14,1
185,179.06,166.33,1
185,179.18,166.51,1
191,179.42,166.76,1
194,179.71,167.03,1
183,179.77,167.19,1
189,179.96,167.41,1
191,180.18,167.64,1
195,180.47,167.92,1
193,180.73,168.17,1
195,181.01,168.44,1
192,181.23,168.67,1
191,181.43,168.89,1
189,181.58,169.10,1
189,181.73,169.29,1
189,181.87,169.49,1
195,182.13,169.75,1
194,182.37,169.99,1
191,182.54,170.20,1
194,182.77,170.44,1
197,183.06,170.70,1
197,183.34,170.97,1
192,183.51,171.18,1
191,183.66,171.37,1
193,183.85,171.59,1
193,184.03,171.81,1
193,184.21,172.02,1
192,184.36,172.22,1
190,184.48,172.39,1
189,184.57,172.56,1
191,184.70,172.75,1
191,184.82,172.93,1
191,184.95,173.11,1
195,185.15,173.33,1
192,185.28,173.51,1
191,185.40,173.69,1
191,185.51,173.86,1
191,185.62,174.03,1
187,185.65,174.16,1
189,185.71,174.31,1
189,185.78,174.46,1
192,185.90,174.63,1
188,185.95,174.77,1
191,186.05,174.93,1
190,186.13,175.08,1
193,186.26,175.26,1
192,186.38,175.43,1
188,186.41,175.55,1
191,186.50,175.71,1
189,186.55,175.84,1
190,186.62,175.98,1
191,186.71,176.13,1
191,186.80,176.28,1
189,186.84,176.41,1
189,186.88,176.53,1
188,186.91,176.65,1
193,187.03,176.81,1
192,187.13,176.96,1
194,187.26,177.13,1
192,187.36,177.28,1
188,187.37,177.39,1
189,187.40,177.51,1
192,187.50,177.65,1
193,187.61,177.80,1
191,187.67,177.94,1
193,187.78,178.09,1
190,187.82,178.21,1
189,187.85,178.31,1
189,187.87,178.42,1
192,187.95,178.56,1
189,187.97,178.66,1
189,188.00,178.76,1
187,187.98,178.85,1
187,187.96,178.93,1
187,187.94,179.01,1
187,187.92,179.09,1
186,187.88,179.16,1
185,187.82,179.22,1
185,187.77,179.27,1
186,187.73,179.34,1
185,187.68,179.40,1
185,187.62,179.45,1
185,187.57,179.51,1
185,187.52,179.56,1
185,187.47,179.62,1
185,187.42,179.67,1
184,187.35,179.72,1
184,187.28,179.76,1
185,187.24,179.81,1
183,187.15,179.84,1
183,187.07,179.88,1
183,186.99,179.91,1
184,186.93,179.95,1
183,186.85,179.98,1
184,186.79,180.02,1
183,186.72,180.05,1
181,186.60,180.06,1
181,186.49,180.07,1
183,186.42,180.10,1
179,186.27,180.09,1
181,186.17,180.09,1
180,186.04,180.09,1
181,185.94,180.10,1
181,185.84,180.11,1
181,185.75,180.12,1
180,185.63,180.12,1
179,185.50,180.11,1
179,185.37,180.10,1
181,185.28,180.11,1
183,185.24,180.13,1
179,185.11,180.12,1
180,185.01,180.12,1
183,184.97,180.15,1
181,184.89,180.16,1
180,184.79,180.16,1
179,184.68,180.15,1
177,184.52,180.11,1
177,184.37,180.08,1
177,184.23,180.05,1
177,184.08,180.02,1
178,183.96,180.00,1
179,183.86,179.99,1
179,183.76,179.98,1
177,183.63,179.95,1
177,183.49,179.92,1
177,183.36,179.89,1
178,183.26,179.87,1
175,183.09,179.83,1
175,182.93,179.78,1
175,182.77,179.73,1
176,182.64,179.69,1
176,182.50,179.66,1
175,182.35,179.61,1
174,182.19,179.55,1
174,182.02,179.50,1
175,181.88,179.45,1
173,181.70,179.39,1
173,181.53,179.32,1
175,181.40,179.28,1
175,181.27,179.24,1
174,181.13,179.19,1
173,180.96,179.12,1
173,180.80,179.06,1
173,180.65,179.00,1
173,180.50,178.94,1
172,180.33,178.87,1
172,180.16,178.80,1
173,180.02,178.75,1
171,179.84,178.67,1
172,179.68,178.60,1
172,179.53,178.54,1
170,179.34,178.45,1
170,179.15,178.37,1
170,178.97,178.28,1
170,178.79,178.20,1
169,178.59,178.11,1
169,178.40,178.02,1
169,178.21,177.93,1
171,178.07,177.86,1
169,177.89,177.77,2
169,177.71,177.68,2
168,177.51,177.58,3
167,177.30,177.48,3
169,177.14,177.39,3
168,176.95,177.30,3
167,176.76,177.20,3
167,176.56,177.09,3
167,176.37,176.99,3
167,176.18,176.89,3
167,176.00,176.79,3
165,175.78,176.68,3
165,175.56,176.56,3
166,175.37,176.45,3
165,175.16,176.34,3
163,174.92,176.21,3
165,174.72,176.09,3
165,174.53,175.98,3
164,174.32,175.86,3
165,174.13,175.75,3
165,173.95,175.65,3
163,173.73,175.52,3
162,173.49,175.39,3
164,173.30,175.27,3
162,173.08,175.14,3
163,172.88,175.02,3
163,172.68,174.90,3
162,172.47,174.77,3
162,172.26,174.64,3
163,172.07,174.52,3
161,171.85,174.39,3
161,171.63,174.26,3
161,171.42,174.12,3
161,171.21,173.99,3
159,170.97,173.84,3
160,170.75,173.70,3
159,170.51,173.56,3
161,170.32,173.43,3
159,170.10,173.29,3
159,169.87,173.14,3
157,169.62,172.98,3
159,169.40,172.84,3
160,169.22,172.71,3
158,168.99,172.57,3
158,168.77,172.42,3
158,168.56,172.28,3
160,168.39,172.15,3
157,168.16,172.00,3
157,167.94,171.85,3
157,167.72,171.70,3
157,167.50,171.56,3
157,167.29,171.41,3
157,167.09,171.27,3
156,166.86,171.11,3
156,166.65,170.96,3
157,166.45,170.82,3
157,166.27,170.69,3
155,166.04,170.53,3
155,165.82,170.37,3
156,165.62,170.23,3
156,165.43,170.09,3
155,165.22,169.94,3
155,165.02,169.79,3
156,164.84,169.65,3
157,164.68,169.52,3
156,164.51,169.39,3
155,164.32,169.24,3
153,164.09,169.08,3
153,163.87,168.92,3
156,163.71,168.79,3
155,163.54,168.65,3
153,163.33,168.50,3
153,163.12,168.34,3
154,162.94,168.20,3
154,162.76,168.06,3
153,162.56,167.91,3
152,162.35,167.75,3
151,162.12,167.58,3
153,161.94,167.43,3
153,161.76,167.29,3
153,161.59,167.15,3
152,161.40,166.99,3
151,161.19,166.83,3
151,160.98,166.68,3
153,160.83,166.54,3
150,160.61,166.37,3
151,160.42,166.22,3
150,160.21,166.06,3
151,160.02,165.91,3
149,159.80,165.74,3
149,159.59,165.57,3
149,159.38,165.41,3
151,159.21,165.26,3
151,159.04,165.12,3
149,158.84,164.96,3
149,158.65,164.80,3
148,158.43,164.63,3
149,158.24,164.47,3
149,158.06,164.32,3
148,157.86,164.16,3
147,157.64,163.98,3
148,157.45,163.82,3
147,157.24,163.66,3
146,157.01,163.48,3
145,156.77,163.29,3
145,156.54,163.11,3
148,156.37,162.96,3
147,156.18,162.80,3
145,155.96,162.62,3
146,155.76,162.46,3
145,155.54,162.28,3
146,155.35,162.12,3
146,155.17,161.96,3
145,154.96,161.79,3
145,154.76,161.62,3
145,154.57,161.45,3
149,154.46,161.33,3
147,154.31,161.19,3
147,154.16,161.05,3
145,153.98,160.88,3
148,153.86,160.76,3
145,153.68,160.60,3
145,153.51,160.44,3
144,153.32,160.28,3
144,153.13,160.12,3
145,152.97,159.96,3
145,152.81,159.81,3
143,152.61,159.65,3
148,152.52,159.53,3
143,152.33,159.36,3
143,152.14,159.20,3
144,151.98,159.05,3
144,151.82,158.90,3
143,151.64,158.74,3
143,151.47,158.58,3
145,151.34,158.45,3
143,151.18,158.29,3
143,151.01,158.14,3
143,150.85,157.99,3
146,150.75,157.87,3
142,150.58,157.71,3
142,150.41,157.55,3
143,150.26,157.41,3
141,150.07,157.24,3
141,149.89,157.08,3
143,149.76,156.94,3
143,149.62,156.80,3
143,149.49,156.66,3
142,149.34,156.51,3
143,149.21,156.38,3
143,149.09,156.25,3
141,148.93,156.09,3
141,148.77,155.94,3
141,148.61,155.79,3
142,148.48,155.66,3
142,148.35,155.52,3
143,148.24,155.39,3
141,148.10,155.25,3
142,147.98,155.12,3
143,147.88,155.00,3
141,147.74,154.86,3
141,147.60,154.72,3
142,147.49,154.59,3
142,147.38,154.46,3
141,147.25,154.33,3
141,147.13,154.20,3
141,147.01,154.06,3
142,146.91,153.94,3
141,146.79,153.81,3
140,146.65,153.68,3
141,146.54,153.55,3
142,146.45,153.43,3
141,146.34,153.31,3
140,146.21,153.18,3
141,146.11,153.05,3
139,145.97,152.91,3
141,145.87,152.79,3
141,145.77,152.68,3
140,145.65,152.55,3
139,145.52,152.41,3
139,145.39,152.28,3
141,145.30,152.17,3
141,145.22,152.06,3
139,145.09,151.93,3
139,144.97,151.80,3
137,144.81,151.65,3
139,144.70,151.52,3
140,144.60,151.41,3
140,144.51,151.29,3
139,144.40,151.17,3
137,144.25,151.03,3
140,144.17,150.92,3
139,144.06,150.80,3
138,143.94,150.67,3
138,143.82,150.54,3
137,143.69,150.41,3
138,143.57,150.28,3
139,143.48,150.17,3
137,143.35,150.04,3
137,143.22,149.91,3
137,143.10,149.78,3
137,142.98,149.65,3
137,142.86,149.53,3
137,142.74,149.40,3
136,142.61,149.27,3
136,142.47,149.13,3
135,142.33,148.99,3
136,142.20,148.86,3
137,142.09,148.74,3
137,141.99,148.63,3
138,141.91,148.52,3
137,141.81,148.41,3
136,141.70,148.28,3
135,141.56,148.15,3
136,141.45,148.03,3
136,141.34,147.91,3
137,141.26,147.80,3
135,141.13,147.67,3
135,141.01,147.54,3
135,140.89,147.42,3
135,140.77,147.29,3
133,140.62,147.15,3
133,140.46,147.01,3
134,140.33,146.88,3
136,140.25,146.77,3
134,140.12,146.64,3
133,139.98,146.51,3
134,139.86,146.38,3
135,139.76,146.27,3
133,139.63,146.13,3
133,139.50,146.00,3
133,139.37,145.87,3
133,139.24,145.74,3
135,139.15,145.64,3
133,139.03,145.51,3
133,138.91,145.39,3
133,138.79,145.26,3
133,138.68,145.14,3
131,138.52,145.00,3
132,138.39,144.87,3
131,138.24,144.73,3
131,138.10,144.59,3
133,138.00,144.48,3
131,137.86,144.34,3
132,137.74,144.22,3
133,137.65,144.11,3
132,137.53,143.98,3
131,137.40,143.85,3
132,137.29,143.74,3
131,137.17,143.61,3
129,137.00,143.46,3
130,136.86,143.33,3
131,136.75,143.20,3
129,136.59,143.06,3
130,136.46,142.93,3
129,136.31,142.79,3
130,136.19,142.66,3
129,136.04,142.53,3
129,135.90,142.39,3
128,135.74,142.25,3
129,135.61,142.12,3
129,135.48,141.99,3
130,135.37,141.87,3
129,135.24,141.74,3
129,135.11,141.61,3
129,134.99,141.48,3
129,134.87,141.36,3
128,134.73,141.22,3
128,134.60,141.09,3
129,134.49,140.97,3
129,134.38,140.85,3
128,134.25,140.72,3
127,134.11,140.59,3
128,133.98,140.46,3
131,133.92,140.37,3
129,133.83,140.25,3
127,133.69,140.12,3
130,133.61,140.02,3
127,133.48,139.89,3
126,133.33,139.75,3
129,133.25,139.64,3
127,133.12,139.52,3
127,133.00,139.39,3
127,132.88,139.27,3
129,132.80,139.16,3
128,132.71,139.05,3
129,132.63,138.95,3
127,132.52,138.83,3
126,132.39,138.70,3
127,132.28,138.59,3
128,132.19,138.48,3
128,132.11,138.38,3
128,132.03,138.27,3
124,131.87,138.13,3
125,131.73,138.00,3
125,131.60,137.87,3
125,131.46,137.74,3
125,131.33,137.61,3
127,131.25,137.51,3
126,131.14,137.39,3
125,131.02,137.27,3
127,130.94,137.16,3
126,130.84,137.05,3
127,130.76,136.95,3
125,130.65,136.83,3
125,130.54,136.71,3
125,130.43,136.60,3
126,130.34,136.49,3
125,130.23,136.38,3
125,130.13,136.26,3
124,130.00,136.14,3
125,129.90,136.03,3
125,129.80,135.92,3
125,129.71,135.81,3
123,129.57,135.68,3
124,129.46,135.56,3
124,129.35,135.45,3
123,129.23,135.32,3
125,129.14,135.22,3
123,129.02,135.10,3
123,128.90,134.98,3
124,128.80,134.87,3
122,128.67,134.74,3
123,128.55,134.62,3
124,128.46,134.52,3
124,128.37,134.41,3
125,128.30,134.32,3
123,128.20,134.20,3
123,128.09,134.09,3
124,128.01,133.99,3
123,127.91,133.88,3
124,127.83,133.78,3
123,127.74,133.67,3
123,127.64,133.57,3
123,127.55,133.46,3
123,127.46,133.36,3
121,127.33,133.23,3
124,127.26,133.14,3
121,127.14,133.02,3
124,127.07,132.93,3
123,126.99,132.83,3
122,126.89,132.72,3
121,126.78,132.60,3
120,126.64,132.48,3
121,126.53,132.36,3
123,126.46,132.27,3
121,126.35,132.16,3
121,126.24,132.05,3
121,126.14,131.94,3
121,126.03,131.83,3
123,125.97,131.74,3
121,125.87,131.63,3
121,125.78,131.52,3
121,125.68,131.42,3
123,125.63,131.33,3
123,125.57,131.25,3
122,125.50,131.16,3
120,125.39,131.05,3
122,125.32,130.96,3
122,125.26,130.87,3
121,125.17,130.77,3
121,125.09,130.67,3
120,124.99,130.56,3
120,124.89,130.46,3
121,124.81,130.36,3
120,124.71,130.26,3
119,124.60,130.15,3
121,124.53,130.06,3
121,124.46,129.97,3
117,124.31,129.84,3
119,124.20,129.73,3
119,124.10,129.62,3
119,124.00,129.51,3
119,123.90,129.41,3
117,123.76,129.28,3
119,123.66,129.18,3
119,123.57,129.08,3
121,123.52,129.00,3
121,123.47,128.92,3
119,123.38,128.82,3
119,123.29,128.72,3
120,123.23,128.63,3
121,123.18,128.56,3
120,123.12,128.47,3
121,123.07,128.40,3
120,123.01,128.31,3
122,122.99,128.25,3
120,122.93,128.17,3
121,122.89,128.10,3
120,122.84,128.02,3
121,122.80,127.95,3
121,122.76,127.88,3
121,122.73,127.81,3
119,122.65,127.72,3
120,122.60,127.64,3
120,122.55,127.57,3
121,122.52,127.50,3
119,122.45,127.42,3
119,122.38,127.33,3
120,122.33,127.26,3
118,122.24,127.17,3
117,122.14,127.06,3
119,122.08,126.98,3
119,122.02,126.90,3
119,121.95,126.82,3
119,121.90,126.75,3
118,121.82,126.66,3
117,121.72,126.56,3
117,121.63,126.47,3
118,121.55,126.38,3
120,121.52,126.32,3
117,121.43,126.22,3
117,121.34,126.13,3
117,121.26,126.04,3
117,121.17,125.95,3
117,121.09,125.86,3
117,121.01,125.77,3
115,120.89,125.66,3
117,120.81,125.58,3
115,120.69,125.47,3
117,120.62,125.39,3
117,120.55,125.30,3
116,120.46,125.21,3
115,120.35,125.11,3
117,120.28,125.03,3
117,120.21,124.95,3
118,120.17,124.88,3
116,120.09,124.79,3
115,119.98,124.69,3
116,119.91,124.60,3
115,119.81,124.51,3
116,119.73,124.42,3
115,119.64,124.33,3
114,119.52,124.23,3
114,119.41,124.12,3
115,119.32,124.03,3
115,119.24,123.94,3
116,119.17,123.86,3
117,119.13,123.79,3
114,119.03,123.70,3
113,118.91,123.59,3
115,118.83,123.50,3
113,118.71,123.40,3
117,118.68,123.33,3
115,118.60,123.25,3
113,118.49,123.15,3
115,118.42,123.07,3
115,118.35,122.99,3
116,118.31,122.92,3
113,118.20,122.82,3
114,118.12,122.73,3
115,118.05,122.65,3
117,118.03,122.59,3
114,117.95,122.51,3
115,117.89,122.43,3
116,117.86,122.37,3
116,117.82,122.31,3
116,117.78,122.24,3
115,117.73,122.17,3
116,117.69,122.11,3
115,117.64,122.04,3
119,117.67,122.01,3
118,117.67,121.97,3
115,117.62,121.90,3
117,117.61,121.85,3
116,117.57,121.79,3
117,117.56,121.74,3
115,117.51,121.67,3
117,117.50,121.63,3
117,117.49,121.58,3
115,117.44,121.52,3
115,117.39,121.45,3
117,117.38,121.41,3
115,117.34,121.34,3
117,117.33,121.30,3
119,117.36,121.28,3
120,117.42,121.26,3
117,117.41,121.22,3
116,117.38,121.17,3
117,117.37,121.13,3
120,117.42,121.12,3
120,117.48,121.10,3
118,117.49,121.07,3
118,117.50,121.04,3
120,117.55,121.03,3
119,117.58,121.01,3
118,117.58,120.98,3
117,117.57,120.94,3
117,117.56,120.90,3
117,117.55,120.86,3
119,117.58,120.84,3
119,117.61,120.83,3
118,117.62,120.80,3
117,117.60,120.76,3
116,117.57,120.71,3
116,117.54,120.67,3
116,117.51,120.62,3
115,117.46,120.56,3
117,117.45,120.53,3
117,117.44,120.49,3
117,117.43,120.46,3
117,117.42,120.42,3
116,117.39,120.38,3
119,117.43,120.36,3
117,117.42,120.33,3
115,117.37,120.28,3
117,117.36,120.24,3
119,117.40,120.23,3
118,117.41,120.21,3
116,117.38,120.17,3
121,117.45,120.18,3
117,117.44,120.14,3
118,117.45,120.12,3
117,117.44,120.09,3
118,117.46,120.07,3
117,117.45,120.04,3
119,117.48,120.03,3
120,117.53,120.03,3
121,117.60,120.04,3
117,117.59,120.01,3
119,117.61,120.00,3
120,117.66,120.00,3
121,117.73,120.01,3
119,117.75,120.00,3
122,117.84,120.02,3
119,117.86,120.01,3
117,117.84,119.98,3
119,117.87,119.97,3
119,117.89,119.96,3
119,117.91,119.95,3
121,117.97,119.96,3
120,118.02,119.96,3
121,118.07,119.97,3
120,118.11,119.97,3
120,118.15,119.97,3
121,118.21,119.98,3
117,118.18,119.95,3
120,118.22,119.95,3
120,118.26,119.95,3
119,118.27,119.94,3
117,118.25,119.91,3
119,118.26,119.90,3
120,118.30,119.91,3
117,118.27,119.88,3
117,118.24,119.85,3
119,118.26,119.84,3
119,118.27,119.83,3
119,118.29,119.82,3
119,118.30,119.81,3
119,118.32,119.81,3
120,118.35,119.81,3
117,118.32,119.78,3
121,118.38,119.79,3
119,118.39,119.78,3
117,118.36,119.76,3
119,118.37,119.75,3
121,118.43,119.76,3
120,118.46,119.76,3
119,118.47,119.76,3
117,118.44,119.73,3
118,118.43,119.71,3
118,118.42,119.69,3
117,118.39,119.67,3
118,118.39,119.65,3
121,118.44,119.66,3
119,118.45,119.66,3
117,118.42,119.63,3
120,118.45,119.63,3
121,118.50,119.65,3
121,118.55,119.66,3
118,118.54,119.64,3
119,118.55,119.64,3
117,118.52,119.61,3
119,118.53,119.61,3
120,118.56,119.61,3
121,118.61,119.62,3
119,118.62,119.62,3
117,118.58,119.59,3
120,118.61,119.60,3
120,118.64,119.60,3
121,118.69,119.61,3
125,118.81,119.67,3
120,118.84,119.67,3
118,118.82,119.65,3
121,118.86,119.67,3
119,118.87,119.66,3
118,118.85,119.64,3
123,118.93,119.68,3
122,118.99,119.70,3
122,119.05,119.72,3
119,119.05,119.72,3
116,118.99,119.68,3
121,119.03,119.69,3
121,119.07,119.71,3
121,119.11,119.72,3
119,119.11,119.71,3
119,119.11,119.70,3
117,119.06,119.68,3
118,119.04,119.66,3
121,119.08,119.67,3
121,119.12,119.69,3
119,119.12,119.68,3
119,119.11,119.67,3
118,119.09,119.66,3
118,119.07,119.64,3
120,119.09,119.64,3
119,119.09,119.64,3
118,119.07,119.62,3
117,119.02,119.59,3
118,119.00,119.58,3
120,119.02,119.58,3
118,119.00,119.57,3
117,118.96,119.54,3
119,118.96,119.54,3
119,118.96,119.53,3
121,119.01,119.55,3
117,118.97,119.52,3
120,118.99,119.52,3
125,119.11,119.58,3
119,119.10,119.57,3
121,119.14,119.59,3
118,119.12,119.57,3
119,119.12,119.57,3
117,119.07,119.54,3
120,119.09,119.55,3
121,119.13,119.56,3
118,119.11,119.54,3
120,119.13,119.55,3
119,119.12,119.54,3
119,119.12,119.54,3
119,119.12,119.53,3
121,119.16,119.55,3
123,119.23,119.58,3
120,119.25,119.59,3
121,119.28,119.60,3
124,119.38,119.64,3
119,119.37,119.64,3
121,119.40,119.65,3
121,119.44,119.66,3
120,119.45,119.67,3
120,119.46,119.67,3
120,119.47,119.67,3
121,119.50,119.69,3
124,119.59,119.73,3
119,119.58,119.72,3
121,119.61,119.74,3
121,119.63,119.75,3
125,119.74,119.80,3
122,119.79,119.82,3
123,119.85,119.86,3
120,119.85,119.86,3
121,119.88,119.87,3
123,119.94,119.90,3
124,120.02,119.94,3
123,120.08,119.97,3
123,120.14,120.00,3
124,120.22,120.04,3
121,120.23,120.05,3
120,120.23,120.05,3
121,120.24,120.06,3
124,120.32,120.10,3
123,120.37,120.13,3
123,120.42,120.16,3
121,120.43,120.17,3
121,120.45,120.17,3
121,120.46,120.18,3
121,120.47,120.19,3
122,120.50,120.21,3
123,120.55,120.24,3
123,120.60,120.26,3
122,120.63,120.28,3
127,120.75,120.35,3
129,120.92,120.44,3
123,120.96,120.46,3
132,121.18,120.58,3
132,121.40,120.69,3
126,121.49,120.74,3
128,121.62,120.82,3
126,121.71,120.87,3
127,121.81,120.93,3
130,121.98,121.02,3
129,122.12,121.10,3
131,122.29,121.20,3
127,122.39,121.26,3
132,122.58,121.36,3
127,122.67,121.42,3
127,122.76,121.48,3
125,122.80,121.51,3
127,122.88,121.57,3
132,123.07,121.67,3
130,123.21,121.75,3
128,123.30,121.82,3
132,123.48,121.92,3
127,123.55,121.97,3
128,123.64,122.03,3
127,123.70,122.08,3
129,123.81,122.15,3
128,123.89,122.21,3
134,124.09,122.32,3
131,124.23,122.41,3
133,124.41,122.52,3
127,124.46,122.56,3
131,124.59,122.65,3
137,124.84,122.79,3
129,124.92,122.85,3
129,125.00,122.91,3
134,125.18,123.02,3
135,125.38,123.14,3
133,125.53,123.24,3
132,125.66,123.33,3
129,125.73,123.39,3
136,125.93,123.51,3
133,126.08,123.61,3
133,126.21,123.70,3
133,126.35,123.80,3
134,126.50,123.90,3
134,126.65,124.00,3
133,126.78,124.09,3
133,126.90,124.18,3
135,127.07,124.29,3
133,127.18,124.37,3
131,127.26,124.44,3
131,127.34,124.50,3
131,127.41,124.57,3
134,127.54,124.66,3
132,127.63,124.74,3
131,127.70,124.80,3
133,127.80,124.88,3
138,128.01,125.01,3
141,128.27,125.17,3
134,128.38,125.26,3
132,128.45,125.33,3
132,128.52,125.40,3
135,128.65,125.49,3
134,128.76,125.58,3
140,128.99,125.72,3
141,129.23,125.87,3
133,129.30,125.94,3
133,129.38,126.02,3
135,129.49,126.11,3
139,129.68,126.23,3
141,129.90,126.38,3
148,130.27,126.60,3
142,130.50,126.75,3
138,130.65,126.86,3
141,130.86,127.01,3
156,131.36,127.30,3
147,131.67,127.49,3
144,131.92,127.66,3
140,132.08,127.78,3
141,132.26,127.91,3
143,132.48,128.06,3
144,132.71,128.22,3
143,132.91,128.37,3
144,133.13,128.53,3
149,133.45,128.73,3
143,133.64,128.88,3
141,133.79,129.00,3
141,133.93,129.12,3
141,134.07,129.24,3
141,134.21,129.35,3
147,134.47,129.53,3
147,134.72,129.70,3
143,134.89,129.84,3
142,135.03,129.96,3
143,135.19,130.09,3
150,135.48,130.29,3
152,135.81,130.51,3
157,136.24,130.77,3
153,136.57,130.99,3
147,136.78,131.15,3
151,137.07,131.35,3
153,137.38,131.57,3
160,137.84,131.85,3
159,138.26,132.12,3
160,138.69,132.40,3
149,138.90,132.57,3
157,139.26,132.81,3
168,139.84,133.16,3
159,140.22,133.42,3
159,140.60,133.68,3
157,140.92,133.91,3
161,141.33,134.18,3
157,141.64,134.41,3
156,141.93,134.63,3
165,142.39,134.93,3
158,142.70,135.16,3
169,143.23,135.50,3
163,143.62,135.77,3
161,143.97,136.03,3
158,144.25,136.25,3
162,144.60,136.50,3
165,145.01,136.79,3
160,145.31,137.02,3
162,145.65,137.27,3
159,145.91,137.49,3
159,146.18,137.70,3
160,146.45,137.93,3
167,146.86,138.22,3
160,147.13,138.43,3
163,147.44,138.68,3
168,147.85,138.97,3
161,148.12,139.19,3
160,148.35,139.40,3
171,148.81,139.72,3
179,149.41,140.11,3
165,149.72,140.36,3
168,150.09,140.64,3
168,150.45,140.91,3
163,150.70,141.13,3
175,151.18,141.47,3
172,151.60,141.77,3
171,151.99,142.07,3
177,152.49,142.42,3
173,152.90,142.72,3
181,153.46,143.10,3
176,153.91,143.43,3
173,154.29,143.73,3
178,154.77,144.07,3
179,155.25,144.42,3
176,155.67,144.74,3
178,156.11,145.07,3
175,156.49,145.37,3
172,156.80,145.64,3
173,157.13,145.91,3
173,157.44,146.18,3
173,157.75,146.45,3
177,158.14,146.75,3
178,158.54,147.07,3
172,158.81,147.32,3
179,159.21,147.63,3
185,159.73,148.01,3
192,160.37,148.45,3
189,160.94,148.85,3
175,161.22,149.11,3
193,161.86,149.55,3
187,162.36,149.93,3
179,162.70,150.22,3
185,163.14,150.56,3
185,163.58,150.91,3
181,163.93,151.21,3
190,164.45,151.60,3
196,165.08,152.04,3
197,165.72,152.49,3
188,166.16,152.85,3
189,166.62,153.21,3
193,167.15,153.61,3
191,167.63,153.98,3
189,168.05,154.33,3
195,168.59,154.74,3
193,169.08,155.12,3
191,169.52,155.48,3
207,170.27,155.99,3
198,170.82,156.41,3
192,171.25,156.77,3
193,171.68,157.13,3
196,172.17,157.52,3
199,172.70,157.94,3
196,173.17,158.32,3
196,173.63,158.69,3
197,174.09,159.08,3
192,174.45,159.41,3
196,174.88,159.77,3
198,175.35,160.15,3
197,175.78,160.52,3
196,176.18,160.88,3
195,176.56,161.22,3
199,177.01,161.60,3
203,177.53,162.01,3
197,177.92,162.36,3
197,178.30,162.71,3
193,178.59,163.01,3
193,178.88,163.31,3
198,179.26,163.66,3
196,179.60,163.98,3
196,179.93,164.30,3
199,180.31,164.65,3
213,180.96,165.13,3
200,181.34,165.48,3
196,181.64,165.78,3
201,182.02,166.14,3
209,182.56,166.56,3
200,182.91,166.90,3
198,183.21,167.21,3
197,183.49,167.51,3
199,183.80,167.82,3
209,184.30,168.23,3
199,184.60,168.54,3
199,184.89,168.85,3
199,185.17,169.15,3
200,185.46,169.46,3
205,185.85,169.81,3
201,186.16,170.12,3
209,186.61,170.51,3
214,187.16,170.95,3
201,187.44,171.25,3
205,187.79,171.59,3
206,188.15,171.93,3
209,188.57,172.30,3
204,188.88,172.62,3
207,189.24,172.96,3
202,189.50,173.25,3
208,189.87,173.60,3
205,190.17,173.91,3
208,190.53,174.25,3
208,190.88,174.59,3
205,191.16,174.90,3
204,191.42,175.19,3
203,191.65,175.47,3
206,191.93,175.77,3
205,192.20,176.06,3
205,192.45,176.35,3
203,192.66,176.62,3
203,192.87,176.88,3
205,193.11,177.16,3
207,193.39,177.46,3
203,193.58,177.72,3
203,193.77,177.97,3
209,194.08,178.28,3
205,194.29,178.55,3
204,194.49,178.80,3
201,194.62,179.02,3
204,194.81,179.27,3
207,195.05,179.55,3
204,195.23,179.80,3
201,195.34,180.01,3
203,195.50,180.24,3
209,195.77,180.53,3
207,195.99,180.79,3
207,196.21,181.05,3
205,196.39,181.29,3
207,196.60,181.55,3
216,196.99,181.89,3
213,197.31,182.20,3
207,197.50,182.45,3
205,197.65,182.68,3
205,197.80,182.90,3
206,197.96,183.13,3
204,198.08,183.34,3
206,198.24,183.57,3
204,198.36,183.77,3
205,198.49,183.98,3
203,198.58,184.17,3
203,198.67,184.36,3
203,198.76,184.55,3
202,198.82,184.72,3
203,198.90,184.91,3
202,198.97,185.08,3
201,199.01,185.24,3
202,199.07,185.40,3
202,199.12,185.57,3
201,199.16,185.72,3
201,199.20,185.88,3
203,199.28,186.05,3
202,199.33,186.21,3
200,199.34,186.35,3
201,199.38,186.49,3
203,199.45,186.66,3
201,199.48,186.80,3
199,199.47,186.92,3
200,199.48,187.05,3
200,199.49,187.18,3
199,199.48,187.30,3
199,199.47,187.42,3
198,199.44,187.52,3
198,199.41,187.63,3
197,199.37,187.72,3
200,199.38,187.85,3
197,199.33,187.94,3
198,199.30,188.04,3
197,199.26,188.13,3
197,199.21,188.22,3
195,199.13,188.28,3
196,199.07,188.36,3
196,199.00,188.44,3
195,198.92,188.50,3
193,198.81,188.55,3
195,198.73,188.61,3
196,198.68,188.69,3
194,198.58,188.74,3
193,198.47,188.78,3
194,198.38,188.83,3
193,198.27,188.88,3
192,198.15,188.91,3
193,198.04,188.95,3
192,197.92,188.98,3
191,197.79,189.00,3
193,197.69,189.04,3
191,197.56,189.06,3
190,197.40,189.07,3
191,197.28,189.09,3
191,197.15,189.11,3
191,197.03,189.13,3
189,196.87,189.12,3
189,196.71,189.12,3
191,196.60,189.14,3
188,196.42,189.13,3
188,196.26,189.12,3
191,196.15,189.14,3
189,196.01,189.14,3
187,195.83,189.11,3
189,195.69,189.11,3
188,195.54,189.10,3
187,195.37,189.08,3
186,195.18,189.05,3
189,195.06,189.05,3
187,194.89,189.03,3
186,194.72,189.00,3
185,194.52,188.96,3
186,194.35,188.93,3
185,194.16,188.89,3
185,193.98,188.85,3
184,193.78,188.80,3
184,193.59,188.75,3
185,193.41,188.72,3
185,193.25,188.68,3
185,193.08,188.64,3
185,192.92,188.61,3
184,192.74,188.56,3
182,192.53,188.50,3
183,192.34,188.44,3
184,192.17,188.40,3
185,192.03,188.36,3
181,191.81,188.29,3
181,191.59,188.22,3
181,191.38,188.14,3
183,191.21,188.09,3
181,191.01,188.02,3
180,190.79,187.94,3
180,190.57,187.86,3
180,190.36,187.78,3
180,190.15,187.71,3
179,189.93,187.62,3
180,189.73,187.54,3
179,189.51,187.46,3
180,189.32,187.38,3
179,189.12,187.30,3
179,188.92,187.22,3
177,188.68,187.11,3
179,188.48,187.03,3
177,188.25,186.93,3
177,188.03,186.83,3
175,187.77,186.71,3
177,187.55,186.62,3
177,187.34,186.52,3
177,187.14,186.43,3
176,186.91,186.32,3
175,186.67,186.21,3
175,186.44,186.10,3
176,186.23,185.99,3
175,186.01,185.88,4
175,185.79,185.78,4
174,185.55,185.66,5
175,185.34,185.55,5
177,185.17,185.47,5
175,184.97,185.36,5
173,184.73,185.24,5
173,184.50,185.12,5
173,184.27,184.99,5
173,184.04,184.87,5
172,183.80,184.75,5
173,183.58,184.63,5
173,183.37,184.51,5
173,183.17,184.40,5
171,182.92,184.26,5
172,182.70,184.14,5
171,182.47,184.01,5
172,182.26,183.89,5
171,182.03,183.76,5
171,181.81,183.63,5
171,181.60,183.51,5
171,181.39,183.38,5
171,181.18,183.26,5
170,180.95,183.12,5
169,180.72,182.98,5
170,180.50,182.85,5
169,180.27,182.71,5
167,180.01,182.56,5
169,179.79,182.42,5
168,179.55,182.28,5
169,179.34,182.15,5
168,179.11,182.00,5
169,178.91,181.87,5
167,178.67,181.72,5
167,178.44,181.58,5
166,178.19,181.42,5
168,177.99,181.29,5
165,177.73,181.12,5
165,177.47,180.96,5
165,177.22,180.80,5
166,177.00,180.66,5
167,176.80,180.52,5
166,176.58,180.37,5
164,176.33,180.21,5
165,176.10,180.06,5
165,175.88,179.91,5
165,175.66,179.76,5
164,175.43,179.60,5
163,175.18,179.44,5
164,174.96,179.28,5
165,174.76,179.14,5
165,174.56,179.00,5
163,174.33,178.84,5
163,174.11,178.68,5
163,173.88,178.52,5
164,173.69,178.38,5
163,173.47,178.22,5
162,173.24,178.06,5
162,173.02,177.90,5
161,172.78,177.73,5
161,172.54,177.56,5
162,172.33,177.41,5
161,172.10,177.24,5
160,171.86,177.07,5
163,171.69,176.93,5
161,171.47,176.77,5
164,171.32,176.64,5
160,171.10,176.48,5
161,170.89,176.32,5
160,170.68,176.16,5
160,170.46,176.00,5
160,170.25,175.84,5
160,170.05,175.68,5
159,169.83,175.51,5
161,169.65,175.37,5
158,169.42,175.19,5
158,169.19,175.02,5
157,168.95,174.84,5
159,168.75,174.68,5
159,168.55,174.53,5
157,168.32,174.35,5
158,168.11,174.19,5
154,167.83,173.99,5
157,167.62,173.82,5
155,167.36,173.63,5
157,167.16,173.46,5
156,166.93,173.29,5
157,166.73,173.12,5
156,166.52,172.95,5
155,166.29,172.77,5
155,166.06,172.60,5
156,165.86,172.43,5
155,165.64,172.26,5
155,165.43,172.08,5
156,165.24,171.92,5
155,165.04,171.75,5
155,164.84,171.58,5
154,164.62,171.41,5
153,164.39,171.23,5
153,164.16,171.04,5
153,163.94,170.86,5
153,163.72,170.68,5
153,163.50,170.51,5
153,163.29,170.33,5
153,163.09,170.16,5
152,162.87,169.98,5
152,162.65,169.80,5
152,162.44,169.62,5
152,162.23,169.44,5
151,162.00,169.26,5
151,161.78,169.08,5
152,161.59,168.91,5
151,161.38,168.73,5
150,161.15,168.54,5
149,160.91,168.34,5
151,160.71,168.17,5
150,160.49,167.99,5
149,160.26,167.80,5
149,160.04,167.61,5
149,159.82,167.42,5
151,159.64,167.26,5
153,159.51,167.12,5
147,159.26,166.92,5
149,159.05,166.74,5
149,158.85,166.56,5
149,158.65,166.38,5
148,158.44,166.20,5
147,158.21,166.01,5
148,158.01,165.83,5
146,157.77,165.63,5
149,157.59,165.46,5
147,157.38,165.28,5
148,157.19,165.11,5
146,156.97,164.92,5
145,156.73,164.72,5
149,156.58,164.56,5
145,156.34,164.36,5
146,156.14,164.18,5
146,155.93,164.00,5
146,155.74,163.82,5
146,155.54,163.64,5
145,155.33,163.45,5
145,155.12,163.27,5
145,154.92,163.09,5
145,154.72,162.91,5
145,154.53,162.73,5
145,154.34,162.55,5
144,154.13,162.36,5
145,153.95,162.19,5
144,153.75,162.01,5
144,153.55,161.83,5
145,153.38,161.66,5
145,153.22,161.49,5
145,153.05,161.33,5
145,152.89,161.16,5
144,152.71,160.99,5
143,152.52,160.81,5
145,152.37,160.66,5
144,152.20,160.49,5
143,152.02,160.31,5
142,151.82,160.13,5
142,151.62,159.95,5
142,151.43,159.77,5
141,151.22,159.58,5
143,151.05,159.42,5
141,150.85,159.23,5
141,150.66,159.05,5
141,150.46,158.87,5
140,150.25,158.68,5
141,150.07,158.50,5
141,149.89,158.33,5
141,149.71,158.16,5
141,149.54,157.98,5
140,149.34,157.80,5
140,149.16,157.63,5
140,148.97,157.45,5
139,148.78,157.27,5
140,148.60,157.09,5
139,148.41,156.91,5
139,148.22,156.73,5
139,148.04,156.56,5
139,147.85,156.38,5
141,147.72,156.23,5
140,147.56,156.06,5
139,147.39,155.89,5
139,147.22,155.72,5
140,147.08,155.57,5
140,146.94,155.41,5
137,146.74,155.23,5
137,146.54,155.04,5
139,146.39,154.88,5
137,146.21,154.71,5
137,146.02,154.53,5
138,145.86,154.36,5
137,145.68,154.19,5
137,145.51,154.02,5
137,145.34,153.85,5
139,145.21,153.70,5
139,145.09,153.55,5
136,144.91,153.38,5
138,144.77,153.22,5
137,144.61,153.06,5
139,144.50,152.92,5
138,144.37,152.77,5
138,144.24,152.62,5
136,144.08,152.46,5
137,143.94,152.30,5
137,143.80,152.15,5
135,143.62,151.98,5
136,143.47,151.82,5
137,143.34,151.67,5
135,143.17,151.50,5
136,143.03,151.35,5
135,142.87,151.18,5
136,142.73,151.03,5
137,142.62,150.89,5
135,142.47,150.73,5
136,142.34,150.59,5
135,142.19,150.43,5
137,142.09,150.30,5
134,141.92,150.13,5
134,141.77,149.97,5
135,141.63,149.82,5
136,141.52,149.68,5
133,141.35,149.52,5
134,141.20,149.36,5
135,141.08,149.22,5
134,140.93,149.07,5
135,140.82,148.93,5
133,140.66,148.77,5
135,140.55,148.63,5
133,140.40,148.47,5
136,140.31,148.35,5
135,140.20,148.21,5
133,140.06,148.06,5
133,139.92,147.91,5
135,139.82,147.78,5
133,139.68,147.63,5
133,139.55,147.49,5
133,139.42,147.34,5
133,139.29,147.20,5
133,139.16,147.06,5
134,139.06,146.93,5
133,138.94,146.79,5
133,138.82,146.65,5
131,138.66,146.49,5
133,138.55,146.36,5
133,138.44,146.22,5
131,138.29,146.07,5
132,138.16,145.93,5
134,138.08,145.81,5
136,138.04,145.71,5
133,137.94,145.59,5
131,137.80,145.44,5
133,137.70,145.32,5
133,137.61,145.19,5
133,137.52,145.07,5
132,137.41,144.94,5
131,137.28,144.80,5
133,137.19,144.68,5
132,137.09,144.56,5
132,136.99,144.43,5
131,136.87,144.30,5
131,136.75,144.16,5
132,136.66,144.04,5
130,136.52,143.90,5
129,136.37,143.75,5
131,136.26,143.63,5
132,136.18,143.51,5
131,136.08,143.38,5
132,135.99,143.27,5
129,135.85,143.13,5
131,135.76,143.01,5
131,135.66,142.89,5
134,135.63,142.80,5
134,135.60,142.71,5
130,135.48,142.58,5
130,135.37,142.46,5
131,135.29,142.34,5
132,135.22,142.24,5
131,135.14,142.13,5
130,135.03,142.00,5
130,134.93,141.88,5
131,134.86,141.78,5
129,134.74,141.65,5
129,134.62,141.52,5
129,134.51,141.40,5
129,134.40,141.27,5
131,134.33,141.17,5
131,134.27,141.07,5
131,134.20,140.97,5
130,134.12,140.86,5
129,134.01,140.74,5
129,133.91,140.62,5
133,133.90,140.55,5
131,133.84,140.45,5
131,133.78,140.36,5
130,133.71,140.25,5
129,133.61,140.14,5
130,133.54,140.04,5
129,133.45,139.93,5
129,133.36,139.82,5
129,133.27,139.71,5
129,133.19,139.60,5
128,133.08,139.49,5
128,132.98,139.37,5
130,132.92,139.28,5
129,132.84,139.18,5
129,132.77,139.07,5
127,132.65,138.95,5
128,132.56,138.84,5
129,132.49,138.75,5
129,132.42,138.65,5
128,132.33,138.54,5
127,132.22,138.43,5
128,132.14,138.32,5
129,132.08,138.23,5
128,131.99,138.13,5
127,131.89,138.01,5
127,131.80,137.90,5
127,131.70,137.80,5
128,131.63,137.70,5
127,131.53,137.59,5
127,131.44,137.48,5
127,131.35,137.38,5
127,131.27,137.28,5
127,131.18,137.17,5
125,131.06,137.05,5
127,130.98,136.95,5
127,130.90,136.85,5
126,130.80,136.74,5
125,130.68,136.63,5
125,130.57,136.51,5
125,130.46,136.39,5
125,130.35,136.28,5
127,130.28,136.19,5
126,130.20,136.09,5
124,130.07,135.97,5
125,129.97,135.86,5
125,129.87,135.75,5
126,129.79,135.65,5
124,129.68,135.53,5
123,129.54,135.41,5
124,129.43,135.29,5
123,129.31,135.17,5
124,129.20,135.06,5
125,129.12,134.96,5
125,129.03,134.86,5
127,128.99,134.78,5
125,128.91,134.68,5
124,128.81,134.58,5
125,128.74,134.48,5
125,128.66,134.38,5
125,128.59,134.29,5
126,128.54,134.21,5
124,128.45,134.11,5
123,128.34,134.00,5
125,128.27,133.91,5
125,128.21,133.82,5
125,128.14,133.73,5
123,128.04,133.62,5
123,127.94,133.51,5
123,127.84,133.41,5
124,127.76,133.32,5
125,127.71,133.23,5
122,127.59,133.12,5
121,127.46,133.00,5
123,127.37,132.90,5
123,127.28,132.80,5
121,127.16,132.68,5
122,127.06,132.57,5
122,126.95,132.47,5
124,126.90,132.38,5
123,126.82,132.29,5
121,126.70,132.18,5
121,126.59,132.07,5
121,126.48,131.96,5
122,126.39,131.86,5
121,126.28,131.75,5
121,126.17,131.64,5
120,126.05,131.52,5
124,126.01,131.45,5
123,125.95,131.36,5
122,125.87,131.27,5
124,125.83,131.20,5
124,125.80,131.13,5
125,125.78,131.06,5
124,125.74,130.99,5
123,125.69,130.91,5
123,125.64,130.83,5
124,125.60,130.77,5
123,125.55,130.69,5
121,125.46,130.59,5
122,125.39,130.51,5
121,125.30,130.41,5
121,125.22,130.32,5
121,125.13,130.22,5
121,125.05,130.13,5
123,125.01,130.06,5
121,124.93,129.97,5
122,124.87,129.89,5
120,124.77,129.79,5
121,124.70,129.70,5
121,124.62,129.62,5
121,124.55,129.53,5
121,124.48,129.44,5
119,124.37,129.34,5
120,124.28,129.25,5
121,124.22,129.16,5
121,124.15,129.08,5
121,124.09,129.00,5
119,123.99,128.90,5
119,123.89,128.80,5
119,123.79,128.70,5
120,123.71,128.62,5
120,123.64,128.53,5
119,123.55,128.44,5
119,123.46,128.34,5
119,123.37,128.25,5
125,123.40,128.22,5
120,123.33,128.13,5
119,123.25,128.04,5
117,123.12,127.93,5
119,123.04,127.84,5
121,123.00,127.77,5
120,122.94,127.70,5
118,122.84,127.60,5
118,122.74,127.50,5
120,122.69,127.43,5
119,122.61,127.34,5
117,122.50,127.24,5
118,122.41,127.15,5
120,122.36,127.08,5
119,122.30,127.00,5
117,122.19,126.90,5
119,122.13,126.82,5
120,122.08,126.75,5
120,122.04,126.68,5
117,121.94,126.58,5
117,121.84,126.49,5
119,121.79,126.41,5
119,121.73,126.34,5
119,121.67,126.27,5
117,121.58,126.17,5
119,121.53,126.10,5
117,121.44,126.01,5
117,121.35,125.92,5
119,121.30,125.85,5
118,121.24,125.77,5
117,121.15,125.69,5
118,121.09,125.61,5
117,121.01,125.52,5
118,120.95,125.45,5
117,120.87,125.36,5
117,120.79,125.28,5
116,120.70,125.19,5
116,120.60,125.09,5
117,120.53,125.01,5
118,120.48,124.94,5
117,120.41,124.86,5
116,120.32,124.78,5
117,120.25,124.70,5
116,120.17,124.61,5
115,120.07,124.51,5
116,119.98,124.43,5
116,119.91,124.34,5
117,119.85,124.27,5
116,119.77,124.19,5
115,119.67,124.10,5
115,119.58,124.01,5
117,119.53,123.94,5
118,119.50,123.88,5
116,119.43,123.80,5
115,119.34,123.71,5
115,119.25,123.62,5
115,119.17,123.54,5
116,119.11,123.46,5
115,119.02,123.38,5
115,118.94,123.29,5
115,118.86,123.21,5
115,118.79,123.13,5
115,118.71,123.05,5
115,118.64,122.97,5
115,118.56,122.89,5
113,118.45,122.79,5
113,118.34,122.69,5
115,118.28,122.61,5
115,118.21,122.54,5
115,118.15,122.46,5
117,118.12,122.41,5
115,118.06,122.33,5
115,118.00,122.26,5
113,117.90,122.17,5
114,117.82,122.08,5
113,117.73,121.99,5
117,117.71,121.94,5
115,117.66,121.87,5
115,117.60,121.81,5
117,117.59,121.76,5
115,117.54,121.69,5
113,117.45,121.60,5
114,117.38,121.53,5
117,117.37,121.48,5
117,117.37,121.44,5
115,117.32,121.37,5
114,117.25,121.30,5
118,117.27,121.27,5
115,117.22,121.20,5
116,117.20,121.15,5
113,117.11,121.07,5
115,117.07,121.01,5
114,117.01,120.94,5
115,116.97,120.88,5
116,116.95,120.83,5
114,116.89,120.76,5
115,116.85,120.71,5
116,116.84,120.66,5
113,116.76,120.58,5
113,116.68,120.51,5
116,116.67,120.46,5
115,116.64,120.41,5
113,116.56,120.33,5
115,116.53,120.28,5
115,116.50,120.23,5
113,116.43,120.15,5
116,116.42,120.11,5
113,116.36,120.04,5
115,116.33,119.99,5
113,116.26,119.92,5
112,116.18,119.84,5
115,116.15,119.79,5
113,116.09,119.73,5
113,116.03,119.66,5
113,115.97,119.59,5
113,115.91,119.53,5
113,115.85,119.46,5
113,115.79,119.40,5
113,115.74,119.33,5
113,115.68,119.27,5
112,115.61,119.20,5
115,115.60,119.15,5
113,115.54,119.09,5
115,115.53,119.05,5
111,115.44,118.97,5
113,115.39,118.91,5
113,115.35,118.85,5
115,115.34,118.81,5
113,115.29,118.76,5
114,115.27,118.71,5
115,115.26,118.67,5
112,115.20,118.60,5
117,115.23,118.59,5
116,115.25,118.56,5
114,115.22,118.52,5
113,115.18,118.46,5
115,115.17,118.43,5
119,115.25,118.43,5
119,115.33,118.44,5
116,115.34,118.41,5
114,115.31,118.37,5
116,115.33,118.35,5
117,115.36,118.33,5
118,115.41,118.33,5
116,115.42,118.31,5
116,115.44,118.28,5
115,115.43,118.25,5
117,115.46,118.24,5
115,115.45,118.20,5
120,115.54,118.22,5
116,115.55,118.20,5
116,115.56,118.18,5
115,115.55,118.15,5
115,115.54,118.12,5
115,115.53,118.08,5
115,115.52,118.05,5
116,115.53,118.03,5
115,115.51,118.00,5
114,115.48,117.96,5
116,115.49,117.94,5
115,115.48,117.91,5
115,115.48,117.88,5
117,115.51,117.88,5
117,115.54,117.87,5
113,115.48,117.82,5
117,115.52,117.81,5
115,115.50,117.78,5
115,115.49,117.75,5
117,115.52,117.75,5
115,115.51,117.72,5
113,115.46,117.67,5
115,115.45,117.65,5
115,115.45,117.62,5
116,115.46,117.60,5
117,115.49,117.60,5
114,115.46,117.56,5
119,115.53,117.57,5
121,115.64,117.61,5
116,115.65,117.59,5
116,115.65,117.58,5
116,115.66,117.56,5
118,115.71,117.57,5
115,115.69,117.54,5
115,115.68,117.51,5
117,115.70,117.51,5
117,115.73,117.50,5
116,115.74,117.49,5
115,115.72,117.46,5
117,115.75,117.46,5
115,115.73,117.44,5
116,115.74,117.42,5
117,115.76,117.42,5
115,115.75,117.39,5
117,115.77,117.39,5
113,115.72,117.34,5
113,115.66,117.30,5
114,115.63,117.27,5
115,115.62,117.25,5
115,115.60,117.22,5
115,115.59,117.20,5
114,115.56,117.17,5
117,115.59,117.17,5
117,115.62,117.17,5
114,115.59,117.13,5
113,115.53,117.09,5
113,115.48,117.05,5
114,115.45,117.02,5
115,115.44,117.00,5
117,115.48,117.00,5
115,115.47,116.98,5
113,115.42,116.94,5
115,115.41,116.92,5
114,115.38,116.89,5
114,115.35,116.86,5
113,115.31,116.82,5
116,115.32,116.82,5
115,115.31,116.80,5
113,115.27,116.76,5
113,115.22,116.72,5
115,115.22,116.71,5
115,115.21,116.69,5
112,115.15,116.64,5
114,115.13,116.62,5
114,115.10,116.59,5
115,115.10,116.57,5
118,115.16,116.59,5
116,115.18,116.58,5
114,115.15,116.56,5
119,115.23,116.58,5
120,115.32,116.61,5
116,115.34,116.61,5
117,115.37,116.61,5
115,115.36,116.60,5
116,115.38,116.59,5
113,115.33,116.55,5
114,115.30,116.53,5
116,115.32,116.52,5
119,115.39,116.55,5
116,115.40,116.54,5
115,115.39,116.53,5
118,115.45,116.54,5
115,115.44,116.53,5
115,115.43,116.51,5
119,115.50,116.54,5
115,115.49,116.52,5
114,115.46,116.50,5
119,115.53,116.52,5
115,115.52,116.51,5
117,115.55,116.51,5
116,115.56,116.51,5
116,115.57,116.50,5
117,115.60,116.51,5
115,115.58,116.49,5
116,115.59,116.49,5
120,115.68,116.52,5
120,115.77,116.56,5
119,115.83,116.58,5
116,115.84,116.57,5
119,115.90,116.60,5
115,115.88,116.58,5
117,115.90,116.59,5
118,115.95,116.60,5
119,116.01,116.62,5
117,116.03,116.63,5
119,116.09,116.65,5
116,116.08,116.65,5
117,116.10,116.65,5
117,116.12,116.65,5
117,116.14,116.66,5
117,116.15,116.66,5
117,116.17,116.66,5
115,116.15,116.65,5
117,116.17,116.65,5
116,116.16,116.64,5
116,116.16,116.64,5
115,116.14,116.62,5
115,116.11,116.60,5
117,116.13,116.61,5
120,116.21,116.64,5
117,116.22,116.65,5
118,116.26,116.66,5
119,116.31,116.68,5
116,116.31,116.68,5
120,116.38,116.71,5
117,116.39,116.71,5
122,116.51,116.76,5
116,116.50,116.76,5
117,116.51,116.76,5
127,116.72,116.86,5
119,116.76,116.88,5
117,116.77,116.88,5
120,116.83,116.92,5
120,116.89,116.95,5
121,116.98,116.99,5
119,117.02,117.01,5
123,117.14,117.07,5
125,117.29,117.15,5
122,117.39,117.20,5
125,117.54,117.27,5
119,117.57,117.29,5
123,117.68,117.35,5
123,117.78,117.40,5
127,117.97,117.50,5
122,118.05,117.54,5
127,118.23,117.64,5
126,118.38,117.72,5
123,118.48,117.78,5
125,118.61,117.85,5
121,118.65,117.88,5
123,118.74,117.93,5
125,118.87,118.00,5
122,118.93,118.04,5
124,119.03,118.10,5
127,119.19,118.19,5
124,119.29,118.25,5
125,119.40,118.32,5
126,119.53,118.39,5
122,119.58,118.43,5
125,119.69,118.49,5
124,119.78,118.55,5
123,119.84,118.59,5
125,119.94,118.66,5
129,120.13,118.76,5
123,120.18,118.80,5
121,120.20,118.83,5
124,120.28,118.88,5
128,120.43,118.97,5
130,120.62,119.08,5
127,120.75,119.16,5
128,120.89,119.25,5
127,121.02,119.32,5
131,121.22,119.44,5
127,121.33,119.52,5
127,121.44,119.59,5
125,121.52,119.65,5
126,121.61,119.71,5
125,121.67,119.76,5
128,121.80,119.84,5
131,121.98,119.96,5
131,122.16,120.07,5
128,122.28,120.15,5
133,122.50,120.27,5
133,122.71,120.40,5
136,122.97,120.56,5
130,123.11,120.65,5
133,123.31,120.78,5
136,123.56,120.93,5
133,123.75,121.05,5
131,123.90,121.15,5
129,124.00,121.23,5
133,124.18,121.34,5
134,124.38,121.47,5
139,124.67,121.65,5
132,124.81,121.75,5
131,124.94,121.84,5
131,125.06,121.93,5
129,125.14,122.00,5
133,125.30,122.11,5
136,125.51,122.25,5
139,125.78,122.42,5
133,125.92,122.53,5
134,126.09,122.64,5
135,126.26,122.76,5
133,126.40,122.87,5
136,126.59,123.00,5
139,126.84,123.16,5
137,127.04,123.30,5
140,127.30,123.46,5
133,127.42,123.56,5
141,127.69,123.73,5
135,127.83,123.85,5
133,127.94,123.94,5
137,128.12,124.07,5
140,128.36,124.23,5
134,128.47,124.33,5
139,128.68,124.47,5
142,128.95,124.65,5
143,129.23,124.83,5
140,129.44,124.98,5
141,129.67,125.14,5
139,129.86,125.28,5
140,130.06,125.43,5
139,130.24,125.56,5
137,130.38,125.68,5
137,130.51,125.79,5
137,130.64,125.90,5
140,130.83,126.04,5
141,131.03,126.19,5
139,131.19,126.32,5
137,131.30,126.43,5
137,131.42,126.54,5
141,131.61,126.68,5
141,131.80,126.82,5
143,132.02,126.98,5
149,132.36,127.20,5
146,132.63,127.39,5
143,132.84,127.55,5
144,133.07,127.71,5
147,133.34,127.91,5
146,133.60,128.09,5
141,133.75,128.22,5
142,133.91,128.35,5
148,134.19,128.55,5
146,134.43,128.73,5
145,134.64,128.89,5
145,134.85,129.05,5
142,134.99,129.18,5
151,135.31,129.40,5
146,135.52,129.56,5
145,135.71,129.72,5
144,135.88,129.86,5
149,136.14,130.05,5
152,136.46,130.27,5
152,136.77,130.49,5
153,137.09,130.71,5
149,137.33,130.90,5
149,137.57,131.08,5
147,137.75,131.24,5
150,138.00,131.42,5
148,138.20,131.59,5
145,138.34,131.72,5
149,138.55,131.90,5
158,138.94,132.16,5
150,139.16,132.34,5
154,139.46,132.55,5
156,139.79,132.79,5
151,140.01,132.97,5
149,140.19,133.13,5
161,140.61,133.41,5
166,141.11,133.73,5
168,141.65,134.08,5
159,142.00,134.33,5
167,142.50,134.65,5
175,143.15,135.06,5
173,143.75,135.44,5
168,144.23,135.76,5
163,144.61,136.03,5
170,145.11,136.37,5
178,145.77,136.79,5
171,146.28,137.13,5
165,146.65,137.41,5
164,147.00,137.68,5
182,147.70,138.12,5
179,148.32,138.53,5
172,148.80,138.86,5
173,149.28,139.20,5
175,149.80,139.56,5
188,150.56,140.05,5
190,151.35,140.55,5
181,151.94,140.95,5
190,152.70,141.44,5
193,153.51,141.96,5
187,154.18,142.41,5
184,154.78,142.82,5
181,155.30,143.21,5
190,155.99,143.67,5
190,156.67,144.14,5
191,157.36,144.61,5
197,158.15,145.13,5
185,158.69,145.53,5
195,159.42,146.02,5
198,160.19,146.54,5
199,160.96,147.07,5
188,161.51,147.48,5
190,162.08,147.90,5
190,162.63,148.32,5
189,163.16,148.73,5
197,163.84,149.21,5
194,164.44,149.66,5
196,165.07,150.12,5
190,165.57,150.52,5
189,166.04,150.91,5
198,166.68,151.38,5
195,167.24,151.81,5
189,167.68,152.19,5
192,168.17,152.58,5
195,168.70,153.01,5
198,169.29,153.46,5
197,169.84,153.89,5
194,170.33,154.29,5
193,170.78,154.68,5
195,171.26,155.08,5
205,171.94,155.58,5
205,172.60,156.08,5
200,173.15,156.52,5
195,173.59,156.90,5
207,174.25,157.40,5
197,174.71,157.80,5
201,175.23,158.23,5
201,175.75,158.66,5
201,176.25,159.08,5
212,176.97,159.61,5
206,177.55,160.08,5
209,178.18,160.56,5
199,178.60,160.95,5
207,179.16,161.41,5
209,179.76,161.89,5
211,180.39,162.38,5
207,180.92,162.82,5
203,181.36,163.22,5
211,181.95,163.70,5
215,182.61,164.22,5
202,183.00,164.59,5
211,183.56,165.06,5
212,184.13,165.53,5
213,184.71,166.00,5
213,185.27,166.47,5
207,185.71,166.88,5
209,186.17,167.30,5
209,186.63,167.71,5
206,187.02,168.10,5
205,187.38,168.47,5
205,187.73,168.83,5
207,188.11,169.21,5
204,188.43,169.56,5
205,188.76,169.92,5
207,189.13,170.29,5
206,189.47,170.64,5
205,189.78,170.99,5
207,190.12,171.35,5
214,190.60,171.77,5
207,190.93,172.13,5
208,191.27,172.49,5
211,191.66,172.87,5
213,192.09,173.27,5
213,192.51,173.67,5
208,192.82,174.01,5
207,193.10,174.34,5
209,193.42,174.69,5
215,193.85,175.09,5
215,194.27,175.49,5
217,194.73,175.91,5
223,195.29,176.38,5
214,195.67,176.75,5
213,196.01,177.12,5
217,196.43,177.51,5
215,196.81,177.89,5
210,197.07,178.21,5
211,197.35,178.54,5
209,197.58,178.84,5
209,197.81,179.14,5
210,198.05,179.45,5
212,198.33,179.78,5
208,198.53,180.06,5
209,198.74,180.35,5
207,198.90,180.62,5
210,199.12,180.91,5
207,199.28,181.17,5
209,199.47,181.45,5
209,199.66,181.73,5
210,199.87,182.01,5
213,200.13,182.32,5
211,200.35,182.60,5
213,200.60,182.91,5
209,200.77,183.17,5
215,201.06,183.49,5
215,201.34,183.80,5
210,201.51,184.06,5
212,201.72,184.34,5
220,202.08,184.70,5
213,202.30,184.98,5
210,202.46,185.23,5
218,202.77,185.56,5
221,203.13,185.92,5
217,203.41,186.23,5
220,203.74,186.56,5
214,203.95,186.84,5
217,204.21,187.14,5
217,204.46,187.44,5
216,204.69,187.72,5
215,204.90,188.00,5
214,205.08,188.26,5
214,205.26,188.51,5
213,205.42,188.76,5
211,205.53,188.98,5
211,205.64,189.20,5
211,205.74,189.42,5
211,205.85,189.64,5
211,205.95,189.85,5
211,206.05,190.06,5
211,206.15,190.27,5
210,206.23,190.47,5
209,206.28,190.65,5
210,206.36,190.85,5
209,206.41,191.03,5
209,206.46,191.21,5
209,206.51,191.39,5
207,206.52,191.54,5
208,206.55,191.71,5
207,206.56,191.86,5
207,206.57,192.01,5
210,206.64,192.19,5
207,206.65,192.34,5
206,206.63,192.48,5
207,206.64,192.62,5
207,206.65,192.76,5
205,206.62,192.89,5
205,206.58,193.01,5
204,206.53,193.12,5
205,206.50,193.24,5
205,206.47,193.35,5
204,206.42,193.46,5
205,206.39,193.58,5
204,206.35,193.68,5
204,206.30,193.78,5
207,206.31,193.92,5
203,206.25,194.01,5
203,206.18,194.10,5
204,206.14,194.20,5
203,206.07,194.28,5
203,206.01,194.37,5
203,205.95,194.46,5
201,205.85,194.52,5
202,205.78,194.60,5
201,205.68,194.66,5
202,205.61,194.73,5
200,205.50,194.79,5
203,205.45,194.87,5
203,205.40,194.95,5
201,205.31,195.01,5
201,205.22,195.07,5
201,205.14,195.13,5
199,205.02,195.17,5
200,204.92,195.22,5
200,204.82,195.27,5
201,204.74,195.32,5
199,204.63,195.36,5
200,204.53,195.41,5
200,204.44,195.45,5
199,204.33,195.49,5
199,204.23,195.52,5
198,204.10,195.55,5
197,203.96,195.56,5
197,203.82,195.58,5
199,203.72,195.61,5
196,203.57,195.61,5
198,203.46,195.64,5
197,203.33,195.65,5
197,203.20,195.67,5
197,203.08,195.68,5
197,202.96,195.69,5
195,202.80,195.68,5
195,202.64,195.68,5
195,202.49,195.67,5
195,202.34,195.66,5
195,202.19,195.66,5
195,202.05,195.65,5
195,201.91,195.64,5
194,201.75,195.63,5
195,201.61,195.62,5
193,201.44,195.60,5
192,201.25,195.56,5
193,201.09,195.53,5
194,200.95,195.52,5
191,200.75,195.47,5
195,200.63,195.47,5
194,200.50,195.45,5
193,200.35,195.43,5
192,200.18,195.40,5
191,200.00,195.35,5
191,199.82,195.31,5
191,199.64,195.27,5
192,199.49,195.23,5
192,199.34,195.20,5
189,199.13,195.14,5
189,198.93,195.08,5
189,198.73,195.02,5
191,198.58,194.98,5
189,198.39,194.92,5
191,198.24,194.88,5
188,198.03,194.81,5
187,197.81,194.73,5
188,197.62,194.66,5
189,197.44,194.61,5
188,197.26,194.54,5
187,197.05,194.46,5
188,196.87,194.40,5
188,196.69,194.34,5
187,196.50,194.26,5
185,196.27,194.17,5
185,196.04,194.08,5
185,195.82,193.99,5
185,195.61,193.90,5
185,195.39,193.81,5
185,195.19,193.72,5
186,195.00,193.64,5
185,194.80,193.56,5
185,194.61,193.47,5
183,194.37,193.37,5
185,194.19,193.28,5
187,194.04,193.22,5
183,193.82,193.12,5
181,193.57,193.00,5
183,193.35,192.90,5
183,193.15,192.80,5
183,192.94,192.70,5
182,192.73,192.59,5
181,192.49,192.48,6
181,192.26,192.36,6
181,192.04,192.25,6
181,191.81,192.14,6
180,191.58,192.01,6
180,191.35,191.89,6
181,191.14,191.79,6
181,190.94,191.68,6
179,190.70,191.55,6
180,190.48,191.44,6
179,190.25,191.31,6
179,190.03,191.19,6
181,189.85,191.09,6
180,189.65,190.98,6
179,189.44,190.86,6
179,189.23,190.74,6
180,189.05,190.63,6
179,188.84,190.51,6
177,188.61,190.38,6
177,188.38,190.24,6
175,188.11,190.09,6
177,187.89,189.96,6
177,187.67,189.83,6
176,187.44,189.69,6
177,187.23,189.57,6
175,186.98,189.42,6
176,186.76,189.29,6
175,186.53,189.14,6
175,186.30,189.00,6
175,186.07,188.86,6
177,185.89,188.74,6
175,185.67,188.61,6
174,185.44,188.46,6
175,185.23,188.33,6
173,184.98,188.17,6
175,184.78,188.04,6
174,184.57,187.90,6
173,184.34,187.75,6
172,184.09,187.59,6
173,183.87,187.45,6
173,183.65,187.30,6
173,183.44,187.16,6
171,183.19,187.00,6
171,182.95,186.84,6
172,182.73,186.69,6
172,182.51,186.54,6
172,182.30,186.40,6
171,182.08,186.24,6
171,181.85,186.09,6
170,181.62,185.93,6
171,181.41,185.78,6
169,181.16,185.61,6
170,180.93,185.46,6
170,180.72,185.30,6
171,180.52,185.16,6
169,180.29,185.00,6
169,180.07,184.84,6
168,179.82,184.67,6
169,179.61,184.51,6
169,179.40,184.36,6
168,179.17,184.19,6
169,178.96,184.04,6
168,178.74,183.88,6
169,178.55,183.73,6
169,178.36,183.59,6
167,178.13,183.42,6
168,177.93,183.27,6
169,177.75,183.12,6
168,177.56,182.97,6
167,177.34,182.81,6
166,177.12,182.64,6
166,176.90,182.48,6
166,176.68,182.31,6
167,176.48,182.16,6
165,176.25,181.99,6
165,176.03,181.82,6
164,175.79,181.64,6
167,175.61,181.49,6
166,175.42,181.34,6
166,175.23,181.19,6
164,175.01,181.01,6
165,174.81,180.85,6
165,174.61,180.69,6
166,174.44,180.55,6
164,174.23,180.38,6
164,174.03,180.22,6
165,173.84,180.07,6
169,173.75,179.96,6
164,173.55,179.80,6
163,173.34,179.63,6
165,173.18,179.48,6
163,172.97,179.32,6
163,172.77,179.15,6
162,172.56,178.98,6
161,172.33,178.80,6
161,172.10,178.62,6
163,171.92,178.47,6
161,171.70,178.29,6
161,171.48,178.12,6
161,171.28,177.95,6
161,171.07,177.78,6
160,170.85,177.60,6
160,170.63,177.43,6
160,170.42,177.25,6
160,170.21,177.08,6
161,170.03,176.92,6
159,169.81,176.74,6
160,169.61,176.57,6
160,169.42,176.41,6
159,169.21,176.23,6
160,169.02,176.07,6
161,168.86,175.92,6
158,168.65,175.74,6
158,168.43,175.56,6
157,168.21,175.38,6
157,167.98,175.19,6
158,167.78,175.02,6
155,167.53,174.82,6
158,167.34,174.65,6
158,167.15,174.49,6
159,166.99,174.33,6
157,166.79,174.16,6
155,166.55,173.97,6
155,166.32,173.78,6
157,166.13,173.61,6
158,165.97,173.45,6
157,165.79,173.29,6
156,165.60,173.12,6
157,165.42,172.95,6
157,165.25,172.80,6
155,165.05,172.62,6
156,164.87,172.45,6
156,164.69,172.29,6
156,164.52,172.12,6
155,164.33,171.95,6
155,164.14,171.78,6
155,163.96,171.61,6
153,163.74,171.43,6
155,163.56,171.26,6
155,163.39,171.10,6
155,163.22,170.94,6
153,163.02,170.76,6
157,162.90,170.62,6
156,162.76,170.48,6
153,162.57,170.30,6
154,162.40,170.14,6
153,162.21,169.97,6
153,162.02,169.80,6
153,161.84,169.63,6
152,161.65,169.45,6
153,161.47,169.29,6
155,161.34,169.15,6
153,161.18,168.99,6
153,161.01,168.83,6
153,160.85,168.67,6
153,160.70,168.51,6
155,160.58,168.38,6
154,160.45,168.23,6
153,160.30,168.08,6
152,160.14,167.92,6
154,160.01,167.78,6
154,159.89,167.64,6
153,159.75,167.50,6
153,159.62,167.35,6
151,159.45,167.19,6
151,159.28,167.03,6
151,159.11,166.86,6
150,158.93,166.70,6
150,158.75,166.53,6
149,158.56,166.35,6
149,158.37,166.18,6
149,158.18,166.01,6
149,157.99,165.84,6
149,157.81,165.67,6
149,157.64,165.50,6
149,157.47,165.34,6
149,157.30,165.18,6
149,157.13,165.01,6
148,156.95,164.84,6
149,156.79,164.68,6
149,156.63,164.53,6
148,156.46,164.36,6
148,156.29,164.20,6
148,156.13,164.04,6
147,155.94,163.87,6
147,155.76,163.70,6
147,155.59,163.53,6
147,155.42,163.37,6
147,155.25,163.20,6
146,155.06,163.03,6
146,154.88,162.86,6
145,154.68,162.68,6
146,154.51,162.51,6
146,154.34,162.35,6
145,154.15,162.18,6
145,153.97,162.00,6
147,153.83,161.85,6
145,153.65,161.69,6
149,153.56,161.56,6
148,153.45,161.42,6
145,153.28,161.26,6
145,153.12,161.10,6
147,152.99,160.96,6
151,152.95,160.86,6
149,152.87,160.74,6
146,152.74,160.59,6
145,152.58,160.43,6
147,152.47,160.30,6
147,152.36,160.17,6
147,152.25,160.03,6
145,152.11,159.88,6
145,151.97,159.74,6
145,151.83,159.59,6
145,151.69,159.44,6
144,151.54,159.29,6
145,151.41,159.15,6
145,151.28,159.00,6
147,151.19,158.88,6
145,151.07,158.74,6
144,150.93,158.60,6
143,150.77,158.44,6
144,150.63,158.30,6
147,150.56,158.18,6
145,150.45,158.05,6
145,150.34,157.92,6
143,150.19,157.77,6
145,150.09,157.64,6
143,149.95,157.50,6
143,149.81,157.35,6
143,149.67,157.21,6
144,149.56,157.08,6
141,149.39,156.92,6
142,149.24,156.77,6
142,149.10,156.62,6
141,148.93,156.46,6
143,148.82,156.33,6
141,148.66,156.18,6
140,148.49,156.01,6
141,148.34,155.86,6
141,148.19,155.72,6
141,148.05,155.57,6
141,147.90,155.42,6
142,147.79,155.29,6
142,147.67,155.16,6
141,147.54,155.01,6
142,147.43,154.88,6
139,147.26,154.72,6
141,147.13,154.59,6
143,147.05,154.47,6
141,146.93,154.34,6
141,146.81,154.20,6
139,146.65,154.05,6
137,146.46,153.88,6
140,146.33,153.74,6
141,146.23,153.61,6
139,146.08,153.47,6
140,145.96,153.33,6
141,145.86,153.21,6
140,145.74,153.08,6
139,145.61,152.94,6
138,145.46,152.79,6
139,145.33,152.65,6
140,145.22,152.52,6
137,145.06,152.37,6
140,144.95,152.25,6
137,144.80,152.09,6
138,144.66,151.95,6
138,144.53,151.81,6
137,144.38,151.66,6
137,144.23,151.52,6
137,144.08,151.37,6
137,143.94,151.23,6
136,143.78,151.08,6
137,143.65,150.94,6
137,143.51,150.80,6
136,143.36,150.65,6
136,143.22,150.50,6
135,143.05,150.35,6
137,142.93,150.21,6
138,142.83,150.09,6
136,142.70,149.95,6
137,142.58,149.82,6
135,142.43,149.67,6
135,142.28,149.53,6
135,142.14,149.38,6
135,141.99,149.24,6
133,141.81,149.07,6
134,141.66,148.92,6
133,141.48,148.76,6
133,141.32,148.61,6
133,141.15,148.45,6
135,141.03,148.32,6
133,140.87,148.16,6
135,140.75,148.03,6
134,140.61,147.89,6
131,140.42,147.72,6
135,140.31,147.59,6
133,140.17,147.45,6
134,140.04,147.31,6
132,139.88,147.16,6
133,139.74,147.02,6
134,139.63,146.89,6
133,139.50,146.75,6
132,139.35,146.60,6
131,139.18,146.45,6
132,139.04,146.30,6
132,138.90,146.16,6
130,138.72,146.00,6
131,138.56,145.85,6
131,138.41,145.70,6
131,138.26,145.55,6
134,138.18,145.44,6
133,138.08,145.31,6
132,137.95,145.18,6
130,137.79,145.03,6
131,137.66,144.89,6
132,137.55,144.76,6
130,137.39,144.61,6
129,137.23,144.45,6
129,137.06,144.30,6
129,136.90,144.15,6
129,136.74,144.00,6
131,136.63,143.87,6
130,136.50,143.73,6
130,136.37,143.59,6
129,136.22,143.44,6
130,136.09,143.31,6
131,135.99,143.19,6
131,135.89,143.06,6
131,135.79,142.94,6
129,135.66,142.80,6
129,135.53,142.67,6
131,135.43,142.55,6
131,135.35,142.43,6
131,135.26,142.32,6
129,135.13,142.19,6
130,135.03,142.07,6
129,134.91,141.93,6
131,134.83,141.83,6
132,134.78,141.73,6
129,134.66,141.60,6
129,134.55,141.47,6
129,134.44,141.35,6
131,134.37,141.25,6
129,134.26,141.12,6
130,134.17,141.01,6
127,134.03,140.87,6
129,133.93,140.75,6
129,133.83,140.64,6
129,133.74,140.52,6
128,133.62,140.39,6
127,133.49,140.26,6
127,133.36,140.13,6
127,133.23,140.00,6
127,133.11,139.87,6
127,132.98,139.74,6
127,132.86,139.61,6
128,132.77,139.49,6
127,132.65,139.37,6
126,132.52,139.24,6
125,132.37,139.09,6
126,132.24,138.96,6
125,132.10,138.82,6
125,131.95,138.68,6
125,131.82,138.55,6
125,131.68,138.41,6
126,131.57,138.29,6
125,131.43,138.15,6
124,131.29,138.01,6
125,131.16,137.88,6
125,131.04,137.75,6
127,130.96,137.65,6
127,130.88,137.54,6
124,130.74,137.40,6
125,130.62,137.28,6
125,130.51,137.16,6
128,130.46,137.07,6
127,130.39,136.97,6
125,130.28,136.85,6
126,130.20,136.74,6
127,130.14,136.64,6
127,130.07,136.54,6
126,129.99,136.44,6
127,129.93,136.34,6
128,129.89,136.26,6
125,129.79,136.15,6
127,129.74,136.06,6
129,129.72,135.99,6
130,129.73,135.93,6
130,129.73,135.87,6
129,129.72,135.80,6
126,129.65,135.70,6
128,129.61,135.62,6
129,129.60,135.56,6
129,129.59,135.49,6
128,129.56,135.42,6
127,129.51,135.33,6
127,129.46,135.25,6
130,129.47,135.20,6
131,129.50,135.15,6
127,129.45,135.07,6
129,129.44,135.01,6
133,129.51,134.99,6
133,129.58,134.97,6
131,129.61,134.93,6
128,129.58,134.86,6
131,129.60,134.82,6
132,129.65,134.80,6
132,129.70,134.77,6
133,129.77,134.75,6
131,129.79,134.71,6
130,129.79,134.67,6
132,129.84,134.64,6
132,129.88,134.61,6
131,129.90,134.58,6
130,129.91,134.53,6
129,129.89,134.48,6
129,129.87,134.42,6
129,129.85,134.37,6
129,129.84,134.31,6
130,129.84,134.27,6
128,129.80,134.21,6
129,129.79,134.16,6
130,129.79,134.11,6
129,129.77,134.06,6
129,129.76,134.01,6
129,129.74,133.96,6
129,129.73,133.91,6
129,129.71,133.86,6
128,129.68,133.80,6
127,129.63,133.74,6
127,129.57,133.67,6
129,129.56,133.62,6
128,129.53,133.57,6
128,129.50,133.51,6
129,129.49,133.47,6
127,129.44,133.40,6
127,129.39,133.34,6
130,129.40,133.30,6
129,129.40,133.26,6
131,129.43,133.24,6
127,129.38,133.18,6
129,129.37,133.13,6
129,129.36,133.09,6
129,129.36,133.05,6
127,129.31,132.99,6
127,129.26,132.93,6
127,129.22,132.87,6
127,129.17,132.81,6
128,129.15,132.76,6
128,129.13,132.72,6
129,129.13,132.68,6
129,129.12,132.64,6
133,129.20,132.65,6
129,129.20,132.61,6
127,129.15,132.55,6
124,129.05,132.47,6
127,129.01,132.41,6
129,129.01,132.38,6
128,128.99,132.34,6
129,128.99,132.30,6
127,128.95,132.25,6
127,128.91,132.20,6
126,128.85,132.14,6
132,128.91,132.13,6
131,128.96,132.12,6
128,128.94,132.08,6
127,128.90,132.03,6
129,128.90,132.00,6
129,128.90,131.97,6
128,128.88,131.93,6
127,128.85,131.88,6
127,128.81,131.83,6
127,128.77,131.78,6
126,128.72,131.73,6
129,128.72,131.70,6
129,128.73,131.67,6
126,128.67,131.62,6
130,128.70,131.60,6
132,128.77,131.60,6
128,128.75,131.57,6
127,128.72,131.52,6
128,128.70,131.49,6
129,128.71,131.46,6
130,128.73,131.45,6
127,128.70,131.40,6
127,128.67,131.36,6
131,128.71,131.35,6
130,128.74,131.34,6
127,128.70,131.30,6
132,128.77,131.30,6
131,128.81,131.30,6
131,128.86,131.30,6
129,128.86,131.28,6
133,128.94,131.29,6
127,128.90,131.25,6
131,128.95,131.25,6
129,128.95,131.22,6
129,128.95,131.20,6
129,128.95,131.18,6
131,128.99,131.18,6
133,129.07,131.20,6
133,129.15,131.22,6
129,129.15,131.19,6
129,129.14,131.17,6
131,129.18,131.17,6
129,129.18,131.15,6
133,129.25,131.17,6
133,129.33,131.18,6
130,129.34,131.17,6
130,129.35,131.16,6
130,129.37,131.15,6
129,129.36,131.13,6
131,129.39,131.13,6
131,129.43,131.13,6
131,129.46,131.12,6
131,129.49,131.12,6
130,129.50,131.11,6
129,129.49,131.09,6
128,129.46,131.06,6
129,129.45,131.04,6
129,129.44,131.02,6
129,129.43,131.00,6
130,129.44,130.99,6
131,129.47,130.99,6
128,129.44,130.96,6
129,129.44,130.94,6
128,129.41,130.91,6
130,129.42,130.90,6
129,129.41,130.88,6
128,129.38,130.85,6
129,129.37,130.83,6
128,129.35,130.81,6
127,129.30,130.77,6
135,129.41,130.81,6
133,129.49,130.83,6
130,129.50,130.82,6
129,129.49,130.81,6
131,129.52,130.81,6
139,129.71,130.89,6
137,129.85,130.95,6
133,129.91,130.97,6
131,129.94,130.97,6
136,130.06,131.02,6
136,130.18,131.07,6
135,130.27,131.11,6
133,130.33,131.13,6
132,130.36,131.14,6
133,130.41,131.16,6
131,130.43,131.16,6
135,130.52,131.19,6
133,130.57,131.21,6
131,130.58,131.21,6
131,130.58,131.21,6
135,130.67,131.25,6
134,130.74,131.27,6
133,130.78,131.29,6
134,130.85,131.32,6
133,130.89,131.33,6
131,130.89,131.33,6
133,130.94,131.35,6
132,130.96,131.35,6
134,131.02,131.38,6
131,131.02,131.38,6
132,131.04,131.38,6
131,131.04,131.38,6
132,131.06,131.39,6
131,131.05,131.38,6
131,131.05,131.38,6
133,131.09,131.39,6
129,131.05,131.37,6
131,131.05,131.37,6
131,131.05,131.36,6
131,131.05,131.36,6
131,131.05,131.36,6
129,131.01,131.33,6
131,131.01,131.33,6
131,131.01,131.33,6
131,131.01,131.32,6
129,130.97,131.30,6
130,130.95,131.29,6
134,131.01,131.31,6
132,131.03,131.32,6
130,131.01,131.31,6
131,131.01,131.30,6
131,131.01,131.30,6
133,131.05,131.32,6
131,131.05,131.31,6
132,131.06,131.32,6
134,131.12,131.35,6
131,131.12,131.34,6
130,131.10,131.33,6
129,131.06,131.31,6
131,131.05,131.30,6
129,131.01,131.28,6
129,130.97,131.26,6
129,130.93,131.24,6
129,130.90,131.21,6
132,130.92,131.22,6
128,130.86,131.19,6
132,130.88,131.20,6
131,130.88,131.20,6
131,130.89,131.19,6
128,130.83,131.16,6
131,130.83,131.16,6
130,130.82,131.15,6
129,130.78,131.13,6
131,130.78,131.13,6
133,130.83,131.14,6
133,130.87,131.16,6
129,130.83,131.14,6
129,130.80,131.12,6
130,130.78,131.11,6
131,130.79,131.11,6
129,130.75,131.09,6
129,130.72,131.07,6
129,130.68,131.05,6
130,130.67,131.03,6
137,130.79,131.09,6
131,130.80,131.09,6
132,130.82,131.10,6
129,130.79,131.08,6
130,130.77,131.07,6
131,130.77,131.07,6
129,130.74,131.05,6
129,130.70,131.03,6
129,130.67,131.01,6
133,130.72,131.03,6
130,130.70,131.02,6
129,130.67,131.00,6
132,130.70,131.01,6
129,130.66,130.99,6
131,130.67,130.99,6
129,130.63,130.97,6
132,130.66,130.98,6
133,130.71,131.00,6
128,130.65,130.97,6
129,130.62,130.95,6
130,130.61,130.94,6
132,130.64,130.95,6
130,130.62,130.94,6
131,130.63,130.94,6
129,130.60,130.92,6
129,130.57,130.90,6
128,130.52,130.87,6
130,130.51,130.86,6
129,130.48,130.85,6
131,130.49,130.85,6
129,130.46,130.83,6
128,130.41,130.80,6
127,130.34,130.76,6
129,130.31,130.75,6
132,130.35,130.76,6
132,130.38,130.77,6
129,130.35,130.75,6
132,130.38,130.76,6
132,130.42,130.78,6
130,130.41,130.77,6
129,130.38,130.75,6
129,130.35,130.73,6
129,130.33,130.72,6
129,130.30,130.70,6
132,130.33,130.71,6
131,130.35,130.72,6
129,130.32,130.70,6
131,130.33,130.70,6
134,130.41,130.73,6
139,130.58,130.82,6
131,130.59,130.82,6
138,130.73,130.89,6
135,130.82,130.93,7
133,130.86,130.95,7
133,130.91,130.97,8
132,130.93,130.98,8
133,130.97,131.00,9
133,131.01,131.02,9
132,131.03,131.03,10
131,131.03,131.03,10
132,131.05,131.04,11
131,131.05,131.04,11
130,131.03,131.03,12
133,131.07,131.05,12
131,131.07,131.05,13
135,131.14,131.09,13
140,131.32,131.18,13
134,131.37,131.21,13
138,131.51,131.28,13
132,131.52,131.28,13
134,131.57,131.31,13
132,131.58,131.32,13
133,131.60,131.33,13
134,131.65,131.36,13
131,131.64,131.36,13
132,131.65,131.36,13
132,131.65,131.37,13
133,131.68,131.39,13
132,131.69,131.39,13
132,131.69,131.40,13
131,131.68,131.39,13
131,131.67,131.39,13
133,131.69,131.41,13
132,131.70,131.41,13
138,131.82,131.48,13
131,131.81,131.47,13
132,131.81,131.48,13
132,131.82,131.48,13
133,131.84,131.50,13
131,131.82,131.49,13
136,131.91,131.54,13
134,131.95,131.56,13
132,131.95,131.57,13
137,132.05,131.62,13
134,132.09,131.65,13
137,132.19,131.70,13
133,132.20,131.71,13
135,132.26,131.75,13
133,132.27,131.76,13
137,132.37,131.81,13
140,132.52,131.89,13
142,132.71,131.99,13
138,132.82,132.05,13
136,132.88,132.09,13
135,132.92,132.12,13
141,133.08,132.21,13
143,133.28,132.32,13
140,133.42,132.40,13
138,133.51,132.45,13
142,133.68,132.55,13
138,133.76,132.60,13
136,133.81,132.64,13
139,133.91,132.70,13
136,133.95,132.73,13
137,134.02,132.78,13
141,134.16,132.86,13
137,134.21,132.90,13
144,134.41,133.01,13
139,134.50,133.07,13
141,134.63,133.15,13
142,134.78,133.24,13
141,134.90,133.32,13
150,135.20,133.48,13
141,135.32,133.56,13
143,135.47,133.65,13
145,135.66,133.77,13
141,135.77,133.84,13
143,135.92,133.93,13
141,136.02,134.00,13
143,136.16,134.09,13
142,136.27,134.17,13
142,136.39,134.25,13
149,136.64,134.39,13
145,136.81,134.50,13
143,136.93,134.59,13
146,137.11,134.70,13
142,137.21,134.77,13
143,137.33,134.86,13
143,137.44,134.94,13
141,137.51,135.00,13
147,137.70,135.12,13
153,138.01,135.30,13
143,138.11,135.37,13
145,138.24,135.47,13
145,138.38,135.56,13
153,138.67,135.74,13
145,138.80,135.83,13
150,139.02,135.97,13
147,139.18,136.08,13
147,139.34,136.19,13
148,139.51,136.31,13
152,139.76,136.47,13
159,140.15,136.69,13
159,140.52,136.92,13
151,140.73,137.06,13
150,140.92,137.19,13
160,141.30,137.41,13
164,141.75,137.68,13
154,142.00,137.84,13
152,142.20,137.99,13
160,142.55,138.21,13
163,142.96,138.45,13
157,143.24,138.64,13
158,143.54,138.83,13
155,143.77,138.99,13
155,143.99,139.15,13
159,144.29,139.35,13
163,144.67,139.59,13
161,144.99,139.80,13
165,145.39,140.06,13
162,145.73,140.27,13
164,146.09,140.51,13
159,146.35,140.70,13
158,146.58,140.87,13
162,146.89,141.08,13
163,147.21,141.30,13
162,147.51,141.51,13
159,147.74,141.68,13
164,148.06,141.91,13
160,148.30,142.09,13
163,148.60,142.30,13
163,148.89,142.50,13
165,149.21,142.73,13
167,149.56,142.97,13
163,149.83,143.17,13
159,150.02,143.33,13
166,150.34,143.56,13
175,150.83,143.87,13
164,151.09,144.07,13
164,151.35,144.27,13
168,151.68,144.51,13
166,151.97,144.72,13
163,152.19,144.91,13
170,152.55,145.16,13
165,152.80,145.35,13
167,153.08,145.57,13
170,153.42,145.82,13
170,153.75,146.06,13
170,154.07,146.30,13
171,154.41,146.54,13
179,154.90,146.87,13
171,155.23,147.11,13
169,155.50,147.33,13
172,155.83,147.58,13
172,156.16,147.82,13
175,156.53,148.09,13
172,156.84,148.33,13
170,157.10,148.55,13
178,157.52,148.84,13
173,157.83,149.08,13
171,158.10,149.30,13
175,158.43,149.56,13
175,158.77,149.81,13
174,159.07,150.06,13
171,159.31,150.27,13
171,159.54,150.47,13
180,159.95,150.77,13
191,160.57,151.17,13
187,161.10,151.53,13
185,161.58,151.86,13
192,162.19,152.26,13
198,162.90,152.72,13
183,163.31,153.02,13
185,163.74,153.34,13
187,164.20,153.68,13
190,164.72,154.04,13
186,165.15,154.36,13
184,165.52,154.66,13
189,165.99,155.00,13
187,166.41,155.32,13
190,166.88,155.67,13
185,167.25,155.96,13
187,167.64,156.27,13
185,167.99,156.56,13
182,168.27,156.82,13
183,168.56,157.08,13
190,168.99,157.41,13
194,169.49,157.77,13
191,169.92,158.10,13
191,170.34,158.43,13
200,170.94,158.85,13
195,171.42,159.21,13
191,171.81,159.53,13
191,172.19,159.84,13
195,172.65,160.20,13
196,173.12,160.55,13
187,173.40,160.82,13
190,173.73,161.11,13
187,173.99,161.37,13
187,174.25,161.62,13
192,174.61,161.93,13
187,174.86,162.18,13
191,175.18,162.47,13
189,175.45,162.73,13
194,175.83,163.05,13
192,176.15,163.33,13
187,176.37,163.57,13
192,176.68,163.86,13
192,176.99,164.14,13
189,177.23,164.39,13
192,177.52,164.66,13
191,177.79,164.93,13
187,177.98,165.15,13
187,178.16,165.36,13
190,178.39,165.61,13
190,178.62,165.86,13
191,178.87,166.11,13
189,179.07,166.34,13
192,179.33,166.59,13
190,179.55,166.83,13
187,179.70,167.03,13
193,179.96,167.29,13
189,180.14,167.50,13
187,180.28,167.70,13
186,180.39,167.88,13
188,180.55,168.08,13
190,180.74,168.30,13
188,180.88,168.50,13
186,180.98,168.67,13
185,181.06,168.84,13
187,181.18,169.02,13
185,181.26,169.18,13
184,181.31,169.33,13
185,181.39,169.48,13
188,181.52,169.67,13
185,181.59,169.82,13
183,181.62,169.95,13
183,181.64,170.09,13
185,181.71,170.23,13
184,181.76,170.37,13
184,181.80,170.51,13
182,181.81,170.62,13
186,181.89,170.78,13
188,182.01,170.95,13
183,182.03,171.07,13
189,182.17,171.25,13
185,182.23,171.39,13
183,182.24,171.50,13
182,182.24,171.61,13
182,182.23,171.71,13
186,182.31,171.85,13
185,182.36,171.99,13
181,182.34,172.08,13
181,182.31,172.17,13
183,182.32,172.27,13
183,182.34,172.38,13
181,182.31,172.47,13
183,182.32,172.57,13
189,182.46,172.74,13
187,182.55,172.88,13
183,182.56,172.98,13
183,182.57,173.08,13
182,182.55,173.17,13
181,182.52,173.25,13
183,182.53,173.35,13
184,182.56,173.45,13
183,182.57,173.55,13
182,182.56,173.63,13
180,182.51,173.70,13
179,182.44,173.75,13
180,182.39,173.81,13
179,182.32,173.86,13
178,182.24,173.90,13
179,182.17,173.96,13
178,182.09,174.00,13
178,182.01,174.04,13
177,181.91,174.07,13
178,181.83,174.11,13
179,181.77,174.15,13
178,181.70,174.19,13
178,181.62,174.23,13
177,181.53,174.26,13
175,181.40,174.27,13
175,181.27,174.27,13
175,181.15,174.28,13
175,181.02,174.29,13
176,180.92,174.30,13
176,180.82,174.32,13
174,180.69,174.32,13
175,180.57,174.33,13
173,180.42,174.31,13
174,180.29,174.31,13
174,180.17,174.31,13
173,180.02,174.29,13
173,179.88,174.28,13
174,179.77,174.28,13
175,179.67,174.28,13
174,179.56,174.28,13
172,179.41,174.26,13
171,179.24,174.23,13
171,179.07,174.19,13
171,178.91,174.16,13
171,178.75,174.13,13
171,178.60,174.10,13
171,178.45,174.07,13
171,178.30,174.04,13
171,178.15,174.01,13
169,177.97,173.96,13
169,177.79,173.91,13
171,177.65,173.88,13
170,177.50,173.84,13
168,177.31,173.78,13
168,177.12,173.72,13
169,176.96,173.68,13
170,176.82,173.64,13
168,176.65,173.58,13
167,176.45,173.52,13
168,176.28,173.46,13
169,176.14,173.42,13
167,175.96,173.35,13
166,175.76,173.28,13
168,175.60,173.23,13
167,175.43,173.16,13
167,175.26,173.10,13
167,175.10,173.04,13
166,174.91,172.97,13
166,174.74,172.90,13
166,174.56,172.83,13
165,174.37,172.75,13
165,174.18,172.68,13
165,174.00,172.60,13
164,173.80,172.51,13
166,173.64,172.45,13
164,173.45,172.36,13
164,173.26,172.28,13
164,173.08,172.20,13
164,172.89,172.12,13
162,172.68,172.01,13
162,172.46,171.91,13
162,172.25,171.82,13
162,172.05,171.72,13
163,171.87,171.63,13
161,171.65,171.52,14
161,171.44,171.42,14
162,171.25,171.32,15
162,171.06,171.23,15
163,170.90,171.15,15
161,170.70,171.05,15
162,170.53,170.96,15
161,170.34,170.86,15
162,170.17,170.77,15
159,169.95,170.65,15
159,169.73,170.53,15
160,169.54,170.43,15
159,169.32,170.31,15
159,169.12,170.20,15
157,168.88,170.07,15
159,168.68,169.96,15
158,168.46,169.84,15
157,168.24,169.71,15
158,168.03,169.59,15
158,167.83,169.48,15
158,167.63,169.36,15
158,167.44,169.25,15
158,167.25,169.14,15
157,167.05,169.02,15
157,166.85,168.90,15
159,166.69,168.80,15
158,166.52,168.69,15
157,166.33,168.57,15
157,166.14,168.46,15
158,165.98,168.35,15
157,165.80,168.24,15
156,165.60,168.12,15
157,165.43,168.00,15
155,165.22,167.87,15
155,165.02,167.75,15
155,164.82,167.62,15
155,164.62,167.49,15
154,164.41,167.36,15
155,164.22,167.23,15
154,164.01,167.10,15
154,163.81,166.97,15
156,163.66,166.86,15
154,163.46,166.73,15
154,163.28,166.60,15
153,163.07,166.47,15
153,162.87,166.33,15
153,162.67,166.20,15
154,162.50,166.08,15
155,162.35,165.97,15
153,162.16,165.84,15
154,162.00,165.72,15
153,161.82,165.59,15
152,161.62,165.46,15
155,161.49,165.35,15
152,161.30,165.22,15
153,161.13,165.10,15
154,160.99,164.99,15
153,160.83,164.87,15
151,160.63,164.73,15
152,160.46,164.60,15
151,160.27,164.46,15
152,160.11,164.34,15
153,159.96,164.23,15
151,159.79,164.09,15
153,159.65,163.98,15
151,159.48,163.85,15
151,159.31,163.72,15
150,159.12,163.59,15
150,158.94,163.45,15
150,158.76,163.32,15
150,158.58,163.18,15
151,158.43,163.06,15
149,158.24,162.92,15
149,158.06,162.78,15
153,157.96,162.68,15
152,157.84,162.58,15
150,157.68,162.45,15
151,157.55,162.34,15
152,157.44,162.23,15
153,157.35,162.14,15
152,157.24,162.04,15
149,157.08,161.91,15
153,157.00,161.82,15
154,156.94,161.74,15
151,156.82,161.63,15
149,156.66,161.51,15
150,156.53,161.39,15
152,156.44,161.30,15
153,156.37,161.22,15
149,156.22,161.09,15
150,156.10,160.98,15
151,155.99,160.88,15
152,155.91,160.79,15
149,155.78,160.68,15
149,155.64,160.56,15
153,155.59,160.48,15
151,155.50,160.39,15
150,155.39,160.29,15
147,155.22,160.15,15
149,155.09,160.04,15
149,154.97,159.93,15
151,154.89,159.84,15
150,154.79,159.74,15
148,154.66,159.63,15
147,154.51,159.50,15
149,154.40,159.39,15
147,154.25,159.27,15
149,154.14,159.17,15
149,154.04,159.07,15
147,153.90,158.95,15
147,153.76,158.83,15
150,153.69,158.74,15
151,153.63,158.66,15
150,153.56,158.57,15
154,153.57,158.53,15
150,153.50,158.44,15
151,153.45,158.37,15
153,153.44,158.31,15
155,153.47,158.28,15
155,153.50,158.25,15
151,153.45,158.18,15
152,153.42,158.11,15
155,153.45,158.08,15
154,153.46,158.04,15
155,153.49,158.01,15
150,153.42,157.93,15
152,153.40,157.87,15
154,153.41,157.83,15
154,153.42,157.80,15
151,153.37,157.73,15
154,153.38,157.69,15
154,153.40,157.65,15
154,153.41,157.62,15
154,153.42,157.58,15
152,153.39,157.52,15
152,153.36,157.47,15
152,153.34,157.41,15
157,153.41,157.41,15
153,153.40,157.37,15
152,153.37,157.31,15
151,153.33,157.25,15
153,153.32,157.21,15
153,153.31,157.17,15
151,153.27,157.10,15
153,153.26,157.06,15
155,153.30,157.04,15
155,153.33,157.02,15
152,153.30,156.97,15
153,153.30,156.93,15
152,153.27,156.88,15
152,153.25,156.83,15
153,153.24,156.80,15
151,153.20,156.74,15
151,153.15,156.68,15
153,153.15,156.64,15
153,153.15,156.61,15
150,153.08,156.54,15
152,153.06,156.50,15
153,153.06,156.46,15
156,153.12,156.46,15
154,153.14,156.43,15
150,153.07,156.37,15
153,153.07,156.33,15
154,153.09,156.31,15
155,153.13,156.30,15
157,153.21,156.30,15
154,153.22,156.28,15
154,153.24,156.26,15
154,153.25,156.24,15
154,153.27,156.21,15
151,153.22,156.16,15
154,153.24,156.14,15
154,153.25,156.12,15
153,153.25,156.09,15
152,153.22,156.05,15
154,153.24,156.03,15
155,153.27,156.01,15
154,153.29,155.99,15
151,153.24,155.94,15
155,153.28,155.94,15
155,153.31,155.93,15
158,153.41,155.95,15
158,153.50,155.97,15
154,153.51,155.95,15
155,153.54,155.94,15
158,153.63,155.96,15
159,153.74,155.99,15
158,153.82,156.01,15
154,153.82,155.99,15
154,153.83,155.97,15
155,153.85,155.96,15
154,153.85,155.94,15
154,153.86,155.92,15
154,153.86,155.90,15
153,153.84,155.87,15
152,153.81,155.83,15
152,153.77,155.80,15
154,153.77,155.78,15
155,153.80,155.77,15
157,153.86,155.78,15
155,153.89,155.77,15
152,153.85,155.74,15
154,153.85,155.72,15
155,153.87,155.71,15
155,153.90,155.70,15
154,153.90,155.69,15
152,153.86,155.65,15
154,153.86,155.63,15
154,153.87,155.62,15
152,153.83,155.58,15
153,153.81,155.56,15
152,153.78,155.52,15
154,153.78,155.51,15
153,153.76,155.48,15
152,153.73,155.45,15
153,153.71,155.42,15
155,153.74,155.42,15
154,153.75,155.40,15
152,153.71,155.37,15
152,153.68,155.33,15
152,153.64,155.30,15
156,153.69,155.31,15
153,153.68,155.29,15
152,153.64,155.25,15
153,153.63,155.23,15
155,153.66,155.23,15
156,153.70,155.24,15
153,153.69,155.21,15
152,153.66,155.18,15
152,153.62,155.15,15
155,153.65,155.15,15
156,153.70,155.16,15
153,153.68,155.13,15
152,153.65,155.10,15
152,153.62,155.07,15
151,153.56,155.03,15
152,153.53,155.00,15
151,153.48,154.96,15
152,153.45,154.93,15
153,153.44,154.91,15
152,153.42,154.88,15
150,153.35,154.83,15
152,153.32,154.81,15
154,153.33,154.80,15
155,153.37,154.80,15
153,153.36,154.78,15
151,153.31,154.74,15
152,153.29,154.72,15
154,153.30,154.71,15
153,153.29,154.69,15
151,153.25,154.66,15
151,153.20,154.62,15
153,153.20,154.60,15
151,153.16,154.57,15
150,153.09,154.52,15
151,153.05,154.49,15
152,153.03,154.46,15
153,153.03,154.45,15
152,153.01,154.42,15
151,152.97,154.39,15
152,152.95,154.36,15
155,152.99,154.37,15
154,153.01,154.37,15
153,153.01,154.35,15
152,152.99,154.33,15
152,152.97,154.31,15
154,152.99,154.30,15
153,152.99,154.29,15
151,152.95,154.26,15
151,152.91,154.22,15
153,152.91,154.21,15
154,152.94,154.21,15
150,152.88,154.17,15
152,152.86,154.15,15
153,152.86,154.13,15
153,152.86,154.12,15
151,152.83,154.09,15
151,152.79,154.06,15
152,152.78,154.04,15
155,152.82,154.05,15
156,152.88,154.07,15
150,152.83,154.03,15
152,152.81,154.01,15
153,152.81,154.00,15
153,152.82,153.99,15
152,152.80,153.97,15
150,152.74,153.93,15
152,152.73,153.91,15
153,152.73,153.90,15
150,152.68,153.86,15
150,152.63,153.82,15
151,152.59,153.79,15
151,152.56,153.77,15
152,152.55,153.75,15
150,152.50,153.71,15
150,152.45,153.67,15
151,152.42,153.65,15
152,152.41,153.63,15
151,152.38,153.61,15
150,152.34,153.57,15
149,152.27,153.52,15
151,152.24,153.50,15
153,152.26,153.49,15
148,152.17,153.44,15
149,152.11,153.39,15
148,152.03,153.34,15
153,152.05,153.34,15
150,152.01,153.30,15
149,151.95,153.26,15
151,151.93,153.24,15
153,151.95,153.24,15
151,151.93,153.21,15
150,151.89,153.18,15
149,151.83,153.14,15
151,151.82,153.12,15
152,151.82,153.11,15
151,151.80,153.09,15
148,151.73,153.03,15
149,151.67,152.99,15
151,151.66,152.97,15
150,151.63,152.94,15
148,151.55,152.89,15
149,151.50,152.86,15
151,151.49,152.84,15
151,151.48,152.82,15
148,151.41,152.77,15
149,151.37,152.73,15
151,151.36,152.72,15
150,151.33,152.69,15
150,151.30,152.66,15
149,151.26,152.63,15
149,151.21,152.59,15
152,151.23,152.58,15
149,151.18,152.55,15
147,151.10,152.49,15
148,151.04,152.45,15
148,150.98,152.40,15
150,150.96,152.38,15
150,150.94,152.35,15
148,150.88,152.31,15
149,150.84,152.28,15
151,150.85,152.27,15
150,150.83,152.24,15
147,150.75,152.19,15
149,150.72,152.16,15
148,150.66,152.12,15
149,150.63,152.09,15
150,150.62,152.06,15
148,150.57,152.02,15
148,150.51,151.98,15
150,150.50,151.96,15
153,150.55,151.97,15
147,150.48,151.92,15
148,150.43,151.89,15
149,150.40,151.86,15
151,150.42,151.85,15
148,150.37,151.81,15
148,150.32,151.77,15
147,150.25,151.72,15
150,150.25,151.71,15
150,150.24,151.69,15
147,150.18,151.64,15
149,150.16,151.62,15
149,150.13,151.59,15
149,150.11,151.56,15
147,150.05,151.52,15
147,149.99,151.47,15
147,149.93,151.43,15
150,149.93,151.41,15
149,149.91,151.39,15
147,149.85,151.35,15
148,149.81,151.31,15
149,149.80,151.29,15
148,149.76,151.26,15
146,149.69,151.20,15
147,149.63,151.16,15
147,149.58,151.12,15
149,149.57,151.10,15
149,149.56,151.08,15
147,149.51,151.04,15
147,149.46,151.00,15
149,149.45,150.98,15
148,149.42,150.95,15
146,149.35,150.90,15
147,149.30,150.86,15
147,149.26,150.82,15
151,149.29,150.82,15
148,149.27,150.79,15
146,149.20,150.75,15
149,149.20,150.73,15
148,149.17,150.70,15
147,149.13,150.66,15
145,149.05,150.61,15
145,148.97,150.55,15
147,148.93,150.52,15
147,148.89,150.48,15
146,148.83,150.44,15
145,148.75,150.38,15
146,148.70,150.34,15
147,148.66,150.30,15
146,148.61,150.26,15
144,148.52,150.20,15
145,148.45,150.15,15
147,148.42,150.12,15
148,148.41,150.09,15
146,148.36,150.05,15
145,148.30,150.00,15
146,148.25,149.96,15
146,148.20,149.92,15
146,148.16,149.88,15
145,148.10,149.84,15
145,148.04,149.79,15
145,147.97,149.74,15
147,147.96,149.71,15
145,147.90,149.66,15
144,147.82,149.61,15
145,147.76,149.56,15
146,147.73,149.53,15
147,147.71,149.50,15
144,147.64,149.45,15
144,147.57,149.39,15
147,147.55,149.37,15
146,147.52,149.33,15
144,147.45,149.28,15
144,147.38,149.23,15
145,147.34,149.19,15
146,147.31,149.15,15
144,147.24,149.10,15
143,147.16,149.04,15
143,147.07,148.98,15
146,147.05,148.95,15
146,147.03,148.92,15
143,146.95,148.86,15
144,146.89,148.81,15
145,146.85,148.78,15
147,146.86,148.76,15
145,146.82,148.72,15
143,146.74,148.66,15
145,146.71,148.63,15
147,146.72,148.61,15
144,146.66,148.56,15
143,146.59,148.51,15
143,146.52,148.45,15
144,146.47,148.41,15
146,146.46,148.38,15
144,146.41,148.34,15
142,146.32,148.28,15
144,146.27,148.23,15
146,146.27,148.21,15
145,146.24,148.18,15
143,146.18,148.13,15
145,146.15,148.10,15
144,146.11,148.06,15
145,146.09,148.03,15
143,146.03,147.98,15
142,145.95,147.92,15
143,145.89,147.87,15
147,145.91,147.86,15
