Teste de posicionamento 3(EMG tendao-inervacao (Vermelho A, Verde C) + Ref no pulso) - 16/04/2024 - teste1 - 5 contrações
long frequencia = 1000;                 //frequência de aquisição do sinal, neste caso, 1000 sinais por segundo
float fator1 = 0.02, fator2 = 0.01;
float incerteza = 0.13;
float pico_basal = 130; // Mínimo para ser considerado um pico de contração
int filtro_horizontal=200000; //intervalo de 200ms valores não pode ter mais de 1 contração

Biceps_D,mediaMovel_1,mediaMovel_2,Contracao
136,2.72,1.36,0
135,5.37,2.70,0
138,8.02,4.05,0
138,10.62,5.39,0
135,13.11,6.69,0
135,15.54,7.97,0
136,17.95,9.25,0
137,20.33,10.53,0
138,22.69,11.80,0
137,24.97,13.05,0
136,27.19,14.28,0
137,29.39,15.51,0
136,31.52,16.71,0
135,33.59,17.90,0
136,35.64,19.08,0
135,37.63,20.24,0
138,39.63,21.42,0
135,41.54,22.55,0
135,43.41,23.68,0
137,45.28,24.81,0
136,47.10,25.92,0
137,48.90,27.03,0
136,50.64,28.12,0
136,52.34,29.20,0
137,54.04,30.28,0
136,55.68,31.34,0
135,57.26,32.37,0
136,58.84,33.41,0
136,60.38,34.43,0
136,61.89,35.45,0
136,63.38,36.46,0
138,64.87,37.47,0
137,66.31,38.47,0
137,67.72,39.45,0
136,69.09,40.42,0
136,70.43,41.37,0
136,71.74,42.32,0
140,73.11,43.30,0
135,74.34,44.21,0
137,75.60,45.14,0
136,76.80,46.05,0
136,77.99,46.95,0
136,79.15,47.84,0
136,80.29,48.72,0
136,81.40,49.59,0
136,82.49,50.46,0
137,83.58,51.32,0
137,84.65,52.18,0
137,85.70,53.03,0
136,86.70,53.86,0
137,87.71,54.69,0
136,88.67,55.50,0
136,89.62,56.31,0
136,90.55,57.10,0
136,91.46,57.89,0
136,92.35,58.67,0
134,93.18,59.43,0
136,94.04,60.19,0
135,94.86,60.94,0
137,95.70,61.70,0
136,96.51,62.44,0
137,97.32,63.19,0
136,98.09,63.92,0
136,98.85,64.64,0
137,99.61,65.36,0
135,100.32,66.06,0
135,101.01,66.75,0
138,101.75,67.46,0
135,102.42,68.14,0
135,103.07,68.81,0
136,103.73,69.48,0
136,104.37,70.14,0
138,105.05,70.82,0
137,105.68,71.48,0
138,106.33,72.15,0
137,106.94,72.80,0
135,107.51,73.42,0
136,108.08,74.04,0
134,108.59,74.64,0
135,109.12,75.25,0
136,109.66,75.85,0
137,110.21,76.47,0
136,110.72,77.06,0
136,111.23,77.65,0
136,111.72,78.23,0
135,112.19,78.80,0
135,112.64,79.36,0
137,113.13,79.94,0
138,113.63,80.52,0
135,114.06,81.07,0
136,114.50,81.62,0
135,114.91,82.15,0
135,115.31,82.68,0
137,115.74,83.22,0
134,116.11,83.73,0
135,116.48,84.24,0
140,116.95,84.80,0
135,117.32,85.30,0
134,117.65,85.79,0
135,118.00,86.28,0
136,118.36,86.78,0
136,118.71,87.27,0
136,119.06,87.76,0
135,119.37,88.23,0
136,119.71,88.71,0
135,120.01,89.17,0
134,120.29,89.62,0
135,120.59,90.07,0
136,120.89,90.53,0
136,121.20,90.99,0
136,121.49,91.44,0
136,121.78,91.88,0
136,122.07,92.32,0
136,122.35,92.76,0
135,122.60,93.18,0
135,122.85,93.60,0
138,123.15,94.04,0
135,123.39,94.45,0
135,123.62,94.86,0
135,123.85,95.26,0
136,124.09,95.67,0
136,124.33,96.07,0
136,124.56,96.47,0
135,124.77,96.86,0
138,125.04,97.27,0
135,125.23,97.64,0
134,125.41,98.01,0
135,125.60,98.38,0
135,125.79,98.74,0
136,125.99,99.12,0
136,126.19,99.49,0
137,126.41,99.86,0
134,126.56,100.20,0
135,126.73,100.55,0
136,126.92,100.90,0
135,127.08,101.25,0
137,127.28,101.60,0
136,127.45,101.95,0
135,127.60,102.28,0
136,127.77,102.62,0
137,127.95,102.96,0
137,128.14,103.30,0
135,128.27,103.62,0
136,128.43,103.94,0
137,128.60,104.27,0
135,128.73,104.58,0
135,128.85,104.88,0
135,128.97,105.18,0
137,129.14,105.50,0
135,129.25,105.80,0
137,129.41,106.11,0
135,129.52,106.40,0
137,129.67,106.70,0
135,129.78,106.99,0
137,129.92,107.29,0
135,130.02,107.56,0
136,130.14,107.85,0
136,130.26,108.13,0
136,130.37,108.41,0
133,130.43,108.65,0
136,130.54,108.93,0
136,130.65,109.20,0
135,130.73,109.46,0
135,130.82,109.71,0
137,130.94,109.98,0
135,131.02,110.23,0
135,131.10,110.48,0
135,131.18,110.73,0
137,131.30,110.99,0
137,131.41,111.25,0
135,131.48,111.49,0
137,131.59,111.74,0
135,131.66,111.98,0
135,131.73,112.21,0
135,131.79,112.43,0
137,131.90,112.68,0
137,132.00,112.92,0
136,132.08,113.15,0
136,132.16,113.38,0
136,132.24,113.61,0
136,132.31,113.83,0
135,132.36,114.04,0
136,132.44,114.26,0
138,132.55,114.50,0
136,132.62,114.72,0
135,132.67,114.92,0
137,132.75,115.14,0
136,132.82,115.35,0
137,132.90,115.56,0
135,132.94,115.76,0
135,132.98,115.95,0
137,133.06,116.16,0
135,133.10,116.35,0
135,133.14,116.54,0
135,133.18,116.72,0
136,133.23,116.91,0
136,133.29,117.11,0
137,133.36,117.30,0
137,133.44,117.50,0
136,133.49,117.69,0
136,133.54,117.87,0
136,133.59,118.05,0
135,133.62,118.22,0
136,133.66,118.40,0
135,133.69,118.56,0
135,133.72,118.73,0
136,133.76,118.90,0
136,133.81,119.07,0
135,133.83,119.23,0
135,133.85,119.39,0
137,133.92,119.56,0
135,133.94,119.72,0
135,133.96,119.87,0
135,133.98,120.02,0
133,133.96,120.15,0
137,134.02,120.32,0
136,134.06,120.48,0
135,134.08,120.62,0
137,134.14,120.79,0
135,134.16,120.93,0
136,134.19,121.08,0
134,134.19,121.21,0
136,134.22,121.36,0
136,134.26,121.50,0
137,134.32,121.66,0
135,134.33,121.79,0
136,134.36,121.93,0
135,134.38,122.06,0
135,134.39,122.19,0
135,134.40,122.32,0
137,134.45,122.47,0
135,134.46,122.59,0
134,134.45,122.71,0
135,134.46,122.83,0
135,134.48,122.95,0
135,134.49,123.07,0
134,134.48,123.18,0
135,134.49,123.30,0
135,134.50,123.42,0
134,134.49,123.52,0
134,134.48,123.63,0
136,134.51,123.75,0
135,134.52,123.86,0
134,134.51,123.97,0
135,134.52,124.08,0
137,134.57,124.21,0
133,134.54,124.29,0
134,134.52,124.39,0
134,134.51,124.49,0
134,134.50,124.58,0
136,134.53,124.70,0
136,134.56,124.81,0
137,134.61,124.93,0
135,134.62,125.03,0
137,134.67,125.15,0
136,134.69,125.26,0
135,134.70,125.36,0
137,134.75,125.47,0
135,134.75,125.57,0
135,134.76,125.66,0
135,134.76,125.76,0
137,134.81,125.87,0
135,134.81,125.96,0
133,134.77,126.03,0
135,134.78,126.12,0
137,134.82,126.23,0
135,134.83,126.32,0
135,134.83,126.40,0
135,134.83,126.49,0
136,134.86,126.58,0
135,134.86,126.67,0
136,134.88,126.76,0
136,134.90,126.85,0
135,134.91,126.94,0
134,134.89,127.01,0
136,134.91,127.10,0
137,134.95,127.20,0
136,134.97,127.28,0
135,134.97,127.36,0
135,134.97,127.44,0
135,134.97,127.51,0
137,135.02,127.61,0
135,135.01,127.68,0
135,135.01,127.75,0
136,135.03,127.84,0
135,135.03,127.91,0
135,135.03,127.98,0
133,134.99,128.03,0
136,135.01,128.11,0
135,135.01,128.18,0
137,135.05,128.27,0
135,135.05,128.33,0
136,135.07,128.41,0
133,135.03,128.46,0
135,135.03,128.52,0
134,135.01,128.58,0
134,134.99,128.63,0
136,135.01,128.70,0
137,135.05,128.79,0
136,135.07,128.86,0
135,135.07,128.92,0
133,135.02,128.96,0
134,135.00,129.01,0
135,135.00,129.07,0
135,135.00,129.13,0
134,134.98,129.18,0
134,134.96,129.23,0
135,134.96,129.29,0
135,134.96,129.34,0
135,134.97,129.40,0
134,134.95,129.45,0
136,134.97,129.51,0
134,134.95,129.56,0
135,134.95,129.61,0
135,134.95,129.66,0
135,134.95,129.72,0
133,134.91,129.75,0
135,134.91,129.80,0
135,134.92,129.86,0
135,134.92,129.91,0
134,134.90,129.95,0
133,134.86,129.98,0
134,134.84,130.02,0
136,134.87,130.08,0
133,134.83,130.11,0
134,134.81,130.15,0
134,134.80,130.19,0
133,134.76,130.21,0
135,134.77,130.26,0
133,134.73,130.29,0
134,134.72,130.33,0
135,134.72,130.37,0
135,134.73,130.42,0
133,134.69,130.44,0
133,134.66,130.47,0
133,134.63,130.50,0
134,134.61,130.53,0
134,134.60,130.57,0
133,134.57,130.59,0
133,134.54,130.61,0
133,134.51,130.64,0
133,134.48,130.66,0
135,134.49,130.70,0
134,134.48,130.74,0
134,134.47,130.77,0
134,134.46,130.80,0
133,134.43,130.82,0
137,134.48,130.89,0
133,134.45,130.91,0
133,134.42,130.93,0
135,134.43,130.97,0
133,134.40,130.99,0
133,134.38,131.01,0
134,134.37,131.04,0
133,134.34,131.06,0
134,134.33,131.09,0
133,134.31,131.11,0
132,134.26,131.12,0
135,134.28,131.16,0
133,134.25,131.17,0
134,134.25,131.20,0
132,134.20,131.21,0
134,134.20,131.24,0
130,134.11,131.23,0
133,134.09,131.24,0
133,134.07,131.26,0
133,134.05,131.28,0
133,134.03,131.30,0
132,133.99,131.30,0
133,133.97,131.32,0
133,133.95,131.34,0
131,133.89,131.33,0
133,133.87,131.35,0
133,133.85,131.37,0
132,133.82,131.37,0
132,133.78,131.38,0
132,133.74,131.38,0
132,133.71,131.39,0
132,133.68,131.40,0
133,133.66,131.41,0
131,133.61,131.41,0
132,133.58,131.41,0
131,133.52,131.41,0
134,133.53,131.44,0
131,133.48,131.43,0
132,133.45,131.44,0
131,133.40,131.43,0
133,133.40,131.45,0
131,133.35,131.44,0
133,133.34,131.46,0
131,133.29,131.46,0
132,133.27,131.46,0
132,133.24,131.47,0
131,133.20,131.46,0
131,133.15,131.46,0
131,133.11,131.45,0
131,133.07,131.45,0
133,133.07,131.46,0
129,132.99,131.44,0
131,132.95,131.43,0
131,132.91,131.43,0
130,132.85,131.42,0
129,132.77,131.39,0
130,132.72,131.38,0
130,132.66,131.36,0
131,132.63,131.36,0
132,132.62,131.37,0
131,132.58,131.36,0
129,132.51,131.34,0
130,132.46,131.33,0
132,132.45,131.33,0
131,132.42,131.33,0
130,132.38,131.32,0
129,132.31,131.29,0
129,132.24,131.27,0
130,132.20,131.26,0
130,132.15,131.24,0
129,132.09,131.22,0
130,132.05,131.21,0
129,131.99,131.19,0
129,131.93,131.17,0
131,131.91,131.16,0
129,131.85,131.14,0
129,131.79,131.12,0
131,131.78,131.12,0
129,131.72,131.10,0
129,131.67,131.08,0
129,131.62,131.06,0
129,131.56,131.04,0
129,131.51,131.02,0
129,131.46,131.00,0
130,131.43,130.99,0
130,131.40,130.98,0
129,131.36,130.96,0
129,131.31,130.94,0
129,131.26,130.92,0
129,131.22,130.90,0
129,131.17,130.88,0
129,131.13,130.86,0
130,131.11,130.85,0
130,131.08,130.84,0
129,131.04,130.83,0
129,131.00,130.81,0
129,130.96,130.79,0
129,130.92,130.77,0
128,130.86,130.74,1
129,130.83,130.73,1
129,130.79,130.71,2
130,130.77,130.70,2
129,130.74,130.68,3
128,130.68,130.66,3
129,130.65,130.64,4
128,130.60,130.61,4
129,130.57,130.60,5
128,130.51,130.57,5
129,130.48,130.56,6
129,130.45,130.54,6
127,130.39,130.51,7
129,130.36,130.49,7
129,130.33,130.48,7
128,130.28,130.45,7
129,130.26,130.44,7
128,130.21,130.41,7
129,130.19,130.40,7
128,130.14,130.37,7
129,130.12,130.36,7
127,130.06,130.33,7
128,130.02,130.30,7
128,129.98,130.28,7
127,129.92,130.25,7
128,129.88,130.23,7
129,129.86,130.21,7
128,129.83,130.19,7
127,129.77,130.16,7
128,129.73,130.14,7
127,129.68,130.11,7
129,129.67,130.09,7
129,129.65,130.08,7
128,129.62,130.06,7
127,129.57,130.03,7
127,129.52,130.00,7
128,129.48,129.98,7
130,129.50,129.98,7
127,129.45,129.95,7
128,129.42,129.93,7
129,129.41,129.92,7
128,129.38,129.90,7
128,129.35,129.89,7
127,129.31,129.86,7
127,129.26,129.83,7
129,129.25,129.82,7
127,129.21,129.79,7
127,129.16,129.76,7
127,129.12,129.74,7
127,129.08,129.71,7
128,129.06,129.69,7
127,129.02,129.66,7
127,128.98,129.64,7
128,128.96,129.62,7
127,128.92,129.60,7
127,128.88,129.57,7
127,128.84,129.54,7
127,128.80,129.52,7
126,128.75,129.48,7
126,128.69,129.45,7
127,128.66,129.42,7
127,128.63,129.40,7
125,128.55,129.36,7
125,128.48,129.31,7
125,128.41,129.27,7
125,128.34,129.23,7
126,128.30,129.19,7
124,128.21,129.14,7
126,128.17,129.11,7
127,128.14,129.09,7
127,128.12,129.07,7
127,128.10,129.05,7
129,128.12,129.05,7
127,128.09,129.03,7
127,128.07,129.01,7
125,128.01,128.97,7
127,127.99,128.95,7
127,127.97,128.93,7
127,127.95,128.91,7
126,127.91,128.88,7
128,127.91,128.87,7
127,127.90,128.85,7
127,127.88,128.83,7
127,127.86,128.81,7
127,127.84,128.80,7
127,127.83,128.78,7
127,127.81,128.76,7
127,127.79,128.74,7
127,127.78,128.73,7
127,127.76,128.71,7
128,127.77,128.70,7
127,127.75,128.68,7
129,127.78,128.69,7
127,127.76,128.67,7
127,127.75,128.65,7
126,127.71,128.63,7
126,127.68,128.60,7
127,127.66,128.59,7
126,127.63,128.56,7
127,127.62,128.54,7
127,127.61,128.53,7
126,127.57,128.50,7
127,127.56,128.49,7
127,127.55,128.47,7
125,127.50,128.44,7
127,127.49,128.42,7
129,127.52,128.43,7
127,127.51,128.42,7
127,127.50,128.40,7
127,127.49,128.39,7
126,127.46,128.36,7
129,127.49,128.37,7
126,127.46,128.35,7
128,127.47,128.34,7
127,127.46,128.33,7
127,127.45,128.32,7
127,127.44,128.30,7
127,127.43,128.29,7
127,127.43,128.28,7
128,127.44,128.27,7
127,127.43,128.26,7
127,127.42,128.25,7
126,127.39,128.23,7
129,127.42,128.23,7
127,127.42,128.22,7
127,127.41,128.21,7
125,127.36,128.18,7
128,127.37,128.18,7
127,127.36,128.16,7
125,127.32,128.13,7
128,127.33,128.13,7
127,127.32,128.12,7
127,127.32,128.11,7
128,127.33,128.11,7
127,127.32,128.10,7
127,127.32,128.09,7
126,127.29,128.06,7
129,127.33,128.07,7
131,127.40,128.10,7
129,127.43,128.11,7
128,127.44,128.11,7
128,127.45,128.11,7
126,127.42,128.09,7
129,127.46,128.10,7
129,127.49,128.11,7
127,127.48,128.10,7
128,127.49,128.09,7
128,127.50,128.09,7
127,127.49,128.08,7
129,127.52,128.09,7
127,127.51,128.08,7
127,127.50,128.07,7
128,127.51,128.07,7
128,127.52,128.07,7
129,127.55,128.08,7
127,127.54,128.07,7
128,127.55,128.07,7
127,127.53,128.06,7
129,127.56,128.07,7
127,127.55,128.05,7
127,127.54,128.04,7
127,127.53,128.03,7
128,127.54,128.03,7
128,127.55,128.03,7
127,127.54,128.02,7
127,127.53,128.01,7
129,127.56,128.02,7
128,127.57,128.02,7
127,127.55,128.01,7
127,127.54,128.00,7
128,127.55,128.00,7
128,127.56,128.00,7
129,127.59,128.01,7
129,127.62,128.02,7
128,127.63,128.02,7
129,127.65,128.03,7
129,127.68,128.04,7
129,127.71,128.05,7
128,127.71,128.05,7
127,127.70,128.04,7
128,127.70,128.04,7
127,127.69,128.03,7
128,127.70,128.03,7
128,127.70,128.03,7
129,127.73,128.04,7
131,127.79,128.07,7
127,127.78,128.06,7
129,127.80,128.07,7
127,127.79,128.06,7
128,127.79,128.06,7
127,127.78,128.04,7
129,127.80,128.05,7
129,127.82,128.06,7
128,127.83,128.06,7
127,127.81,128.05,7
127,127.79,128.04,7
128,127.80,128.04,7
128,127.80,128.04,7
130,127.85,128.06,7
129,127.87,128.07,7
131,127.93,128.10,7
129,127.95,128.11,7
128,127.95,128.11,7
131,128.02,128.14,7
128,128.02,128.13,7
129,128.03,128.14,7
129,128.05,128.15,7
129,128.07,128.16,7
128,128.07,128.16,7
129,128.09,128.17,7
130,128.13,128.19,7
130,128.17,128.20,7
129,128.18,128.21,7
129,128.20,128.22,7
128,128.19,128.22,7
128,128.19,128.22,7
128,128.19,128.21,7
129,128.20,128.22,7
129,128.22,128.23,7
129,128.24,128.24,7
130,128.27,128.25,7
129,128.28,128.26,7
129,128.30,128.27,7
129,128.31,128.28,7
132,128.39,128.31,7
129,128.40,128.32,7
129,128.41,128.33,7
130,128.44,128.34,7
128,128.43,128.34,7
128,128.43,128.34,7
129,128.44,128.34,7
128,128.43,128.34,7
129,128.44,128.35,7
129,128.45,128.35,7
129,128.46,128.36,7
128,128.45,128.36,7
131,128.50,128.38,7
129,128.51,128.39,7
133,128.60,128.43,7
129,128.61,128.44,7
129,128.62,128.45,7
129,128.63,128.45,7
129,128.63,128.46,7
129,128.64,128.46,7
129,128.65,128.47,7
129,128.66,128.47,7
129,128.66,128.48,7
131,128.71,128.50,7
129,128.72,128.51,7
129,128.72,128.51,7
129,128.73,128.52,7
129,128.73,128.52,7
129,128.74,128.53,7
129,128.74,128.53,7
128,128.73,128.53,7
132,128.79,128.56,7
128,128.78,128.56,7
130,128.80,128.57,7
127,128.77,128.56,7
132,128.83,128.59,7
131,128.87,128.61,7
129,128.88,128.62,7
129,128.88,128.62,7
129,128.88,128.63,7
131,128.92,128.65,7
129,128.93,128.65,7
129,128.93,128.66,7
129,128.93,128.66,7
131,128.97,128.68,7
129,128.97,128.69,7
129,128.97,128.69,7
128,128.95,128.68,7
132,129.01,128.72,7
129,129.01,128.72,7
129,129.01,128.72,7
129,129.01,128.72,7
129,129.01,128.73,7
129,129.01,128.73,7
131,129.05,128.75,7
129,129.05,128.75,7
129,129.05,128.76,7
129,129.05,128.76,7
129,129.05,128.76,7
129,129.05,128.76,7
129,129.05,128.77,7
129,129.04,128.77,7
131,129.08,128.79,7
131,129.12,128.81,7
129,129.12,128.82,7
129,129.12,128.82,7
129,129.11,128.82,7
130,129.13,128.83,7
132,129.19,128.86,7
130,129.21,128.87,7
129,129.20,128.88,7
129,129.20,128.88,7
129,129.19,128.88,7
130,129.21,128.89,7
132,129.27,128.92,7
131,129.30,128.94,7
129,129.29,128.94,7
131,129.33,128.96,7
131,129.36,128.98,7
131,129.39,129.00,7
129,129.39,129.00,7
130,129.40,129.01,7
131,129.43,129.03,7
129,129.42,129.03,7
131,129.45,129.05,7
129,129.44,129.05,7
133,129.52,129.09,7
129,129.51,129.09,7
131,129.54,129.11,7
131,129.56,129.13,7
129,129.55,129.13,7
130,129.56,129.14,7
129,129.55,129.13,7
129,129.54,129.13,7
131,129.57,129.15,7
129,129.56,129.15,7
129,129.55,129.15,7
131,129.58,129.17,7
129,129.56,129.17,7
128,129.53,129.15,7
129,129.52,129.15,7
130,129.53,129.16,7
129,129.52,129.16,7
129,129.51,129.16,7
130,129.52,129.17,7
129,129.51,129.16,7
130,129.52,129.17,7
130,129.53,129.18,7
128,129.50,129.17,7
129,129.49,129.17,7
129,129.48,129.17,7
129,129.47,129.16,7
129,129.46,129.16,7
129,129.45,129.16,7
129,129.44,129.16,7
129,129.43,129.16,7
129,129.42,129.16,7
128,129.40,129.14,7
129,129.39,129.14,7
128,129.36,129.13,7
129,129.35,129.13,7
129,129.35,129.13,7
129,129.34,129.13,7
131,129.37,129.15,7
130,129.39,129.15,7
129,129.38,129.15,7
129,129.37,129.15,7
129,129.36,129.15,7
129,129.36,129.15,7
129,129.35,129.15,7
128,129.32,129.14,7
129,129.31,129.13,7
129,129.31,129.13,7
129,129.30,129.13,7
129,129.30,129.13,7
129,129.29,129.13,7
128,129.26,129.12,7
130,129.28,129.13,7
129,129.27,129.13,7
129,129.27,129.12,7
128,129.24,129.11,7
129,129.24,129.11,7
129,129.23,129.11,7
129,129.23,129.11,7
128,129.20,129.10,7
129,129.20,129.10,7
129,129.20,129.10,7
129,129.19,129.10,7
128,129.17,129.08,7
128,129.14,129.07,7
127,129.10,129.05,7
129,129.10,129.05,7
129,129.10,129.05,7
128,129.08,129.04,7
127,129.03,129.02,7
128,129.01,129.01,7
127,128.97,128.99,7
127,128.93,128.97,7
127,128.90,128.95,7
129,128.90,128.95,7
128,128.88,128.94,7
127,128.84,128.92,7
129,128.84,128.92,7
127,128.81,128.90,7
129,128.81,128.91,7
127,128.78,128.89,7
129,128.78,128.89,7
127,128.74,128.87,7
127,128.71,128.85,7
129,128.72,128.85,7
129,128.72,128.85,7
129,128.73,128.85,7
128,128.71,128.85,7
128,128.70,128.84,7
128,128.68,128.83,7
128,128.67,128.82,7
129,128.68,128.82,7
131,128.72,128.84,7
128,128.71,128.84,7
131,128.75,128.86,7
132,128.82,128.89,7
133,128.90,128.93,7
131,128.95,128.95,7
131,128.99,128.97,7
129,128.99,128.97,7
133,129.07,129.01,7
134,129.17,129.06,7
132,129.22,129.09,7
131,129.26,129.11,7
136,129.39,129.18,7
133,129.46,129.22,7
133,129.54,129.25,7
135,129.64,129.31,7
134,129.73,129.36,7
134,129.82,129.41,7
134,129.90,129.45,7
132,129.94,129.48,7
135,130.04,129.53,7
137,130.18,129.61,7
133,130.24,129.64,7
136,130.35,129.70,7
133,130.41,129.74,7
135,130.50,129.79,7
136,130.61,129.85,7
137,130.74,129.92,7
137,130.86,129.99,7
137,130.99,130.06,7
137,131.11,130.13,7
136,131.20,130.19,7
135,131.28,130.24,7
136,131.37,130.30,7
136,131.47,130.36,7
138,131.60,130.43,7
143,131.83,130.56,7
141,132.01,130.66,7
141,132.19,130.77,7
143,132.40,130.89,7
139,132.54,130.97,7
143,132.75,131.09,7
140,132.89,131.18,7
139,133.01,131.26,7
140,133.15,131.34,7
140,133.29,131.43,7
141,133.44,131.53,7
141,133.60,131.62,7
141,133.74,131.71,7
140,133.87,131.80,7
139,133.97,131.87,7
143,134.15,131.98,7
140,134.27,132.06,7
140,134.38,132.14,7
141,134.52,132.23,7
143,134.69,132.34,7
145,134.89,132.46,7
143,135.05,132.57,7
138,135.11,132.62,7
143,135.27,132.73,7
145,135.46,132.85,7
145,135.66,132.97,7
143,135.80,133.07,7
144,135.97,133.18,7
151,136.27,133.36,7
148,136.50,133.50,7
147,136.71,133.64,7
147,136.92,133.77,7
148,137.14,133.92,7
150,137.40,134.08,7
152,137.69,134.26,7
154,138.01,134.45,7
149,138.23,134.60,7
149,138.45,134.74,7
153,138.74,134.93,7
154,139.05,135.12,7
154,139.35,135.30,7
157,139.70,135.52,7
157,140.04,135.74,7
153,140.30,135.91,7
155,140.60,136.10,7
155,140.89,136.29,7
156,141.19,136.49,7
157,141.50,136.69,7
156,141.79,136.88,7
157,142.10,137.09,7
158,142.42,137.29,7
157,142.71,137.49,7
161,143.07,137.73,7
161,143.43,137.96,7
161,143.78,138.19,7
165,144.21,138.46,7
167,144.66,138.74,7
163,145.03,138.99,7
163,145.39,139.23,7
161,145.70,139.44,7
162,146.03,139.67,7
163,146.37,139.90,7
161,146.66,140.11,7
162,146.97,140.33,7
165,147.33,140.58,7
167,147.72,140.84,7
169,148.15,141.13,7
165,148.48,141.36,7
165,148.81,141.60,7
164,149.12,141.82,7
164,149.42,142.05,7
164,149.71,142.27,7
163,149.97,142.47,7
165,150.27,142.70,7
165,150.57,142.92,7
165,150.86,143.14,7
167,151.18,143.38,7
165,151.46,143.60,7
164,151.71,143.80,7
163,151.93,143.99,7
165,152.19,144.20,7
163,152.41,144.39,7
164,152.64,144.59,7
165,152.89,144.79,7
175,153.33,145.09,7
178,153.82,145.42,7
180,154.35,145.77,7
172,154.70,146.03,7
176,155.13,146.33,7
179,155.60,146.66,7
174,155.97,146.93,7
173,156.31,147.19,7
176,156.71,147.48,7
173,157.03,147.73,7
175,157.39,148.01,7
178,157.80,148.31,7
174,158.13,148.56,7
175,158.47,148.83,7
175,158.80,149.09,7
179,159.20,149.39,7
175,159.52,149.65,7
175,159.83,149.90,7
180,160.23,150.20,7
185,160.72,150.55,7
184,161.19,150.88,7
181,161.59,151.18,7
182,161.99,151.49,7
191,162.57,151.89,7
195,163.22,152.32,7
194,163.84,152.73,7
188,164.32,153.09,7
187,164.78,153.43,7
189,165.26,153.78,7
191,165.78,154.15,7
196,166.38,154.57,7
200,167.05,155.03,7
203,167.77,155.51,7
205,168.52,156.00,7
197,169.09,156.41,7
199,169.68,156.84,7
205,170.39,157.32,7
209,171.16,157.84,7
209,171.92,158.35,7
208,172.64,158.84,7
209,173.37,159.35,7
205,174.00,159.80,7
203,174.58,160.23,7
204,175.17,160.67,7
208,175.83,161.15,7
212,176.55,161.65,7
217,177.36,162.21,7
219,178.19,162.78,7
209,178.81,163.24,7
210,179.43,163.70,7
217,180.18,164.24,7
223,181.04,164.83,7
225,181.92,165.43,7
224,182.76,166.01,7
220,183.50,166.55,7
225,184.33,167.14,7
228,185.21,167.75,7
227,186.04,168.34,7
222,186.76,168.88,7
221,187.45,169.40,7
224,188.18,169.94,7
228,188.97,170.52,7
228,189.76,171.10,7
224,190.44,171.63,7
233,191.29,172.24,7
236,192.19,172.88,7
238,193.10,173.53,7
237,193.98,174.16,7
233,194.76,174.75,7
241,195.68,175.41,7
245,196.67,176.11,7
246,197.66,176.81,7
245,198.60,177.49,7
239,199.41,178.11,7
241,200.24,178.74,7
247,201.18,179.42,7
247,202.10,180.09,7
243,202.91,180.72,7
244,203.74,181.36,7
244,204.54,181.98,7
241,205.27,182.57,7
244,206.04,183.19,7
251,206.94,183.86,7
253,207.86,184.56,7
251,208.73,185.22,7
247,209.49,185.84,7
255,210.40,186.53,7
259,211.38,187.25,7
257,212.29,187.95,7
257,213.18,188.64,7
259,214.10,189.35,7
265,215.12,190.10,7
266,216.13,190.86,7
265,217.11,191.60,7
263,218.03,192.32,7
270,219.07,193.09,7
272,220.13,193.88,7
275,221.22,194.69,7
271,222.22,195.46,7
274,223.26,196.24,7
279,224.37,197.07,7
276,225.40,197.86,7
271,226.32,198.59,7
277,227.33,199.38,7
281,228.40,200.19,7
281,229.45,201.00,7
275,230.37,201.74,7
275,231.26,202.47,7
279,232.21,203.24,7
281,233.19,204.01,7
281,234.14,204.78,7
277,235.00,205.51,7
277,235.84,206.22,7
276,236.64,206.92,7
277,237.45,207.62,7
277,238.24,208.31,7
277,239.02,209.00,7
279,239.82,209.70,7
277,240.56,210.37,7
277,241.29,211.04,7
277,242.00,211.70,7
281,242.78,212.39,7
279,243.51,213.06,7
279,244.22,213.72,7
277,244.87,214.35,7
280,245.58,215.01,7
281,246.29,215.67,7
276,246.88,216.27,7
277,247.48,216.88,7
283,248.19,217.54,7
286,248.95,218.22,7
280,249.57,218.84,7
280,250.18,219.45,7
285,250.87,220.11,7
283,251.52,220.74,7
281,252.11,221.34,7
280,252.66,221.93,7
279,253.19,222.50,7
279,253.71,223.06,7
280,254.23,223.63,7
280,254.75,224.20,7
285,255.35,224.80,7
281,255.87,225.37,7
283,256.41,225.94,7
282,256.92,226.50,7
284,257.46,227.08,7
281,257.93,227.62,7
280,258.37,228.14,7
281,258.83,228.67,7
279,259.23,229.17,7
279,259.63,229.67,7
279,260.01,230.16,7
278,260.37,230.64,7
278,260.73,231.12,7
278,261.07,231.59,7
278,261.41,232.05,7
280,261.78,232.53,7
280,262.15,233.00,7
280,262.50,233.47,7
278,262.81,233.92,7
277,263.10,234.35,7
282,263.48,234.83,7
283,263.87,235.31,7
282,264.23,235.77,7
283,264.60,236.25,7
285,265.01,236.73,7
281,265.33,237.18,7
281,265.64,237.62,7
286,266.05,238.10,7
286,266.45,238.58,7
286,266.84,239.05,7
282,267.15,239.48,7
283,267.46,239.92,7
288,267.87,240.40,7
285,268.22,240.84,7
283,268.51,241.27,7
283,268.80,241.68,7
284,269.10,242.11,7
282,269.36,242.51,7
282,269.62,242.90,7
282,269.86,243.29,7
282,270.11,243.68,7
284,270.38,244.08,7
287,270.72,244.51,7
284,270.98,244.91,7
282,271.20,245.28,7
286,271.50,245.68,7
283,271.73,246.06,7
281,271.91,246.41,7
284,272.16,246.78,7
281,272.33,247.12,7
284,272.57,247.49,7
281,272.73,247.83,7
281,272.90,248.16,7
284,273.12,248.52,7
281,273.28,248.84,7
285,273.51,249.20,7
280,273.64,249.51,7
283,273.83,249.85,7
281,273.97,250.16,7
281,274.11,250.47,7
281,274.25,250.77,7
283,274.43,251.10,7
284,274.62,251.42,7
281,274.75,251.72,7
280,274.85,252.00,7
281,274.97,252.29,7
283,275.13,252.60,7
284,275.31,252.91,7
280,275.41,253.18,7
279,275.48,253.44,7
282,275.61,253.73,7
281,275.72,254.00,7
278,275.76,254.24,7
280,275.85,254.50,7
278,275.89,254.73,7
278,275.93,254.97,7
281,276.03,255.23,7
277,276.05,255.44,7
278,276.09,255.67,7
279,276.15,255.90,7
277,276.17,256.11,7
277,276.18,256.32,7
276,276.18,256.52,7
276,276.18,256.71,7
275,276.15,256.90,7
275,276.13,257.08,7
274,276.09,257.25,7
275,276.07,257.43,7
276,276.06,257.61,7
275,276.04,257.78,7
276,276.04,257.97,7
274,276.00,258.13,7
273,275.94,258.28,7
274,275.90,258.43,7
274,275.86,258.59,7
275,275.85,258.75,7
271,275.75,258.88,7
271,275.65,259.00,7
271,275.56,259.12,7
271,275.47,259.24,7
271,275.38,259.35,7
269,275.25,259.45,7
270,275.15,259.56,7
269,275.03,259.65,7
269,274.91,259.74,7
269,274.79,259.84,7
267,274.63,259.91,7
268,274.50,259.99,7
268,274.37,260.07,7
266,274.20,260.13,7
267,274.06,260.20,7
266,273.90,260.25,7
265,273.72,260.30,7
265,273.54,260.35,7
265,273.37,260.40,7
265,273.21,260.44,7
264,273.02,260.48,7
265,272.86,260.52,7
265,272.70,260.57,7
264,272.53,260.60,7
264,272.36,260.64,7
263,272.17,260.66,7
264,272.01,260.69,7
264,271.85,260.73,7
264,271.69,260.76,7
263,271.52,260.78,7
262,271.33,260.79,7
261,271.12,260.80,7
263,270.96,260.82,7
262,270.78,260.83,7
260,270.56,260.82,7
260,270.35,260.81,7
260,270.15,260.80,7
260,269.94,260.80,7
260,269.74,260.79,7
260,269.55,260.78,7
260,269.36,260.77,7
259,269.15,260.76,7
258,268.93,260.73,7
258,268.71,260.70,7
257,268.47,260.66,7
257,268.25,260.63,7
257,268.02,260.59,7
256,267.78,260.54,7
256,267.54,260.50,7
257,267.33,260.46,7
255,267.09,260.41,7
255,266.85,260.36,7
255,266.61,260.30,7
255,266.38,260.25,7
253,266.11,260.18,7
253,265.85,260.10,7
253,265.59,260.03,7
252,265.32,259.95,7
253,265.07,259.88,7
252,264.81,259.80,7
252,264.55,259.73,7
252,264.30,259.65,7
251,264.04,259.56,7
251,263.78,259.48,7
252,263.54,259.40,7
251,263.29,259.32,7
253,263.08,259.26,7
251,262.84,259.17,7
251,262.61,259.09,7
249,262.33,258.99,7
248,262.05,258.88,7
248,261.77,258.77,7
249,261.51,258.67,7
248,261.24,258.57,7
247,260.96,258.45,7
247,260.68,258.34,7
247,260.40,258.22,7
247,260.13,258.11,7
246,259.85,257.99,7
245,259.55,257.86,7
247,259.30,257.75,7
245,259.02,257.62,7
245,258.74,257.50,7
245,258.46,257.37,7
245,258.19,257.25,7
245,257.93,257.13,7
243,257.63,256.99,7
244,257.36,256.86,7
243,257.07,256.72,7
243,256.79,256.58,7
241,256.47,256.42,8
241,256.16,256.27,8
242,255.88,256.13,8
242,255.60,255.99,8
241,255.31,255.84,8
241,255.03,255.69,8
241,254.74,255.54,8
240,254.45,255.39,8
240,254.16,255.23,8
242,253.92,255.10,8
240,253.64,254.95,8
240,253.37,254.80,8
239,253.08,254.64,8
239,252.80,254.48,8
239,252.52,254.33,8
237,252.21,254.16,8
237,251.91,253.98,8
239,251.65,253.83,8
237,251.36,253.67,8
235,251.03,253.48,8
237,250.75,253.31,8
237,250.47,253.15,8
237,250.20,252.99,8
237,249.94,252.83,8
236,249.66,252.66,8
237,249.41,252.51,8
235,249.12,252.33,8
235,248.84,252.16,8
234,248.54,251.98,8
235,248.27,251.81,8
234,247.98,251.63,8
233,247.68,251.44,8
233,247.39,251.26,8
233,247.10,251.07,8
232,246.80,250.88,8
233,246.53,250.70,8
232,246.23,250.52,8
233,245.97,250.34,8
231,245.67,250.15,8
231,245.38,249.96,8
231,245.09,249.77,8
231,244.81,249.58,8
230,244.51,249.38,8
230,244.22,249.19,8
231,243.96,249.01,8
229,243.66,248.81,8
229,243.36,248.61,8
229,243.08,248.41,8
229,242.80,248.22,8
228,242.50,248.02,8
229,242.23,247.83,8
229,241.97,247.64,8
229,241.71,247.45,8
228,241.43,247.26,8
227,241.14,247.06,8
227,240.86,246.86,8
229,240.62,246.68,8
226,240.33,246.47,8
228,240.08,246.29,8
226,239.80,246.08,8
225,239.51,245.87,8
225,239.22,245.66,8
224,238.91,245.45,8
224,238.61,245.23,8
225,238.34,245.03,8
224,238.05,244.82,8
223,237.75,244.60,8
222,237.44,244.38,8
223,237.15,244.16,8
224,236.89,243.96,8
223,236.61,243.75,8
221,236.30,243.52,8
222,236.01,243.31,8
221,235.71,243.08,8
221,235.42,242.86,8
222,235.15,242.66,8
221,234.87,242.44,8
220,234.57,242.21,8
221,234.30,242.00,8
221,234.03,241.79,8
220,233.75,241.57,8
220,233.47,241.36,8
220,233.21,241.14,8
220,232.94,240.93,8
219,232.66,240.71,8
218,232.37,240.49,8
219,232.10,240.27,8
218,231.82,240.05,8
219,231.56,239.84,8
217,231.27,239.61,8
217,230.99,239.38,8
217,230.71,239.16,8
217,230.43,238.94,8
216,230.14,238.71,8
215,229.84,238.47,8
216,229.56,238.25,8
216,229.29,238.03,8
215,229.01,237.79,8
215,228.73,237.57,8
216,228.47,237.35,8
215,228.20,237.13,8
213,227.90,236.89,8
213,227.60,236.65,8
215,227.35,236.43,8
213,227.06,236.20,8
213,226.78,235.96,8
213,226.51,235.74,8
213,226.24,235.51,8
213,225.97,235.28,8
211,225.67,235.04,8
211,225.38,234.80,8
211,225.09,234.56,8
209,224.77,234.31,8
210,224.47,234.06,8
212,224.22,233.84,8
210,223.94,233.60,8
209,223.64,233.36,8
209,223.35,233.11,8
210,223.08,232.88,8
209,222.80,232.64,8
209,222.52,232.41,8
208,222.23,232.16,8
210,221.99,231.94,8
208,221.71,231.70,8
209,221.45,231.48,8
207,221.16,231.23,8
207,220.88,230.99,8
207,220.60,230.75,8
206,220.31,230.50,8
207,220.05,230.27,8
207,219.78,230.03,8
206,219.51,229.79,8
207,219.26,229.57,8
205,218.97,229.32,8
205,218.69,229.08,8
206,218.44,228.85,8
207,218.21,228.63,8
205,217.95,228.39,8
205,217.69,228.16,8
205,217.43,227.93,8
203,217.15,227.68,8
203,216.86,227.43,8
203,216.59,227.19,8
204,216.33,226.95,8
203,216.07,226.71,8
203,215.81,226.48,8
203,215.55,226.24,8
203,215.30,226.01,8
201,215.01,225.76,8
204,214.79,225.54,8
201,214.52,225.30,8
201,214.25,225.05,8
201,213.98,224.81,8
203,213.76,224.59,8
202,213.53,224.37,8
201,213.28,224.14,8
200,213.01,223.89,8
201,212.77,223.66,8
201,212.54,223.44,8
200,212.28,223.20,8
199,212.02,222.96,8
199,211.76,222.72,8
199,211.50,222.49,8
199,211.25,222.25,8
199,211.01,222.02,8
199,210.77,221.79,8
197,210.49,221.54,8
197,210.22,221.29,8
198,209.98,221.06,8
199,209.76,220.84,8
198,209.52,220.61,8
198,209.29,220.39,8
197,209.05,220.15,8
197,208.81,219.92,8
198,208.59,219.70,8
197,208.36,219.47,8
195,208.09,219.23,8
197,207.87,219.01,8
196,207.63,218.78,8
196,207.40,218.55,8
196,207.17,218.32,8
197,206.97,218.11,8
195,206.73,217.88,8
195,206.49,217.65,8
196,206.28,217.43,8
194,206.04,217.20,8
195,205.82,216.98,8
194,205.58,216.75,8
194,205.35,216.52,8
195,205.14,216.31,8
195,204.94,216.09,8
194,204.72,215.87,8
193,204.49,215.64,8
193,204.26,215.42,8
192,204.01,215.18,8
193,203.79,214.96,8
194,203.60,214.75,8
192,203.36,214.52,8
192,203.14,214.30,8
191,202.89,214.07,8
192,202.68,213.84,8
192,202.46,213.63,8
191,202.23,213.40,8
191,202.01,213.18,8
194,201.85,212.98,8
191,201.63,212.76,8
191,201.42,212.55,8
193,201.25,212.35,8
190,201.03,212.13,8
191,200.82,211.92,8
191,200.63,211.71,8
191,200.44,211.50,8
191,200.25,211.30,8
189,200.02,211.07,8
189,199.80,210.85,8
191,199.63,210.65,8
189,199.41,210.44,8
189,199.21,210.22,8
188,198.98,210.00,8
188,198.76,209.78,8
189,198.57,209.57,8
188,198.35,209.36,8
188,198.15,209.14,8
187,197.92,208.92,8
187,197.71,208.70,8
187,197.49,208.49,8
188,197.30,208.28,8
187,197.10,208.07,8
188,196.91,207.87,8
187,196.72,207.66,8
185,196.48,207.43,8
187,196.29,207.23,8
187,196.11,207.03,8
185,195.88,206.80,8
185,195.67,206.59,8
186,195.47,206.38,8
186,195.28,206.18,8
186,195.10,205.98,8
187,194.94,205.79,8
185,194.74,205.58,8
184,194.52,205.36,8
184,194.31,205.15,8
184,194.11,204.94,8
184,193.90,204.73,8
185,193.73,204.53,8
183,193.51,204.31,8
184,193.32,204.11,8
184,193.13,203.91,8
183,192.93,203.70,8
181,192.69,203.47,8
185,192.54,203.29,8
184,192.37,203.10,8
184,192.20,202.91,8
183,192.02,202.71,8
183,191.84,202.51,8
184,191.68,202.32,8
185,191.55,202.15,8
184,191.40,201.97,8
184,191.25,201.79,8
183,191.08,201.60,8
182,190.90,201.41,8
183,190.74,201.22,8
187,190.67,201.08,8
182,190.49,200.89,8
181,190.30,200.69,8
181,190.12,200.49,8
182,189.96,200.31,8
181,189.78,200.12,8
181,189.60,199.92,8
180,189.41,199.73,8
183,189.28,199.56,8
180,189.10,199.36,8
181,188.93,199.18,8
181,188.78,199.00,8
180,188.60,198.81,8
181,188.45,198.63,8
180,188.28,198.44,8
179,188.09,198.25,8
180,187.93,198.07,8
180,187.77,197.88,8
179,187.60,197.70,8
179,187.43,197.51,8
179,187.26,197.32,8
179,187.09,197.14,8
178,186.91,196.95,8
179,186.75,196.77,8
177,186.56,196.57,8
177,186.37,196.38,8
177,186.18,196.18,8
177,185.99,195.99,8
177,185.81,195.80,8
177,185.64,195.61,8
177,185.47,195.43,8
177,185.30,195.24,8
177,185.13,195.06,8
175,184.93,194.86,8
175,184.73,194.66,8
177,184.57,194.48,8
176,184.40,194.30,8
175,184.22,194.11,8
175,184.03,193.92,8
175,183.85,193.73,8
176,183.69,193.55,8
177,183.56,193.38,8
175,183.39,193.20,8
175,183.22,193.02,8
175,183.06,192.84,8
176,182.91,192.67,8
177,182.80,192.51,8
175,182.64,192.34,8
173,182.45,192.14,8
174,182.28,191.96,8
173,182.09,191.77,8
173,181.91,191.59,8
173,181.73,191.40,8
173,181.56,191.22,8
173,181.39,191.03,8
173,181.22,190.85,8
172,181.04,190.66,8
173,180.87,190.49,8
173,180.72,190.31,8
173,180.56,190.14,8
173,180.41,189.97,8
173,180.26,189.80,8
173,180.12,189.63,8
173,179.98,189.46,8
173,179.84,189.30,8
172,179.68,189.13,8
172,179.53,188.96,8
172,179.38,188.79,8
172,179.23,188.62,8
172,179.08,188.45,8
171,178.92,188.28,8
172,178.78,188.11,8
171,178.63,187.94,8
170,178.46,187.76,8
169,178.27,187.58,8
171,178.12,187.41,8
170,177.96,187.24,8
170,177.80,187.06,8
169,177.62,186.88,8
169,177.45,186.70,8
169,177.28,186.53,8
169,177.12,186.35,8
169,176.95,186.18,8
168,176.77,186.00,8
168,176.60,185.82,8
168,176.43,185.64,8
169,176.28,185.47,8
168,176.11,185.30,8
168,175.95,185.12,8
168,175.79,184.95,8
167,175.62,184.77,8
167,175.44,184.60,8
167,175.27,184.42,8
168,175.13,184.26,8
167,174.97,184.08,8
167,174.81,183.91,8
167,174.65,183.74,8
167,174.50,183.58,8
166,174.33,183.40,8
165,174.14,183.22,8
166,173.98,183.04,8
167,173.84,182.88,8
165,173.66,182.70,8
166,173.51,182.54,8
165,173.34,182.36,8
167,173.21,182.21,8
165,173.05,182.04,8
165,172.89,181.87,8
164,172.71,181.69,8
164,172.54,181.51,8
163,172.34,181.33,8
164,172.18,181.15,8
165,172.03,180.99,8
163,171.85,180.81,8
165,171.72,180.65,8
165,171.58,180.50,8
163,171.41,180.32,8
163,171.24,180.15,8
163,171.08,179.98,8
163,170.92,179.81,8
163,170.76,179.64,8
163,170.60,179.47,8
161,170.41,179.29,8
163,170.26,179.12,8
162,170.10,178.95,8
163,169.95,178.79,8
163,169.82,178.64,8
161,169.64,178.46,8
163,169.51,178.31,8
161,169.34,178.13,8
162,169.19,177.97,8
161,169.03,177.80,8
161,168.87,177.63,8
161,168.71,177.47,8
161,168.55,177.30,8
161,168.40,177.14,8
161,168.25,176.98,8
160,168.09,176.81,8
161,167.95,176.65,8
161,167.81,176.49,8
162,167.69,176.35,8
160,167.54,176.18,8
159,167.37,176.01,8
162,167.26,175.87,8
159,167.10,175.70,8
160,166.95,175.55,8
159,166.79,175.38,8
160,166.66,175.23,8
163,166.59,175.11,8
162,166.49,174.97,8
160,166.36,174.82,8
159,166.22,174.67,8
161,166.11,174.53,8
161,166.01,174.39,8
160,165.89,174.25,8
160,165.77,174.11,8
160,165.66,173.97,8
159,165.52,173.82,8
159,165.39,173.67,8
159,165.27,173.52,8
159,165.14,173.38,8
159,165.02,173.23,8
158,164.88,173.08,8
161,164.80,172.96,8
157,164.64,172.80,8
156,164.47,172.63,8
159,164.36,172.50,8
159,164.25,172.36,8
157,164.11,172.21,8
159,164.01,172.08,8
159,163.91,171.95,8
157,163.77,171.80,8
159,163.67,171.67,8
158,163.56,171.53,8
157,163.43,171.39,8
159,163.34,171.26,8
157,163.21,171.12,8
157,163.09,170.98,8
156,162.95,170.83,8
157,162.83,170.69,8
157,162.71,170.55,8
158,162.62,170.43,8
157,162.50,170.29,8
158,162.41,170.17,8
157,162.31,170.04,8
157,162.20,169.91,8
157,162.10,169.78,8
157,161.99,169.65,8
157,161.89,169.52,8
157,161.80,169.40,8
157,161.70,169.28,8
157,161.61,169.15,8
157,161.51,169.03,8
155,161.38,168.89,8
159,161.34,168.79,8
157,161.25,168.67,8
157,161.16,168.56,8
155,161.04,168.42,8
156,160.94,168.30,8
158,160.88,168.19,8
158,160.82,168.09,8
157,160.75,167.98,8
157,160.67,167.87,8
156,160.58,167.75,8
157,160.51,167.65,8
156,160.42,167.53,8
156,160.33,167.41,8
155,160.22,167.29,8
155,160.12,167.17,8
155,160.02,167.05,8
156,159.94,166.94,8
155,159.84,166.82,8
155,159.74,166.70,8
154,159.63,166.57,8
155,159.53,166.45,8
155,159.44,166.34,8
155,159.35,166.23,8
154,159.25,166.10,8
155,159.16,165.99,8
154,159.06,165.87,8
154,158.96,165.75,8
154,158.86,165.64,8
155,158.78,165.53,8
155,158.71,165.43,8
153,158.59,165.30,8
153,158.48,165.18,8
155,158.41,165.08,8
156,158.36,164.99,8
154,158.27,164.88,8
154,158.19,164.77,8
155,158.12,164.67,8
153,158.02,164.55,8
153,157.92,164.44,8
155,157.86,164.34,8
153,157.77,164.23,8
155,157.71,164.14,8
153,157.62,164.03,8
155,157.56,163.94,8
153,157.47,163.83,8
152,157.36,163.71,8
154,157.30,163.61,8
153,157.21,163.50,8
153,157.13,163.40,8
153,157.04,163.30,8
153,156.96,163.19,8
154,156.90,163.10,8
153,156.83,163.00,8
153,156.75,162.90,8
153,156.67,162.80,8
153,156.60,162.70,8
152,156.51,162.60,8
152,156.42,162.49,8
153,156.35,162.39,8
152,156.26,162.29,8
151,156.16,162.18,8
152,156.07,162.08,8
152,155.99,161.98,8
151,155.89,161.87,8
151,155.80,161.76,8
149,155.66,161.63,8
153,155.61,161.54,8
151,155.51,161.44,8
150,155.40,161.32,8
150,155.30,161.21,8
152,155.23,161.12,8
150,155.13,161.01,8
151,155.04,160.91,8
152,154.98,160.82,8
153,154.94,160.74,8
150,154.84,160.63,8
151,154.77,160.54,8
150,154.67,160.43,8
151,154.60,160.34,8
152,154.55,160.25,8
152,154.49,160.17,8
152,154.45,160.09,8
151,154.38,160.00,8
151,154.31,159.91,8
152,154.26,159.83,8
150,154.18,159.73,8
151,154.11,159.64,8
151,154.05,159.56,8
151,153.99,159.47,8
149,153.89,159.37,8
151,153.83,159.28,8
150,153.76,159.19,8
150,153.68,159.10,8
149,153.59,159.00,8
150,153.52,158.91,8
150,153.45,158.82,8
149,153.36,158.72,8
149,153.27,158.62,8
149,153.18,158.53,8
151,153.14,158.45,8
151,153.10,158.38,8
151,153.06,158.30,8
149,152.97,158.21,8
149,152.89,158.12,8
152,152.88,158.06,8
149,152.80,157.97,8
152,152.78,157.91,8
152,152.77,157.85,8
151,152.73,157.78,8
151,152.70,157.71,8
149,152.62,157.62,8
149,152.55,157.54,8
150,152.50,157.46,8
150,152.45,157.39,8
149,152.38,157.30,8
149,152.31,157.22,8
151,152.29,157.16,8
151,152.26,157.10,8
149,152.20,157.02,8
149,152.13,156.94,8
147,152.03,156.84,8
149,151.97,156.76,8
149,151.91,156.68,8
149,151.85,156.60,8
149,151.79,156.53,8
149,151.74,156.45,8
151,151.72,156.40,8
149,151.67,156.32,8
149,151.62,156.25,8
149,151.56,156.18,8
149,151.51,156.11,8
149,151.46,156.04,8
148,151.39,155.96,8
149,151.35,155.89,8
148,151.28,155.81,8
149,151.23,155.74,8
151,151.23,155.69,8
149,151.18,155.62,8
150,151.16,155.57,8
148,151.10,155.49,8
149,151.05,155.43,8
149,151.01,155.36,8
148,150.95,155.29,8
148,150.89,155.22,8
149,150.86,155.15,8
151,150.86,155.11,8
149,150.82,155.05,8
149,150.79,154.99,8
150,150.77,154.94,8
150,150.75,154.89,8
150,150.74,154.84,8
149,150.70,154.78,8
149,150.67,154.73,8
149,150.64,154.67,8
150,150.62,154.62,8
151,150.63,154.59,8
150,150.62,154.54,8
149,150.59,154.49,8
149,150.56,154.43,8
151,150.56,154.40,8
150,150.55,154.35,8
150,150.54,154.31,8
149,150.51,154.26,8
149,150.48,154.20,8
149,150.45,154.15,8
150,150.44,154.11,8
150,150.43,154.07,8
149,150.40,154.02,8
149,150.38,153.97,8
149,150.35,153.92,8
149,150.32,153.87,8
151,150.34,153.84,8
148,150.29,153.78,8
152,150.32,153.76,8
151,150.34,153.74,8
149,150.31,153.69,8
149,150.28,153.64,8
149,150.26,153.60,8
150,150.25,153.56,8
149,150.23,153.51,8
149,150.20,153.47,8
148,150.16,153.41,8
149,150.14,153.37,8
149,150.11,153.33,8
148,150.07,153.27,8
149,150.05,153.23,8
148,150.01,153.18,8
149,149.99,153.14,8
149,149.97,153.09,8
150,149.97,153.06,8
150,149.97,153.03,8
149,149.95,152.99,8
149,149.93,152.95,8
149,149.91,152.91,8
149,149.89,152.87,8
150,149.90,152.85,8
149,149.88,152.81,8
152,149.92,152.80,8
150,149.92,152.77,8
149,149.90,152.73,8
149,149.89,152.70,8
149,149.87,152.66,8
149,149.85,152.62,8
148,149.81,152.58,8
149,149.80,152.54,8
148,149.76,152.50,8
149,149.75,152.46,8
148,149.71,152.42,8
148,149.68,152.37,8
149,149.66,152.34,8
149,149.65,152.30,8
150,149.66,152.28,8
147,149.60,152.23,8
148,149.57,152.19,8
149,149.56,152.15,8
147,149.51,152.10,8
148,149.48,152.06,8
147,149.43,152.01,8
147,149.38,151.96,8
149,149.37,151.93,8
148,149.35,151.89,8
148,149.32,151.85,8
147,149.27,151.80,8
147,149.23,151.76,8
149,149.22,151.73,8
149,149.22,151.70,8
151,149.25,151.69,8
148,149.23,151.66,8
149,149.22,151.63,8
149,149.22,151.61,8
149,149.22,151.58,8
148,149.19,151.54,8
147,149.15,151.50,8
148,149.12,151.46,8
149,149.12,151.44,8
148,149.10,151.40,8
147,149.06,151.36,8
147,149.02,151.32,8
149,149.02,151.29,8
147,148.98,151.25,8
147,148.94,151.21,8
147,148.90,151.17,8
145,148.82,151.10,8
147,148.78,151.06,8
146,148.73,151.01,8
148,148.71,150.98,8
145,148.64,150.92,8
146,148.59,150.87,8
148,148.57,150.84,8
145,148.50,150.79,8
147,148.47,150.75,8
148,148.46,150.72,8
149,148.47,150.70,8
152,148.54,150.72,8
149,148.55,150.70,8
149,148.56,150.68,8
149,148.57,150.67,8
149,148.58,150.65,8
149,148.59,150.63,8
147,148.56,150.60,8
148,148.55,150.57,8
148,148.53,150.54,8
148,148.52,150.52,8
148,148.51,150.49,8
148,148.50,150.47,8
148,148.49,150.44,8
149,148.50,150.43,8
149,148.51,150.42,8
147,148.48,150.38,8
147,148.45,150.35,8
147,148.42,150.31,8
148,148.42,150.29,8
147,148.39,150.26,8
148,148.38,150.24,8
149,148.39,150.22,8
147,148.36,150.19,8
148,148.36,150.17,8
149,148.37,150.16,8
149,148.38,150.15,8
147,148.35,150.11,8
151,148.41,150.12,8
148,148.40,150.10,8
148,148.39,150.08,8
149,148.40,150.07,8
148,148.40,150.05,8
151,148.45,150.06,8
149,148.46,150.05,8
147,148.43,150.02,8
149,148.44,150.01,8
147,148.41,149.98,8
148,148.40,149.96,8
148,148.40,149.94,8
149,148.41,149.93,8
149,148.42,149.92,8
149,148.43,149.91,8
148,148.42,149.89,8
149,148.43,149.88,8
148,148.43,149.86,8
147,148.40,149.83,8
149,148.41,149.83,8
149,148.42,149.82,8
149,148.43,149.81,8
148,148.42,149.79,8
148,148.42,149.77,8
149,148.43,149.77,8
148,148.42,149.75,8
149,148.43,149.74,8
149,148.44,149.73,8
153,148.53,149.77,8
148,148.52,149.75,8
147,148.49,149.72,8
149,148.50,149.71,8
149,148.51,149.71,8
148,148.50,149.69,8
148,148.49,149.67,8
150,148.52,149.68,8
148,148.51,149.66,8
149,148.52,149.65,8
147,148.49,149.63,8
149,148.50,149.62,8
147,148.47,149.59,8
147,148.44,149.57,8
148,148.43,149.55,8
147,148.40,149.53,8
148,148.40,149.51,8
148,148.39,149.50,8
148,148.38,149.48,8
147,148.35,149.46,8
149,148.37,149.45,8
147,148.34,149.43,8
148,148.33,149.41,8
147,148.30,149.39,8
147,148.28,149.37,8
147,148.25,149.34,8
147,148.23,149.32,8
146,148.18,149.28,8
145,148.12,149.24,8
147,148.10,149.22,8
147,148.08,149.20,8
147,148.05,149.18,8
146,148.01,149.14,8
145,147.95,149.10,8
147,147.93,149.08,8
145,147.88,149.04,8
147,147.86,149.02,8
147,147.84,149.00,8
146,147.80,148.97,8
146,147.77,148.94,8
146,147.73,148.91,8
147,147.72,148.89,8
147,147.70,148.87,8
148,147.71,148.86,8
145,147.65,148.83,8
145,147.60,148.79,8
145,147.55,148.75,8
146,147.52,148.72,8
145,147.47,148.68,8
146,147.44,148.66,8
145,147.39,148.62,8
145,147.34,148.58,8
147,147.34,148.57,8
145,147.29,148.53,8
148,147.30,148.53,8
146,147.28,148.50,8
147,147.27,148.49,8
149,147.31,148.49,8
145,147.26,148.46,8
145,147.21,148.42,8
145,147.17,148.39,8
145,147.13,148.36,8
146,147.10,148.33,8
148,147.12,148.33,8
149,147.16,148.34,8
145,147.12,148.30,8
147,147.11,148.29,8
147,147.11,148.28,8
147,147.11,148.26,8
145,147.07,148.23,8
147,147.07,148.22,8
146,147.05,148.20,8
147,147.04,148.18,8
146,147.02,148.16,8
145,146.98,148.13,8
148,147.00,148.13,8
149,147.04,148.14,8
145,147.00,148.11,8
149,147.04,148.12,8
149,147.08,148.12,8
147,147.08,148.11,8
149,147.12,148.12,8
148,147.14,148.12,8
147,147.13,148.11,8
148,147.15,148.11,8
147,147.15,148.10,8
147,147.14,148.09,8
147,147.14,148.08,8
146,147.12,148.05,8
147,147.12,148.04,8
147,147.11,148.03,8
147,147.11,148.02,8
145,147.07,147.99,8
148,147.09,147.99,8
148,147.11,147.99,8
146,147.08,147.97,8
149,147.12,147.98,8
147,147.12,147.97,8
145,147.08,147.94,8
146,147.06,147.92,8
149,147.10,147.94,8
148,147.11,147.94,8
145,147.07,147.91,8
146,147.05,147.89,8
147,147.05,147.88,8
146,147.03,147.86,8
146,147.01,147.84,8
145,146.97,147.81,8
145,146.93,147.78,8
149,146.97,147.80,8
147,146.97,147.79,8
145,146.93,147.76,8
147,146.93,147.75,8
145,146.89,147.73,8
147,146.90,147.72,8
149,146.94,147.73,8
147,146.94,147.72,8
150,147.00,147.75,8
148,147.02,147.75,8
149,147.06,147.76,8
147,147.06,147.75,8
148,147.08,147.76,8
147,147.08,147.75,8
148,147.09,147.75,8
148,147.11,147.75,8
147,147.11,147.75,8
146,147.09,147.73,8
147,147.09,147.72,8
147,147.08,147.71,8
146,147.06,147.70,8
145,147.02,147.67,8
147,147.02,147.66,8
149,147.06,147.68,8
147,147.06,147.67,8
146,147.04,147.65,8
147,147.04,147.65,8
147,147.04,147.64,8
147,147.04,147.63,8
147,147.04,147.63,8
147,147.03,147.62,8
148,147.05,147.63,8
145,147.01,147.60,8
146,146.99,147.58,8
147,146.99,147.58,8
146,146.97,147.56,8
147,146.97,147.56,8
149,147.01,147.57,8
149,147.05,147.58,8
153,147.17,147.64,8
151,147.25,147.67,8
149,147.28,147.69,8
148,147.30,147.69,8
148,147.31,147.69,8
148,147.33,147.70,8
149,147.36,147.71,8
149,147.39,147.72,8
151,147.46,147.75,8
148,147.48,147.76,8
149,147.51,147.77,8
148,147.52,147.77,8
149,147.55,147.78,8
149,147.57,147.80,8
148,147.58,147.80,8
149,147.61,147.81,8
152,147.70,147.85,8
147,147.69,147.84,8
151,147.75,147.87,9
151,147.82,147.91,9
154,147.94,147.97,10
152,148.02,148.01,10
152,148.10,148.05,11
152,148.18,148.09,11
151,148.24,148.12,12
153,148.33,148.16,12
153,148.42,148.21,12
151,148.48,148.24,12
153,148.57,148.29,12
152,148.63,148.33,12
151,148.68,148.35,12
150,148.71,148.37,12
151,148.75,148.40,12
154,148.86,148.45,12
156,149.00,148.53,12
155,149.12,148.59,12
157,149.28,148.68,12
153,149.35,148.72,12
155,149.47,148.78,12
157,149.62,148.86,12
153,149.69,148.91,12
154,149.77,148.96,12
157,149.92,149.04,12
156,150.04,149.11,12
158,150.20,149.20,12
159,150.37,149.29,12
159,150.55,149.39,12
157,150.67,149.47,12
157,150.80,149.54,12
158,150.95,149.63,12
159,151.11,149.72,12
157,151.22,149.79,12
156,151.32,149.85,12
157,151.43,149.93,12
157,151.54,150.00,12
156,151.63,150.06,12
159,151.78,150.15,12
158,151.91,150.23,12
157,152.01,150.29,12
157,152.11,150.36,12
156,152.18,150.42,12
158,152.30,150.49,12
157,152.40,150.56,12
161,152.57,150.66,12
160,152.72,150.76,12
159,152.84,150.84,12
162,153.02,150.95,12
159,153.14,151.03,12
159,153.26,151.11,12
164,153.48,151.24,12
162,153.65,151.35,12
161,153.79,151.44,12
159,153.90,151.52,12
160,154.02,151.60,12
161,154.16,151.70,12
159,154.26,151.77,12
159,154.35,151.84,12
159,154.44,151.91,12
160,154.56,151.99,12
159,154.64,152.06,12
162,154.79,152.16,12
159,154.88,152.23,12
163,155.04,152.34,12
161,155.16,152.43,12
159,155.23,152.49,12
168,155.49,152.65,12
165,155.68,152.77,12
163,155.83,152.87,12
160,155.91,152.94,12
161,156.01,153.03,12
162,156.13,153.11,12
161,156.23,153.19,12
163,156.36,153.29,12
166,156.56,153.42,12
163,156.69,153.51,12
163,156.81,153.61,12
165,156.98,153.72,12
163,157.10,153.82,12
163,157.21,153.91,12
163,157.33,154.00,12
166,157.50,154.12,12
168,157.71,154.26,12
164,157.84,154.36,12
164,157.96,154.45,12
168,158.16,154.59,12
170,158.40,154.74,12
170,158.63,154.89,12
169,158.84,155.03,12
170,159.06,155.18,12
167,159.22,155.30,12
167,159.38,155.42,12
170,159.59,155.57,12
173,159.86,155.74,12
171,160.08,155.89,12
170,160.28,156.03,12
172,160.51,156.19,12
169,160.68,156.32,12
170,160.87,156.46,12
171,161.07,156.60,12
171,161.27,156.75,12
171,161.46,156.89,12
173,161.70,157.05,12
173,161.92,157.21,12
171,162.10,157.35,12
169,162.24,157.46,12
170,162.40,157.59,12
173,162.61,157.74,12
171,162.78,157.88,12
170,162.92,158.00,12
171,163.08,158.13,12
173,163.28,158.28,12
171,163.44,158.40,12
171,163.59,158.53,12
174,163.79,158.68,12
172,163.96,158.82,12
175,164.18,158.98,12
172,164.34,159.11,12
173,164.51,159.25,12
173,164.68,159.39,12
173,164.85,159.52,12
177,165.09,159.70,12
174,165.27,159.84,12
175,165.46,159.99,12
173,165.61,160.12,12
176,165.82,160.28,12
182,166.14,160.50,12
182,166.46,160.71,12
178,166.69,160.89,12
179,166.94,161.07,12
180,167.20,161.26,12
185,167.56,161.49,12
186,167.92,161.74,12
182,168.21,161.94,12
181,168.46,162.13,12
181,168.71,162.32,12
179,168.92,162.49,12
180,169.14,162.66,12
183,169.42,162.87,12
182,169.67,163.06,12
186,170.00,163.29,12
187,170.34,163.52,12
187,170.67,163.76,12
189,171.04,164.01,12
184,171.29,164.21,12
187,171.61,164.44,12
188,171.94,164.67,12
186,172.22,164.89,12
191,172.59,165.15,12
190,172.94,165.40,12
190,173.28,165.64,12
187,173.56,165.86,12
191,173.91,166.11,12
190,174.23,166.35,12
191,174.56,166.59,12
190,174.87,166.83,12
195,175.27,167.11,12
190,175.57,167.34,12
197,176.00,167.64,12
195,176.38,167.91,12
196,176.77,168.19,12
194,177.11,168.45,12
192,177.41,168.68,12
193,177.72,168.93,12
194,178.05,169.18,12
194,178.37,169.43,12
194,178.68,169.67,12
200,179.11,169.97,12
194,179.41,170.21,12
200,179.82,170.51,12
206,180.34,170.87,12
200,180.73,171.16,12
198,181.08,171.43,12
204,181.54,171.75,12
199,181.89,172.03,12
199,182.23,172.30,12
200,182.58,172.57,12
203,182.99,172.88,12
203,183.39,173.18,12
202,183.77,173.47,12
203,184.15,173.76,12
208,184.63,174.10,12
212,185.17,174.48,12
207,185.61,174.81,12
207,186.04,175.13,12
209,186.50,175.47,12
206,186.89,175.77,12
209,187.33,176.11,12
207,187.72,176.41,12
205,188.07,176.70,12
207,188.45,177.00,12
206,188.80,177.29,12
204,189.10,177.56,12
204,189.40,177.83,12
206,189.73,178.11,12
207,190.08,178.40,12
214,190.56,178.75,12
211,190.97,179.07,12
207,191.29,179.35,12
212,191.70,179.68,12
210,192.07,179.98,12
213,192.49,180.31,12
214,192.92,180.65,12
214,193.34,180.98,12
211,193.69,181.28,12
215,194.12,181.62,12
208,194.39,181.89,12
211,194.73,182.18,12
210,195.03,182.45,12
211,195.35,182.74,12
212,195.68,183.03,12
210,195.97,183.30,12
211,196.27,183.58,12
210,196.55,183.84,12
212,196.85,184.12,12
212,197.16,184.40,12
211,197.43,184.67,12
213,197.75,184.95,12
210,197.99,185.20,12
212,198.27,185.47,12
210,198.51,185.72,12
213,198.80,185.99,12
213,199.08,186.26,12
213,199.36,186.53,12
215,199.67,186.81,12
211,199.90,187.05,12
211,200.12,187.29,12
210,200.32,187.52,12
210,200.51,187.75,12
211,200.72,187.98,12
213,200.97,188.23,12
212,201.19,188.47,12
210,201.36,188.68,12
211,201.56,188.90,12
210,201.72,189.12,12
210,201.89,189.32,12
211,202.07,189.54,12
211,202.25,189.76,12
209,202.39,189.95,12
210,202.54,190.15,12
209,202.67,190.34,12
208,202.77,190.51,12
210,202.92,190.71,12
209,203.04,190.89,12
209,203.16,191.07,12
211,203.32,191.27,12
209,203.43,191.45,12
207,203.50,191.60,12
210,203.63,191.79,12
210,203.76,191.97,12
210,203.88,192.15,12
209,203.99,192.32,12
213,204.17,192.53,12
209,204.26,192.69,12
207,204.32,192.83,12
208,204.39,192.99,12
208,204.46,193.14,12
211,204.59,193.31,12
207,204.64,193.45,12
212,204.79,193.64,12
215,204.99,193.85,12
209,205.07,194.00,12
209,205.15,194.15,12
210,205.25,194.31,12
209,205.32,194.46,12
209,205.40,194.60,12
214,205.57,194.80,12
217,205.80,195.02,12
214,205.96,195.21,12
215,206.14,195.41,12
217,206.36,195.62,12
222,206.67,195.89,12
221,206.96,196.14,12
218,207.18,196.36,12
216,207.36,196.55,12
216,207.53,196.75,12
217,207.72,196.95,12
219,207.94,197.17,12
216,208.11,197.36,12
217,208.28,197.55,12
219,208.50,197.77,12
215,208.63,197.94,12
216,208.78,198.12,12
215,208.90,198.29,12
216,209.04,198.47,12
217,209.20,198.65,12
215,209.32,198.82,12
220,209.53,199.03,12
216,209.66,199.20,12
215,209.77,199.36,12
213,209.83,199.49,12
215,209.94,199.65,12
215,210.04,199.80,12
213,210.10,199.93,12
214,210.17,200.07,12
213,210.23,200.20,12
214,210.31,200.34,12
215,210.40,200.49,12
215,210.49,200.63,12
214,210.56,200.77,12
214,210.63,200.90,12
214,210.70,201.03,12
212,210.72,201.14,12
212,210.75,201.25,12
212,210.77,201.36,12
211,210.78,201.45,12
212,210.80,201.56,12
211,210.81,201.65,12
211,210.81,201.75,12
210,210.80,201.83,12
209,210.76,201.90,12
211,210.76,201.99,12
209,210.73,202.06,12
209,210.69,202.13,12
209,210.66,202.20,12
208,210.61,202.26,12
209,210.57,202.32,12
209,210.54,202.39,12
209,210.51,202.46,12
208,210.46,202.51,12
207,210.39,202.56,12
207,210.33,202.60,12
207,210.26,202.65,12
207,210.19,202.69,12
207,210.13,202.73,12
206,210.05,202.77,12
206,209.97,202.80,12
207,209.91,202.84,12
206,209.83,202.87,12
205,209.73,202.89,12
205,209.64,202.91,12
205,209.54,202.93,12
204,209.43,202.95,12
205,209.35,202.97,12
205,209.26,202.99,12
206,209.19,203.02,12
205,209.11,203.04,12
204,209.01,203.05,12
204,208.91,203.06,12
204,208.81,203.06,12
204,208.71,203.07,12
203,208.60,203.07,12
202,208.47,203.06,12
202,208.34,203.05,12
203,208.23,203.05,12
203,208.13,203.05,12
201,207.98,203.03,12
201,207.84,203.01,12
203,207.75,203.01,12
201,207.61,202.99,12
201,207.48,202.97,12
200,207.33,202.94,12
201,207.20,202.92,12
199,207.04,202.88,12
200,206.90,202.85,12
199,206.74,202.81,12
203,206.67,202.82,12
199,206.51,202.78,12
199,206.36,202.74,12
199,206.21,202.70,12
199,206.07,202.67,12
199,205.93,202.63,12
198,205.77,202.58,12
198,205.62,202.54,12
200,205.50,202.51,12
198,205.35,202.47,12
196,205.17,202.40,12
198,205.02,202.36,12
198,204.88,202.31,12
196,204.70,202.25,12
196,204.53,202.19,12
196,204.36,202.13,12
197,204.21,202.08,12
196,204.05,202.01,12
195,203.87,201.94,12
194,203.67,201.87,12
194,203.48,201.79,12
194,203.29,201.71,12
194,203.10,201.63,12
194,202.92,201.56,12
195,202.76,201.49,12
193,202.57,201.40,12
192,202.35,201.31,12
192,202.15,201.22,12
193,201.96,201.14,12
193,201.79,201.05,12
192,201.59,200.96,12
191,201.38,200.86,12
192,201.19,200.78,12
193,201.03,200.70,12
190,200.81,200.59,12
191,200.61,200.49,13
190,200.40,200.39,13
191,200.21,200.30,14
189,199.99,200.18,14
189,199.77,200.07,14
190,199.57,199.97,14
190,199.38,199.87,14
189,199.17,199.76,14
188,198.95,199.64,14
190,198.77,199.55,14
189,198.57,199.44,14
188,198.36,199.33,14
188,198.15,199.21,14
188,197.95,199.10,14
188,197.75,198.99,14
187,197.54,198.87,14
186,197.31,198.74,14
187,197.10,198.63,14
187,196.90,198.51,14
185,196.66,198.37,14
187,196.47,198.26,14
187,196.28,198.15,14
185,196.05,198.02,14
185,195.83,197.89,14
185,195.61,197.76,14
186,195.42,197.64,14
185,195.21,197.51,14
183,194.97,197.37,14
184,194.75,197.23,14
183,194.52,197.09,14
184,194.31,196.96,14
183,194.08,196.82,14
184,193.88,196.69,14
184,193.68,196.57,14
183,193.47,196.43,14
182,193.24,196.29,14
179,192.95,196.11,14
181,192.71,195.96,14
181,192.48,195.81,14
182,192.27,195.67,14
182,192.06,195.54,14
183,191.88,195.41,14
182,191.69,195.28,14
180,191.45,195.13,14
179,191.20,194.96,14
180,190.98,194.81,14
182,190.80,194.69,14
180,190.58,194.54,14
180,190.37,194.39,14
179,190.14,194.24,14
180,189.94,194.10,14
179,189.72,193.95,14
178,189.49,193.79,14
178,189.26,193.63,14
179,189.05,193.48,14
178,188.83,193.33,14
178,188.62,193.18,14
177,188.38,193.01,14
176,188.14,192.84,14
177,187.91,192.69,14
177,187.69,192.53,14
177,187.48,192.37,14
176,187.25,192.21,14
175,187.01,192.04,14
176,186.79,191.88,14
176,186.57,191.72,14
175,186.34,191.55,14
175,186.11,191.39,14
175,185.89,191.22,14
175,185.67,191.06,14
174,185.44,190.89,14
174,185.21,190.72,14
176,185.03,190.57,14
174,184.80,190.41,14
174,184.59,190.24,14
173,184.36,190.07,14
174,184.15,189.91,14
173,183.93,189.74,14
173,183.71,189.57,14
172,183.47,189.40,14
174,183.28,189.24,14
172,183.06,189.07,14
172,182.84,188.90,14
172,182.62,188.73,14
172,182.41,188.56,14
171,182.18,188.39,14
171,181.96,188.21,14
171,181.74,188.04,14
171,181.52,187.87,14
170,181.29,187.69,14
170,181.07,187.52,14
171,180.87,187.35,14
170,180.65,187.18,14
169,180.42,187.00,14
170,180.21,186.83,14
170,180.00,186.66,14
170,179.80,186.49,14
168,179.57,186.31,14
170,179.38,186.14,14
169,179.17,185.97,14
169,178.96,185.80,14
168,178.75,185.62,14
169,178.55,185.46,14
168,178.34,185.28,14
168,178.13,185.11,14
167,177.91,184.93,14
167,177.69,184.75,14
167,177.48,184.57,14
167,177.27,184.40,14
168,177.08,184.23,14
166,176.86,184.05,14
167,176.66,183.88,14
166,176.45,183.70,14
166,176.24,183.52,14
166,176.04,183.35,14
166,175.84,183.18,14
165,175.62,182.99,14
168,175.47,182.84,14
165,175.26,182.67,14
166,175.07,182.50,14
166,174.89,182.33,14
164,174.67,182.15,14
164,174.46,181.97,14
165,174.27,181.80,14
164,174.07,181.62,14
163,173.84,181.43,14
163,173.63,181.25,14
164,173.43,181.08,14
165,173.27,180.92,14
163,173.06,180.74,14
163,172.86,180.56,14
163,172.66,180.39,14
163,172.47,180.21,14
163,172.28,180.04,14
162,172.07,179.86,14
164,171.91,179.70,14
162,171.71,179.52,14
161,171.50,179.34,14
161,171.29,179.15,14
161,171.08,178.97,14
162,170.90,178.80,14
162,170.72,178.64,14
159,170.49,178.44,14
163,170.34,178.28,14
161,170.15,178.11,14
160,169.95,177.93,14
160,169.75,177.75,14
159,169.54,177.56,14
160,169.35,177.39,14
161,169.18,177.22,14
159,168.97,177.04,14
160,168.80,176.87,14
162,168.66,176.72,14
160,168.49,176.56,14
161,168.34,176.40,14
159,168.15,176.23,14
160,167.99,176.06,14
159,167.81,175.89,14
159,167.63,175.72,14
160,167.48,175.57,14
159,167.31,175.40,14
160,167.16,175.25,14
158,166.98,175.07,14
159,166.82,174.91,14
156,166.60,174.73,14
158,166.43,174.56,14
158,166.26,174.39,14
158,166.10,174.23,14
158,165.94,174.07,14
158,165.78,173.91,14
156,165.58,173.73,14
157,165.41,173.56,14
157,165.24,173.39,14
156,165.06,173.22,14
157,164.90,173.06,14
156,164.72,172.89,14
157,164.56,172.73,14
156,164.39,172.56,14
156,164.22,172.39,14
155,164.04,172.22,14
157,163.90,172.07,14
155,163.72,171.90,14
155,163.55,171.73,14
155,163.38,171.56,14
156,163.23,171.41,14
154,163.04,171.23,14
154,162.86,171.06,14
155,162.71,170.90,14
154,162.53,170.73,14
154,162.36,170.56,14
154,162.19,170.40,14
155,162.05,170.24,14
154,161.89,170.08,14
154,161.73,169.92,14
154,161.58,169.76,14
152,161.38,169.58,14
152,161.20,169.41,14
152,161.01,169.23,14
153,160.85,169.07,14
153,160.70,168.91,14
153,160.54,168.75,14
152,160.37,168.58,14
153,160.22,168.43,14
152,160.06,168.26,14
151,159.88,168.09,14
151,159.70,167.92,14
151,159.53,167.75,14
151,159.36,167.58,14
151,159.19,167.42,14
150,159.01,167.24,14
150,158.82,167.07,14
150,158.65,166.90,14
151,158.50,166.74,14
150,158.33,166.57,14
149,158.14,166.40,14
150,157.98,166.23,14
150,157.82,166.07,14
150,157.66,165.91,14
148,157.47,165.73,14
149,157.30,165.56,14
149,157.13,165.40,14
149,156.97,165.23,14
145,156.73,165.03,14
149,156.58,164.87,14
150,156.44,164.72,14
148,156.27,164.56,14
148,156.11,164.39,14
149,155.97,164.24,14
148,155.81,164.07,14
149,155.67,163.92,14
148,155.52,163.76,14
148,155.37,163.61,14
150,155.26,163.47,14
148,155.12,163.32,14
148,154.97,163.16,14
147,154.81,163.00,14
147,154.66,162.84,14
147,154.50,162.68,14
147,154.35,162.53,14
148,154.23,162.38,14
147,154.08,162.23,14
148,153.96,162.08,14
147,153.82,161.93,14
147,153.69,161.78,14
147,153.55,161.64,14
146,153.40,161.48,14
146,153.25,161.33,14
146,153.11,161.17,14
145,152.95,161.01,14
145,152.79,160.85,14
148,152.69,160.72,14
147,152.58,160.58,14
146,152.45,160.44,14
146,152.32,160.29,14
145,152.17,160.14,14
147,152.07,160.01,14
147,151.97,159.88,14
145,151.83,159.73,14
146,151.71,159.59,14
146,151.60,159.46,14
147,151.50,159.33,14
145,151.37,159.19,14
145,151.25,159.05,14
145,151.12,158.91,14
146,151.02,158.78,14
145,150.90,158.64,14
146,150.80,158.51,14
145,150.68,158.38,14
146,150.59,158.26,14
146,150.50,158.13,14
144,150.37,157.99,14
145,150.26,157.86,14
145,150.16,157.73,14
144,150.03,157.60,14
145,149.93,157.47,14
144,149.81,157.34,14
144,149.70,157.20,14
144,149.58,157.07,14
144,149.47,156.94,14
143,149.34,156.80,14
144,149.24,156.67,14
143,149.11,156.53,14
144,149.01,156.41,14
142,148.87,156.27,14
143,148.75,156.13,14
142,148.62,155.99,14
143,148.50,155.86,14
144,148.41,155.74,14
145,148.35,155.64,14
143,148.24,155.51,14
143,148.13,155.38,14
143,148.03,155.26,14
144,147.95,155.15,14
144,147.87,155.04,14
143,147.77,154.92,14
144,147.70,154.81,14
144,147.62,154.70,14
143,147.53,154.58,14
143,147.44,154.47,14
142,147.33,154.34,14
144,147.27,154.24,14
144,147.20,154.14,14
144,147.14,154.03,14
145,147.09,153.94,14
143,147.01,153.83,14
142,146.91,153.72,14
143,146.83,153.61,14
143,146.76,153.50,14
142,146.66,153.39,14
142,146.57,153.27,14
142,146.48,153.16,14
143,146.41,153.06,14
143,146.34,152.96,14
142,146.25,152.85,14
141,146.15,152.73,14
142,146.06,152.62,14
141,145.96,152.51,14
142,145.88,152.40,14
141,145.79,152.29,14
141,145.69,152.18,14
141,145.60,152.06,14
142,145.53,151.96,14
140,145.41,151.84,14
139,145.29,151.71,14
140,145.18,151.60,14
139,145.06,151.47,14
139,144.94,151.35,14
140,144.84,151.23,14
140,144.74,151.12,14
140,144.65,151.01,14
140,144.55,150.90,14
140,144.46,150.79,14
140,144.37,150.68,14
140,144.28,150.58,14
139,144.18,150.46,14
140,144.10,150.36,14
139,143.99,150.24,14
140,143.91,150.14,14
142,143.88,150.06,14
139,143.78,149.95,14
138,143.66,149.83,14
139,143.57,149.72,14
139,143.48,149.61,14
139,143.39,149.51,14
140,143.32,149.41,14
139,143.23,149.31,14
139,143.15,149.20,14
138,143.05,149.09,14
138,142.95,148.98,14
138,142.85,148.87,14
139,142.77,148.77,14
139,142.69,148.68,14
138,142.60,148.57,14
139,142.53,148.47,14
139,142.46,148.38,14
137,142.35,148.26,14
137,142.24,148.15,14
137,142.14,148.04,14
138,142.05,147.94,14
137,141.95,147.83,14
137,141.85,147.72,14
137,141.76,147.61,14
138,141.68,147.52,14
137,141.59,147.41,14
137,141.50,147.31,14
136,141.39,147.20,14
137,141.30,147.09,14
137,141.21,146.99,14
137,141.13,146.89,14
137,141.05,146.79,14
137,140.97,146.70,14
137,140.89,146.60,14
136,140.79,146.49,14
141,140.79,146.44,14
136,140.70,146.33,14
136,140.60,146.23,14
135,140.49,146.12,14
137,140.42,146.03,14
136,140.33,145.93,14
136,140.25,145.83,14
135,140.14,145.72,14
135,140.04,145.61,14
136,139.96,145.52,14
135,139.86,145.41,14
137,139.80,145.33,14
137,139.74,145.24,14
135,139.65,145.14,14
135,139.56,145.04,14
135,139.47,144.94,14
135,139.38,144.84,14
138,139.35,144.77,14
136,139.28,144.68,14
136,139.22,144.60,14
136,139.15,144.51,14
139,139.15,144.46,14
136,139.09,144.37,14
135,139.00,144.28,14
135,138.92,144.19,14
135,138.85,144.09,14
135,138.77,144.00,14
136,138.71,143.92,14
136,138.66,143.84,14
136,138.61,143.76,14
134,138.51,143.67,14
134,138.42,143.57,14
134,138.34,143.47,14
134,138.25,143.38,14
136,138.20,143.31,14
140,138.24,143.27,14
134,138.15,143.18,14
136,138.11,143.11,14
135,138.05,143.03,14
134,137.97,142.94,14
134,137.89,142.85,14
134,137.81,142.76,14
134,137.73,142.67,14
134,137.66,142.58,14
134,137.59,142.50,14
134,137.52,142.41,14
134,137.44,142.33,14
134,137.38,142.25,14
134,137.31,142.16,14
133,137.22,142.07,14
134,137.16,141.99,14
133,137.07,141.90,14
134,137.01,141.82,14
133,136.93,141.73,14
132,136.83,141.64,14
132,136.74,141.54,14
134,136.68,141.47,14
134,136.63,141.39,14
133,136.56,141.31,14
132,136.47,141.21,14
135,136.44,141.15,14
135,136.41,141.09,14
135,136.38,141.03,14
134,136.33,140.96,14
132,136.25,140.87,14
133,136.18,140.79,14
133,136.12,140.71,14
133,136.05,140.64,14
134,136.01,140.57,14
135,135.99,140.51,14
133,135.93,140.44,14
134,135.89,140.37,14
132,135.82,140.29,14
133,135.76,140.22,14
135,135.74,140.17,14
132,135.67,140.08,14
133,135.62,140.01,14
132,135.54,139.93,14
132,135.47,139.85,14
133,135.42,139.78,14
132,135.36,139.71,14
133,135.31,139.64,14
131,135.22,139.55,14
132,135.16,139.48,14
131,135.07,139.39,14
134,135.05,139.34,14
132,134.99,139.27,14
131,134.91,139.18,14
131,134.83,139.10,14
132,134.78,139.03,14
131,134.70,138.95,14
131,134.63,138.87,14
131,134.56,138.79,14
132,134.50,138.72,14
130,134.41,138.64,14
132,134.37,138.57,14
132,134.32,138.50,14
132,134.27,138.44,14
131,134.21,138.37,14
131,134.14,138.29,14
133,134.12,138.24,14
131,134.06,138.17,14
131,134.00,138.09,14
131,133.94,138.02,14
131,133.88,137.95,14
131,133.82,137.88,14
131,133.76,137.82,14
131,133.71,137.75,14
131,133.65,137.68,14
132,133.62,137.62,14
130,133.55,137.55,14
131,133.50,137.48,14
131,133.45,137.42,14
130,133.38,137.34,14
131,133.33,137.28,14
130,133.26,137.21,14
130,133.20,137.13,14
130,133.14,137.06,14
130,133.07,136.99,14
130,133.01,136.92,14
130,132.95,136.85,14
130,132.89,136.78,14
130,132.83,136.72,14
129,132.76,136.64,14
129,132.68,136.56,14
129,132.61,136.49,14
130,132.56,136.42,14
128,132.47,136.34,14
129,132.40,136.26,14
130,132.35,136.20,14
128,132.26,136.12,14
129,132.20,136.05,14
129,132.13,135.98,14
130,132.09,135.92,14
128,132.01,135.84,14
128,131.93,135.76,14
129,131.87,135.69,14
128,131.79,135.62,14
128,131.72,135.54,14
127,131.62,135.45,14
127,131.53,135.37,14
128,131.46,135.30,14
127,131.37,135.21,14
127,131.28,135.13,14
126,131.18,135.04,14
126,131.07,134.95,14
127,130.99,134.87,14
126,130.89,134.78,14
128,130.83,134.71,14
127,130.76,134.64,14
126,130.66,134.55,14
127,130.59,134.47,14
127,130.52,134.40,14
128,130.47,134.34,14
126,130.38,134.25,14
126,130.29,134.17,14
126,130.20,134.09,14
128,130.16,134.03,14
127,130.10,133.96,14
125,129.99,133.87,14
126,129.91,133.79,14
127,129.86,133.72,14
127,129.80,133.65,14
128,129.76,133.60,14
127,129.71,133.53,14
127,129.65,133.47,14
127,129.60,133.40,14
126,129.53,133.33,14
126,129.46,133.25,14
126,129.39,133.18,14
125,129.30,133.10,14
127,129.26,133.04,14
128,129.23,132.99,14
126,129.17,132.92,14
126,129.10,132.85,14
128,129.08,132.80,14
128,129.06,132.75,14
128,129.04,132.71,14
127,129.00,132.65,14
127,128.96,132.59,14
127,128.92,132.54,14
127,128.88,132.48,14
127,128.84,132.43,14
125,128.76,132.35,14
126,128.71,132.29,14
126,128.66,132.23,14
123,128.54,132.13,14
125,128.47,132.06,14
126,128.42,132.00,14
128,128.41,131.96,14
126,128.37,131.90,14
125,128.30,131.83,14
125,128.23,131.76,14
125,128.17,131.70,14
125,128.10,131.63,14
125,128.04,131.56,14
127,128.02,131.52,14
126,127.98,131.46,14
128,127.98,131.43,14
126,127.94,131.37,14
125,127.88,131.31,14
126,127.84,131.26,14
125,127.79,131.19,14
127,127.77,131.15,14
127,127.76,131.11,14
126,127.72,131.06,14
126,127.69,131.01,14
125,127.63,130.95,14
126,127.60,130.90,14
125,127.55,130.84,14
126,127.52,130.79,14
130,127.57,130.78,14
126,127.54,130.74,14
125,127.49,130.68,14
125,127.44,130.62,14
125,127.39,130.57,14
124,127.32,130.50,14
126,127.29,130.46,14
123,127.21,130.38,14
126,127.18,130.34,14
125,127.14,130.28,14
126,127.12,130.24,14
125,127.07,130.19,14
126,127.05,130.15,14
125,127.01,130.09,14
126,126.99,130.05,14
125,126.95,130.00,14
125,126.91,129.95,14
124,126.85,129.89,14
124,126.80,129.83,14
124,126.74,129.78,14
124,126.69,129.72,14
124,126.63,129.66,14
125,126.60,129.61,14
127,126.61,129.59,14
124,126.56,129.53,14
125,126.52,129.49,14
127,126.53,129.46,14
126,126.52,129.43,14
128,126.55,129.41,14
127,126.56,129.39,14
126,126.55,129.36,14
126,126.54,129.32,14
126,126.53,129.29,14
126,126.52,129.26,14
128,126.55,129.24,14
125,126.52,129.20,14
127,126.53,129.18,14
127,126.54,129.16,14
128,126.57,129.15,14
127,126.57,129.12,14
126,126.56,129.09,14
127,126.57,129.07,14
126,126.56,129.04,14
129,126.61,129.04,14
126,126.60,129.01,14
130,126.66,129.02,14
126,126.65,128.99,14
125,126.62,128.95,14
126,126.61,128.92,14
125,126.57,128.88,14
127,126.58,128.86,14
125,126.55,128.82,14
129,126.60,128.83,14
126,126.59,128.80,14
126,126.58,128.77,14
127,126.58,128.75,14
125,126.55,128.71,14
126,126.54,128.69,14
126,126.53,128.66,14
125,126.50,128.62,14
127,126.51,128.61,14
127,126.52,128.59,14
126,126.51,128.57,14
125,126.48,128.53,14
125,126.45,128.49,14
126,126.44,128.47,14
125,126.41,128.44,14
126,126.40,128.41,14
126,126.40,128.39,14
130,126.47,128.40,14
125,126.44,128.37,14
126,126.43,128.35,14
127,126.44,128.33,14
126,126.43,128.31,14
127,126.44,128.30,14
125,126.41,128.26,14
125,126.39,128.23,14
127,126.40,128.22,14
127,126.41,128.21,14
125,126.38,128.17,14
125,126.35,128.14,14
125,126.33,128.11,14
125,126.30,128.08,14
125,126.28,128.05,14
126,126.27,128.03,14
126,126.26,128.01,14
125,126.24,127.98,14
125,126.21,127.95,14
125,126.19,127.92,14
125,126.17,127.89,14
126,126.16,127.87,14
125,126.14,127.84,14
125,126.12,127.81,14
126,126.11,127.79,14
125,126.09,127.77,14
126,126.09,127.75,14
125,126.07,127.72,14
125,126.05,127.69,14
126,126.05,127.68,14
125,126.03,127.65,14
126,126.02,127.63,14
127,126.04,127.63,14
125,126.02,127.60,14
125,126.00,127.58,14
128,126.04,127.58,14
126,126.04,127.56,14
126,126.04,127.55,14
125,126.02,127.52,14
125,126.00,127.50,14
126,126.00,127.48,14
127,126.02,127.48,14
126,126.02,127.46,14
125,126.00,127.44,14
125,125.98,127.41,14
125,125.96,127.39,14
126,125.96,127.38,14
126,125.96,127.36,14
126,125.96,127.35,14
125,125.94,127.33,14
126,125.94,127.31,14
125,125.93,127.29,14
124,125.89,127.26,14
127,125.91,127.25,14
126,125.91,127.24,14
124,125.87,127.21,14
127,125.89,127.21,14
127,125.92,127.20,14
126,125.92,127.19,14
125,125.90,127.17,14
125,125.88,127.15,14
126,125.88,127.14,14
125,125.87,127.12,14
126,125.87,127.10,14
127,125.89,127.10,14
125,125.87,127.08,14
129,125.94,127.10,14
125,125.92,127.08,14
126,125.92,127.07,14
125,125.90,127.05,14
125,125.88,127.03,14
125,125.87,127.01,14
126,125.87,127.00,14
125,125.85,126.98,14
125,125.83,126.96,14
125,125.82,126.94,14
125,125.80,126.92,14
125,125.79,126.90,14
125,125.77,126.88,14
124,125.73,126.85,14
128,125.78,126.86,14
125,125.76,126.85,14
124,125.73,126.82,14
124,125.69,126.79,14
125,125.68,126.77,14
125,125.67,126.75,14
125,125.65,126.74,14
125,125.64,126.72,14
124,125.61,126.69,14
125,125.60,126.67,14
124,125.56,126.65,14
126,125.57,126.64,14
125,125.56,126.62,14
126,125.57,126.62,14
125,125.56,126.60,14
124,125.53,126.58,14
125,125.52,126.56,14
125,125.51,126.54,14
126,125.52,126.54,14
126,125.53,126.53,14
124,125.49,126.51,14
125,125.49,126.49,14
126,125.50,126.49,14
124,125.47,126.46,14
126,125.48,126.46,14
125,125.47,126.44,14
124,125.44,126.42,14
124,125.41,126.40,14
124,125.38,126.37,14
125,125.37,126.36,14
124,125.35,126.33,14
124,125.32,126.31,14
124,125.29,126.29,14
125,125.29,126.28,14
124,125.26,126.25,14
125,125.26,126.24,14
124,125.23,126.22,14
126,125.25,126.22,14
127,125.28,126.22,14
125,125.28,126.21,14
125,125.27,126.20,14
126,125.28,126.20,14
126,125.30,126.19,14
124,125.27,126.17,14
126,125.29,126.17,14
126,125.30,126.17,14
125,125.30,126.16,14
126,125.31,126.16,14
125,125.30,126.14,14
127,125.34,126.15,14
125,125.33,126.14,14
124,125.30,126.12,14
125,125.30,126.11,14
124,125.27,126.09,14
125,125.27,126.08,14
130,125.36,126.12,14
125,125.35,126.11,14
128,125.41,126.12,14
127,125.44,126.13,14
126,125.45,126.13,14
126,125.46,126.13,14
126,125.47,126.13,14
127,125.50,126.14,14
127,125.53,126.15,14
126,125.54,126.14,14
128,125.59,126.16,14
127,125.62,126.17,14
127,125.65,126.18,14
128,125.69,126.20,14
128,125.74,126.22,14
127,125.76,126.22,14
125,125.75,126.21,14
127,125.77,126.22,14
126,125.78,126.22,14
126,125.78,126.22,14
127,125.81,126.22,14
128,125.85,126.24,14
128,125.89,126.26,14
127,125.92,126.27,14
128,125.96,126.28,14
127,125.98,126.29,14
128,126.02,126.31,14
127,126.04,126.31,14
126,126.04,126.31,14
128,126.08,126.33,14
127,126.10,126.33,14
127,126.11,126.34,14
126,126.11,126.34,14
127,126.13,126.34,14
127,126.15,126.35,14
127,126.16,126.36,14
127,126.18,126.36,14
128,126.22,126.38,14
127,126.23,126.39,14
127,126.25,126.39,14
128,126.28,126.41,14
127,126.30,126.41,14
128,126.33,126.43,14
128,126.37,126.45,14
127,126.38,126.45,14
128,126.41,126.47,14
127,126.42,126.47,14
128,126.45,126.49,14
126,126.44,126.48,14
128,126.48,126.50,14
127,126.49,126.50,14
127,126.50,126.51,14
127,126.51,126.51,14
128,126.54,126.53,14
128,126.57,126.54,14
128,126.59,126.56,14
127,126.60,126.56,14
127,126.61,126.57,14
127,126.62,126.57,14
127,126.63,126.57,14
131,126.71,126.62,14
129,126.76,126.64,14
131,126.84,126.69,14
129,126.89,126.71,14
131,126.97,126.75,14
129,127.01,126.78,14
130,127.07,126.81,14
129,127.11,126.83,14
129,127.15,126.85,14
128,127.16,126.86,14
129,127.20,126.88,14
129,127.24,126.90,14
131,127.31,126.95,14
129,127.35,126.97,14
130,127.40,127.00,14
128,127.41,127.01,14
130,127.46,127.04,14
130,127.51,127.07,14
129,127.54,127.09,14
129,127.57,127.10,14
129,127.60,127.12,14
130,127.65,127.15,14
129,127.68,127.17,14
130,127.72,127.20,14
130,127.77,127.23,14
129,127.79,127.25,14
130,127.84,127.27,14
129,127.86,127.29,14
130,127.90,127.32,14
130,127.94,127.34,14
130,127.99,127.37,14
130,128.03,127.40,14
129,128.05,127.41,14
128,128.04,127.42,14
131,128.10,127.45,14
131,128.16,127.49,14
133,128.26,127.55,14
140,128.49,127.67,14
134,128.60,127.73,14
133,128.69,127.79,14
132,128.76,127.83,14
133,128.84,127.88,14
135,128.97,127.95,14
135,129.09,128.02,14
133,129.16,128.07,14
134,129.26,128.13,14
136,129.40,128.21,14
143,129.67,128.36,14
140,129.87,128.47,14
141,130.10,128.60,14
141,130.31,128.72,14
138,130.47,128.82,14
139,130.64,128.92,14
139,130.81,129.02,14
139,130.97,129.12,14
142,131.19,129.25,14
140,131.37,129.35,14
142,131.58,129.48,14
143,131.81,129.62,14
141,131.99,129.73,14
142,132.19,129.85,14
141,132.37,129.96,14
142,132.56,130.08,14
143,132.77,130.21,14
143,132.97,130.34,14
143,133.17,130.47,14
143,133.37,130.59,14
146,133.62,130.75,14
143,133.81,130.87,14
143,134.00,130.99,14
147,134.26,131.15,14
143,134.43,131.27,14
150,134.74,131.46,14
145,134.95,131.59,14
145,135.15,131.73,14
144,135.33,131.85,14
144,135.50,131.97,14
144,135.67,132.09,14
145,135.86,132.22,14
146,136.06,132.36,14
143,136.20,132.46,14
146,136.39,132.60,14
146,136.59,132.73,14
149,136.83,132.90,14
146,137.02,133.03,14
148,137.24,133.18,14
147,137.43,133.32,14
151,137.70,133.49,14
151,137.97,133.67,14
147,138.15,133.80,14
150,138.39,133.96,14
147,138.56,134.09,14
147,138.73,134.22,14
153,139.01,134.41,14
156,139.35,134.63,14
155,139.67,134.83,14
152,139.91,135.00,14
153,140.17,135.18,14
154,140.45,135.37,14
152,140.68,135.54,14
151,140.89,135.69,14
154,141.15,135.87,14
152,141.37,136.03,14
155,141.64,136.22,14
156,141.93,136.42,14
152,142.13,136.58,14
152,142.33,136.73,14
153,142.54,136.89,14
154,142.77,137.07,14
152,142.95,137.22,14
153,143.15,137.37,14
154,143.37,137.54,14
157,143.64,137.73,14
163,144.03,137.99,14
157,144.29,138.18,14
157,144.54,138.36,14
163,144.91,138.61,14
163,145.28,138.86,14
159,145.55,139.06,14
160,145.84,139.27,14
160,146.12,139.47,14
160,146.40,139.68,14
159,146.65,139.87,14
159,146.90,140.06,14
161,147.18,140.27,14
164,147.52,140.51,14
170,147.97,140.80,14
164,148.29,141.04,14
164,148.60,141.27,14
166,148.95,141.51,14
171,149.39,141.81,14
168,149.76,142.07,14
169,150.15,142.34,14
167,150.48,142.59,14
167,150.81,142.83,14
167,151.14,143.07,14
167,151.46,143.31,14
166,151.75,143.54,14
166,152.03,143.76,14
168,152.35,144.01,14
165,152.60,144.22,14
168,152.91,144.45,14
163,153.11,144.64,14
166,153.37,144.85,14
167,153.64,145.07,14
167,153.91,145.29,14
166,154.15,145.50,14
168,154.43,145.72,14
167,154.68,145.94,14
167,154.93,146.15,14
166,155.15,146.35,14
167,155.39,146.55,14
174,155.76,146.83,14
170,156.04,147.06,14
168,156.28,147.27,14
172,156.60,147.52,14
176,156.98,147.80,14
178,157.41,148.10,14
172,157.70,148.34,14
176,158.06,148.62,14
177,158.44,148.90,14
181,158.89,149.22,14
182,159.36,149.55,14
180,159.77,149.86,14
182,160.21,150.18,14
181,160.63,150.49,14
182,161.06,150.80,14
183,161.49,151.12,14
179,161.84,151.40,14
183,162.27,151.72,14
185,162.72,152.05,14
181,163.09,152.34,14
181,163.45,152.63,14
186,163.90,152.96,14
181,164.24,153.24,14
182,164.59,153.53,14
185,165.00,153.84,14
183,165.36,154.13,14
183,165.72,154.42,14
182,166.04,154.70,14
182,166.36,154.97,14
182,166.67,155.24,14
182,166.98,155.51,14
184,167.32,155.79,14
186,167.69,156.10,14
185,168.04,156.39,14
184,168.36,156.66,14
183,168.65,156.93,14
190,169.08,157.26,14
190,169.50,157.58,14
188,169.87,157.89,14
189,170.25,158.20,14
188,170.61,158.50,14
187,170.93,158.78,14
189,171.29,159.08,14
186,171.59,159.35,14
186,171.88,159.62,14
189,172.22,159.91,14
187,172.51,160.18,14
189,172.84,160.47,14
186,173.11,160.73,14
187,173.39,160.99,14
190,173.72,161.28,14
188,174.00,161.55,14
187,174.26,161.80,14
190,174.58,162.08,14
190,174.89,162.36,14
187,175.13,162.61,14
188,175.39,162.86,14
188,175.64,163.11,14
191,175.95,163.39,14
186,176.15,163.62,14
187,176.36,163.85,14
187,176.58,164.09,14
189,176.83,164.33,14
189,177.07,164.58,14
194,177.41,164.88,14
188,177.62,165.11,14
188,177.83,165.34,14
188,178.03,165.56,14
186,178.19,165.77,14
186,178.35,165.97,14
187,178.52,166.18,14
190,178.75,166.42,14
191,178.99,166.66,14
188,179.17,166.88,14
193,179.45,167.14,14
187,179.60,167.34,14
190,179.81,167.56,14
190,180.01,167.79,14
189,180.19,168.00,14
188,180.35,168.20,14
189,180.52,168.41,14
189,180.69,168.61,14
191,180.90,168.84,14
187,181.02,169.02,14
191,181.22,169.24,14
195,181.49,169.50,14
197,181.81,169.77,14
191,181.99,169.98,14
190,182.15,170.18,14
192,182.35,170.40,14
196,182.62,170.66,14
193,182.83,170.88,14
191,182.99,171.08,14
193,183.19,171.30,14
195,183.43,171.54,14
193,183.62,171.75,14
193,183.81,171.97,14
194,184.01,172.19,14
193,184.19,172.39,14
192,184.35,172.59,14
191,184.48,172.77,14
191,184.61,172.96,14
192,184.76,173.15,14
192,184.90,173.34,14
191,185.02,173.51,14
192,185.16,173.70,14
195,185.36,173.91,14
193,185.51,174.10,14
192,185.64,174.28,14
191,185.75,174.45,14
195,185.93,174.65,14
192,186.06,174.83,14
192,186.18,175.00,14
194,186.33,175.19,14
194,186.48,175.38,14
194,186.64,175.56,14
194,186.78,175.75,14
197,186.99,175.96,14
195,187.15,176.15,14
203,187.46,176.42,14
201,187.74,176.66,14
198,187.94,176.88,14
200,188.18,177.11,14
201,188.44,177.35,14
200,188.67,177.57,14
198,188.86,177.78,14
197,189.02,177.97,14
199,189.22,178.18,14
198,189.39,178.38,14
201,189.63,178.61,14
199,189.81,178.81,14
199,190.00,179.01,14
200,190.20,179.22,14
202,190.43,179.45,14
198,190.58,179.63,14
197,190.71,179.81,14
197,190.84,179.98,14
198,190.98,180.16,14
200,191.16,180.36,14
197,191.28,180.52,14
196,191.37,180.68,14
201,191.57,180.88,14
196,191.65,181.03,14
197,191.76,181.19,14
196,191.85,181.34,14
199,191.99,181.52,14
198,192.11,181.68,14
197,192.21,181.84,14
197,192.30,181.99,14
196,192.38,182.13,14
197,192.47,182.28,14
196,192.54,182.41,14
197,192.63,182.56,14
196,192.70,182.69,14
197,192.78,182.84,14
195,192.83,182.96,14
195,192.87,183.08,14
197,192.95,183.22,14
197,193.03,183.36,14
196,193.09,183.48,14
195,193.13,183.60,14
195,193.17,183.71,14
195,193.21,183.82,14
196,193.26,183.95,14
194,193.28,184.05,14
193,193.27,184.14,14
194,193.29,184.24,14
194,193.30,184.33,14
193,193.29,184.42,14
194,193.31,184.52,14
193,193.30,184.60,14
192,193.28,184.67,14
194,193.29,184.77,14
193,193.28,184.85,14
193,193.28,184.93,14
191,193.23,184.99,14
191,193.19,185.05,14
193,193.18,185.13,14
192,193.16,185.20,14
190,193.10,185.25,14
190,193.04,185.30,14
191,193.00,185.35,14
191,192.96,185.41,14
191,192.92,185.47,14
190,192.86,185.51,14
194,192.88,185.60,14
192,192.86,185.66,14
190,192.81,185.70,14
189,192.73,185.74,14
191,192.70,185.79,14
190,192.64,185.83,14
187,192.53,185.84,14
187,192.42,185.85,14
190,192.37,185.90,14
188,192.28,185.92,14
189,192.22,185.95,14
187,192.11,185.96,14
190,192.07,186.00,14
188,191.99,186.02,14
187,191.89,186.03,14
188,191.81,186.05,14
187,191.71,186.06,14
186,191.60,186.06,14
187,191.51,186.07,14
187,191.42,186.08,14
188,191.35,186.09,14
187,191.26,186.10,14
185,191.14,186.09,14
185,191.02,186.08,14
186,190.91,186.08,14
185,190.80,186.07,14
186,190.70,186.07,14
185,190.59,186.06,14
186,190.49,186.06,14
184,190.36,186.04,14
184,190.24,186.02,14
182,190.07,185.98,14
183,189.93,185.95,14
183,189.79,185.92,14
185,189.70,185.91,14
182,189.54,185.87,14
184,189.43,185.85,14
184,189.32,185.83,14
181,189.16,185.78,14
181,188.99,185.74,14
181,188.83,185.69,14
182,188.70,185.65,14
182,188.56,185.62,14
182,188.43,185.58,14
181,188.28,185.53,14
182,188.16,185.50,14
181,188.01,185.45,14
181,187.87,185.41,14
181,187.74,185.36,14
182,187.62,185.33,14
182,187.51,185.30,14
181,187.38,185.25,14
183,187.29,185.23,14
181,187.17,185.19,14
178,186.98,185.12,14
178,186.80,185.05,14
179,186.65,184.99,14
178,186.47,184.92,14
178,186.30,184.85,14
181,186.20,184.81,14
178,186.03,184.74,14
175,185.81,184.64,14
177,185.64,184.57,14
178,185.48,184.50,14
176,185.30,184.42,14
177,185.13,184.34,14
176,184.95,184.26,14
177,184.79,184.19,14
177,184.63,184.11,14
175,184.44,184.02,14
175,184.25,183.93,14
176,184.09,183.85,14
176,183.92,183.78,14
174,183.73,183.68,15
174,183.53,183.58,15
175,183.36,183.49,15
174,183.17,183.40,15
174,182.99,183.31,15
175,182.83,183.22,15
173,182.63,183.12,15
173,182.44,183.02,15
172,182.23,182.91,15
174,182.07,182.82,15
173,181.89,182.72,15
173,181.71,182.62,15
172,181.51,182.52,15
171,181.30,182.40,15
173,181.14,182.31,15
172,180.95,182.21,15
174,180.82,182.12,15
172,180.64,182.02,15
172,180.47,181.92,15
171,180.28,181.81,15
172,180.11,181.72,15
172,179.95,181.62,15
171,179.77,181.51,15
168,179.54,181.38,15
171,179.36,181.27,15
170,179.18,181.16,15
170,178.99,181.05,15
170,178.81,180.94,15
170,178.64,180.83,15
170,178.46,180.72,15
169,178.28,180.60,15
169,178.09,180.49,15
169,177.91,180.37,15
169,177.73,180.26,15
169,177.56,180.15,15
170,177.40,180.04,15
167,177.20,179.91,15
167,176.99,179.79,15
167,176.79,179.66,15
168,176.62,179.54,15
167,176.42,179.42,15
166,176.22,179.28,15
169,176.07,179.18,15
166,175.87,179.05,15
166,175.67,178.92,15
166,175.48,178.79,15
166,175.29,178.66,15
166,175.10,178.53,15
166,174.92,178.41,15
166,174.74,178.28,15
165,174.55,178.15,15
165,174.36,178.02,15
164,174.15,177.88,15
165,173.97,177.75,15
163,173.75,177.60,15
164,173.55,177.47,15
164,173.36,177.33,15
164,173.17,177.20,15
164,172.99,177.07,15
163,172.79,176.93,15
163,172.60,176.79,15
164,172.42,176.66,15
163,172.24,176.52,15
163,172.05,176.39,15
162,171.85,176.24,15
163,171.67,176.11,15
164,171.52,175.99,15
161,171.31,175.84,15
163,171.14,175.71,15
162,170.96,175.57,15
162,170.78,175.44,15
161,170.58,175.29,15
161,170.39,175.15,15
162,170.23,175.02,15
162,170.06,174.89,15
161,169.88,174.75,15
161,169.70,174.61,15
160,169.51,174.47,15
160,169.32,174.32,15
161,169.15,174.19,15
160,168.97,174.05,15
160,168.79,173.91,15
160,168.61,173.77,15
160,168.44,173.63,15
159,168.25,173.48,15
159,168.07,173.34,15
159,167.89,173.20,15
159,167.71,173.05,15
158,167.51,172.90,15
158,167.32,172.75,15
158,167.14,172.61,15
159,166.97,172.47,15
158,166.80,172.33,15
158,166.62,172.18,15
158,166.45,172.04,15
157,166.26,171.89,15
157,166.07,171.74,15
158,165.91,171.60,15
158,165.75,171.47,15
157,165.58,171.32,15
156,165.39,171.17,15
157,165.22,171.03,15
156,165.03,170.88,15
156,164.85,170.73,15
159,164.74,170.61,15
157,164.58,170.48,15
156,164.41,170.33,15
155,164.22,170.18,15
155,164.04,170.03,15
155,163.86,169.88,15
155,163.68,169.73,15
155,163.51,169.58,15
154,163.32,169.42,15
155,163.15,169.28,15
154,162.97,169.13,15
154,162.79,168.98,15
154,162.61,168.83,15
154,162.44,168.68,15
153,162.25,168.52,15
154,162.09,168.38,15
154,161.92,168.23,15
153,161.75,168.08,15
154,161.59,167.94,15
152,161.40,167.78,15
153,161.23,167.63,15
153,161.07,167.48,15
152,160.88,167.33,15
151,160.69,167.17,15
152,160.51,167.02,15
152,160.34,166.87,15
151,160.16,166.71,15
153,160.01,166.57,15
151,159.83,166.41,15
151,159.66,166.26,15
151,159.48,166.11,15
151,159.31,165.96,15
150,159.13,165.80,15
152,158.98,165.66,15
151,158.82,165.51,15
152,158.69,165.38,15
150,158.51,165.22,15
150,158.34,165.07,15
149,158.16,164.91,15
150,157.99,164.76,15
149,157.81,164.60,15
149,157.64,164.45,15
149,157.47,164.29,15
149,157.30,164.14,15
148,157.11,163.98,15
147,156.91,163.81,15
150,156.77,163.67,15
148,156.59,163.51,15
148,156.42,163.36,15
148,156.25,163.21,15
148,156.09,163.05,15
149,155.95,162.91,15
148,155.79,162.76,15
148,155.63,162.62,15
147,155.46,162.46,15
148,155.31,162.31,15
147,155.14,162.16,15
148,155.00,162.02,15
148,154.86,161.88,15
148,154.72,161.74,15
146,154.55,161.58,15
147,154.40,161.44,15
147,154.25,161.29,15
147,154.11,161.15,15
148,153.98,161.02,15
146,153.82,160.87,15
147,153.69,160.73,15
147,153.55,160.59,15
146,153.40,160.45,15
147,153.27,160.31,15
144,153.09,160.15,15
145,152.93,160.00,15
147,152.81,159.87,15
146,152.67,159.73,15
146,152.54,159.59,15
145,152.39,159.45,15
145,152.24,159.30,15
147,152.14,159.18,15
146,152.01,159.05,15
146,151.89,158.92,15
145,151.76,158.78,15
146,151.64,158.65,15
145,151.51,158.51,15
148,151.44,158.41,15
145,151.31,158.27,15
146,151.20,158.15,15
146,151.10,158.03,15
146,151.00,157.91,15
147,150.92,157.80,15
145,150.80,157.67,15
146,150.70,157.56,15
145,150.59,157.43,15
146,150.50,157.32,15
145,150.39,157.19,15
146,150.30,157.08,15
146,150.21,156.97,15
146,150.13,156.86,15
145,150.03,156.74,15
145,149.93,156.62,15
145,149.83,156.51,15
145,149.73,156.39,15
145,149.64,156.28,15
145,149.54,156.17,15
144,149.43,156.04,15
145,149.34,155.93,15
143,149.22,155.80,15
144,149.11,155.69,15
143,148.99,155.56,15
144,148.89,155.44,15
146,148.83,155.35,15
145,148.76,155.25,15
143,148.64,155.12,15
143,148.53,155.00,15
143,148.42,154.88,15
146,148.37,154.79,15
145,148.30,154.70,15
145,148.24,154.60,15
143,148.13,154.48,15
144,148.05,154.38,15
145,147.99,154.28,15
145,147.93,154.19,15
143,147.83,154.08,15
143,147.73,153.97,15
144,147.66,153.87,15
143,147.56,153.76,15
143,147.47,153.65,15
142,147.36,153.54,15
143,147.28,153.43,15
143,147.19,153.33,15
143,147.11,153.22,15
144,147.05,153.13,15
143,146.96,153.03,15
143,146.88,152.93,15
142,146.79,152.82,15
143,146.71,152.72,15
145,146.68,152.64,15
142,146.58,152.54,15
143,146.51,152.44,15
145,146.48,152.37,15
143,146.41,152.27,15
143,146.34,152.18,15
144,146.30,152.10,15
143,146.23,152.01,15
143,146.17,151.92,15
142,146.08,151.82,15
143,146.02,151.73,15
144,145.98,151.65,15
143,145.92,151.57,15
141,145.82,151.46,15
142,145.75,151.37,15
143,145.69,151.28,15
142,145.62,151.19,15
142,145.55,151.10,15
142,145.47,151.01,15
141,145.38,150.91,15
141,145.30,150.81,15
141,145.21,150.71,15
142,145.15,150.62,15
141,145.06,150.53,15
141,144.98,150.43,15
140,144.88,150.33,15
143,144.85,150.25,15
142,144.79,150.17,15
141,144.71,150.08,15
140,144.62,149.98,15
141,144.55,149.89,15
141,144.48,149.80,15
142,144.43,149.72,15
141,144.36,149.64,15
141,144.29,149.55,15
141,144.22,149.46,15
140,144.14,149.37,15
141,144.08,149.29,15
141,144.02,149.20,15
140,143.94,149.11,15
137,143.80,148.99,15
139,143.70,148.89,15
139,143.61,148.79,15
140,143.53,148.70,15
141,143.48,148.63,15
141,143.43,148.55,15
140,143.37,148.46,15
139,143.28,148.37,15
139,143.19,148.28,15
142,143.17,148.21,15
141,143.13,148.14,15
140,143.06,148.06,15
141,143.02,147.99,15
140,142.96,147.91,15
141,142.92,147.84,15
139,142.84,147.75,15
140,142.79,147.67,15
140,142.73,147.60,15
139,142.66,147.51,15
140,142.60,147.44,15
139,142.53,147.35,15
139,142.46,147.27,15
139,142.39,147.19,15
141,142.36,147.12,15
139,142.30,147.04,15
139,142.23,146.96,15
139,142.17,146.88,15
139,142.10,146.80,15
141,142.08,146.75,15
140,142.04,146.68,15
139,141.98,146.60,15
139,141.92,146.53,15
139,141.86,146.45,15
140,141.82,146.39,15
140,141.79,146.32,15
139,141.73,146.25,15
139,141.68,146.18,15
139,141.62,146.10,15
138,141.55,146.02,15
138,141.48,145.94,15
138,141.41,145.86,15
138,141.34,145.78,15
138,141.27,145.71,15
138,141.21,145.63,15
139,141.16,145.56,15
138,141.10,145.49,15
143,141.14,145.46,15
138,141.08,145.39,15
139,141.04,145.32,15
141,141.03,145.28,15
140,141.01,145.23,15
139,140.97,145.17,15
139,140.93,145.10,15
138,140.88,145.03,15
141,140.88,144.99,15
140,140.86,144.94,15
139,140.82,144.88,15
139,140.79,144.82,15
139,140.75,144.77,15
139,140.72,144.71,15
141,140.72,144.67,15
140,140.71,144.63,15
138,140.65,144.56,15
140,140.64,144.51,15
138,140.59,144.45,15
138,140.54,144.38,15
139,140.50,144.33,15
139,140.47,144.28,15
139,140.45,144.22,15
139,140.42,144.17,15
138,140.37,144.11,15
138,140.32,144.05,15
139,140.29,144.00,15
138,140.25,143.94,15
137,140.18,143.87,15
139,140.16,143.82,15
139,140.14,143.77,15
139,140.11,143.72,15
138,140.07,143.67,15
139,140.05,143.62,15
138,140.01,143.56,15
141,140.03,143.54,15
138,139.99,143.48,15
137,139.93,143.42,15
137,139.87,143.35,15
138,139.83,143.30,15
137,139.78,143.24,15
137,139.72,143.18,15
137,139.67,143.11,15
138,139.63,143.06,15
137,139.58,143.00,15
138,139.55,142.95,15
138,139.52,142.90,15
137,139.47,142.84,15
137,139.42,142.78,15
136,139.35,142.72,15
136,139.28,142.65,15
137,139.24,142.59,15
137,139.19,142.54,15
136,139.13,142.47,15
136,139.07,142.41,15
137,139.02,142.35,15
135,138.94,142.28,15
136,138.89,142.22,15
135,138.81,142.14,15
136,138.75,142.08,15
136,138.70,142.02,15
135,138.62,141.95,15
135,138.55,141.88,15
136,138.50,141.82,15
134,138.41,141.75,15
134,138.32,141.67,15
137,138.29,141.62,15
135,138.23,141.56,15
134,138.14,141.48,15
135,138.08,141.41,15
134,138.00,141.34,15
135,137.94,141.28,15
134,137.86,141.20,15
136,137.82,141.15,15
136,137.79,141.10,15
138,137.79,141.07,15
135,137.74,141.01,15
135,137.68,140.95,15
138,137.69,140.92,15
139,137.71,140.90,15
138,137.72,140.87,15
137,137.70,140.83,15
138,137.71,140.80,15
136,137.68,140.76,15
138,137.68,140.73,15
137,137.67,140.69,15
136,137.64,140.64,15
137,137.62,140.61,15
136,137.59,140.56,15
137,137.58,140.53,15
137,137.57,140.49,15
135,137.52,140.44,15
137,137.51,140.40,15
135,137.46,140.35,15
136,137.43,140.30,15
136,137.40,140.26,15
134,137.33,140.20,15
135,137.28,140.15,15
135,137.24,140.10,15
136,137.21,140.05,15
135,137.17,140.00,15
135,137.13,139.95,15
135,137.08,139.90,15
138,137.10,139.89,15
134,137.04,139.83,15
135,137.00,139.78,15
135,136.96,139.73,15
136,136.94,139.69,15
134,136.88,139.64,15
135,136.84,139.59,15
135,136.81,139.54,15
136,136.79,139.51,15
134,136.73,139.45,15
134,136.68,139.40,15
135,136.65,139.35,15
137,136.65,139.33,15
135,136.62,139.29,15
135,136.59,139.25,15
134,136.54,139.19,15
135,136.50,139.15,15
134,136.45,139.10,15
133,136.39,139.04,15
134,136.34,138.99,15
134,136.29,138.94,15
133,136.23,138.88,15
134,136.18,138.83,15
133,136.12,138.77,15
135,136.09,138.73,15
134,136.05,138.69,15
135,136.03,138.65,15
134,135.99,138.60,15
136,135.99,138.58,15
136,135.99,138.55,15
134,135.95,138.51,15
135,135.93,138.47,15
134,135.89,138.43,15
134,135.86,138.38,15
134,135.82,138.34,15
132,135.74,138.27,15
135,135.73,138.24,15
135,135.71,138.21,15
133,135.66,138.16,15
134,135.63,138.12,15
134,135.59,138.07,15
134,135.56,138.03,15
132,135.49,137.97,15
134,135.46,137.93,15
133,135.41,137.88,15
133,135.36,137.84,15
132,135.30,137.78,15
133,135.25,137.73,15
133,135.20,137.68,15
132,135.14,137.63,15
133,135.10,137.58,15
134,135.08,137.54,15
136,135.09,137.53,15
131,135.01,137.46,15
131,134.93,137.40,15
131,134.85,137.33,15
131,134.78,137.27,15
132,134.72,137.22,15
132,134.67,137.17,15
132,134.61,137.11,15
133,134.58,137.07,15
132,134.53,137.02,15
131,134.46,136.96,15
131,134.39,136.90,15
133,134.36,136.86,15
132,134.31,136.81,15
132,134.27,136.77,15
132,134.22,136.72,15
133,134.20,136.68,15
131,134.13,136.63,15
131,134.07,136.57,15
131,134.01,136.51,15
131,133.95,136.46,15
131,133.89,136.40,15
131,133.83,136.35,15
132,133.80,136.31,15
132,133.76,136.26,15
130,133.69,136.20,15
132,133.65,136.16,15
130,133.58,136.10,15
130,133.51,136.04,15
129,133.42,135.97,15
130,133.35,135.91,15
131,133.30,135.86,15
130,133.24,135.80,15
130,133.17,135.74,15
130,133.11,135.68,15
129,133.03,135.62,15
129,132.95,135.55,15
129,132.87,135.48,15
130,132.81,135.43,15
129,132.73,135.37,15
129,132.66,135.30,15
130,132.60,135.25,15
129,132.53,135.19,15
128,132.44,135.11,15
128,132.35,135.04,15
129,132.29,134.98,15
130,132.24,134.93,15
129,132.18,134.87,15
130,132.13,134.82,15
128,132.05,134.76,15
128,131.97,134.69,15
128,131.89,134.62,15
128,131.81,134.56,15
128,131.74,134.49,15
128,131.66,134.43,15
128,131.59,134.36,15
129,131.54,134.31,15
128,131.46,134.24,15
128,131.40,134.18,15
128,131.33,134.12,15
129,131.28,134.07,15
129,131.24,134.02,15
130,131.21,133.98,15
129,131.17,133.93,15
129,131.12,133.88,15
128,131.06,133.82,15
128,131.00,133.76,15
128,130.94,133.70,15
127,130.86,133.64,15
127,130.78,133.57,15
127,130.71,133.51,15
127,130.63,133.44,15
127,130.56,133.38,15
126,130.47,133.30,15
127,130.40,133.24,15
128,130.35,133.19,15
128,130.31,133.13,15
127,130.24,133.07,15
128,130.19,133.02,15
127,130.13,132.96,15
128,130.09,132.91,15
126,130.01,132.84,15
127,129.95,132.79,15
127,129.89,132.73,15
128,129.85,132.68,15
127,129.79,132.62,15
127,129.74,132.57,15
127,129.68,132.51,15
127,129.63,132.46,15
129,129.62,132.42,15
128,129.58,132.38,15
128,129.55,132.33,15
127,129.50,132.28,15
127,129.45,132.23,15
126,129.38,132.17,15
129,129.37,132.13,15
128,129.35,132.09,15
126,129.28,132.03,15
127,129.23,131.98,15
128,129.21,131.94,15
127,129.17,131.89,15
130,129.18,131.87,15
128,129.16,131.83,15
129,129.16,131.81,15
128,129.13,131.77,15
126,129.07,131.71,15
127,129.03,131.66,15
128,129.01,131.63,15
128,128.99,131.59,15
128,128.97,131.55,15
130,128.99,131.54,15
128,128.97,131.50,15
128,128.95,131.47,15
128,128.93,131.43,15
128,128.91,131.40,15
130,128.93,131.39,15
129,128.93,131.36,15
129,128.94,131.34,15
128,128.92,131.30,15
131,128.96,131.30,15
129,128.96,131.28,15
128,128.94,131.25,15
129,128.94,131.22,15
128,128.92,131.19,15
128,128.90,131.16,15
127,128.87,131.12,15
129,128.87,131.10,15
129,128.87,131.08,15
128,128.85,131.04,15
128,128.84,131.01,15
128,128.82,130.98,15
126,128.76,130.93,15
127,128.73,130.89,15
127,128.69,130.86,15
127,128.66,130.82,15
127,128.63,130.78,15
130,128.65,130.77,15
127,128.62,130.73,15
126,128.57,130.69,15
126,128.52,130.64,15
126,128.47,130.59,15
128,128.46,130.57,15
128,128.45,130.54,15
128,128.44,130.52,15
127,128.41,130.48,15
126,128.36,130.44,15
126,128.32,130.39,15
126,128.27,130.35,15
127,128.24,130.31,15
127,128.22,130.28,15
129,128.23,130.27,15
127,128.21,130.24,15
128,128.21,130.21,15
126,128.16,130.17,15
126,128.12,130.13,15
127,128.10,130.10,15
127,128.07,130.07,15
125,128.01,130.02,15
127,127.99,129.99,15
127,127.97,129.96,15
127,127.95,129.93,15
126,127.91,129.89,15
126,127.88,129.85,15
127,127.86,129.82,15
126,127.82,129.78,15
125,127.76,129.73,15
125,127.71,129.69,15
127,127.70,129.66,15
126,127.66,129.62,15
125,127.61,129.58,15
125,127.56,129.53,15
125,127.50,129.49,15
124,127.43,129.43,15
126,127.41,129.40,15
125,127.36,129.35,15
126,127.33,129.32,15
125,127.28,129.28,15
124,127.22,129.22,15
124,127.15,129.17,15
123,127.07,129.11,15
124,127.01,129.06,15
124,126.95,129.01,15
124,126.89,128.96,15
124,126.83,128.91,15
125,126.80,128.87,15
124,126.74,128.82,15
124,126.69,128.77,15
124,126.63,128.72,15
124,126.58,128.68,15
124,126.53,128.63,15
126,126.52,128.60,15
125,126.49,128.57,15
125,126.46,128.53,15
127,126.47,128.52,15
125,126.44,128.48,15
126,126.43,128.46,15
125,126.40,128.42,15
126,126.39,128.40,15
125,126.36,128.36,15
126,126.36,128.34,15
126,126.35,128.32,15
124,126.30,128.27,15
126,126.30,128.25,15
125,126.27,128.22,15
125,126.25,128.19,15
125,126.22,128.15,15
125,126.20,128.12,15
124,126.15,128.08,15
125,126.13,128.05,15
124,126.09,128.01,15
124,126.05,127.97,15
123,125.98,127.92,15
124,125.94,127.88,15
124,125.91,127.84,15
125,125.89,127.81,15
126,125.89,127.80,15
126,125.89,127.78,15
125,125.87,127.75,15
125,125.86,127.72,15
124,125.82,127.69,15
124,125.78,127.65,15
126,125.79,127.63,15
126,125.79,127.62,15
127,125.82,127.61,15
125,125.80,127.58,15
126,125.80,127.57,15
125,125.79,127.54,15
126,125.79,127.53,15
125,125.78,127.50,15
124,125.74,127.47,15
125,125.73,127.44,15
125,125.71,127.42,15
125,125.70,127.39,15
126,125.70,127.38,15
124,125.67,127.35,15
124,125.64,127.31,15
124,125.60,127.28,15
124,125.57,127.25,15
125,125.56,127.22,15
124,125.53,127.19,15
127,125.56,127.19,15
127,125.59,127.19,15
128,125.63,127.20,15
130,125.72,127.22,15
129,125.79,127.24,15
127,125.81,127.24,15
127,125.84,127.24,15
126,125.84,127.22,15
125,125.82,127.20,15
128,125.87,127.21,15
128,125.91,127.22,15
128,125.95,127.23,15
127,125.97,127.22,15
129,126.03,127.24,15
129,126.09,127.26,15
127,126.11,127.26,15
128,126.15,127.26,15
128,126.18,127.27,15
127,126.20,127.27,15
126,126.20,127.26,15
126,126.19,127.24,15
127,126.21,127.24,15
127,126.22,127.24,15
127,126.24,127.24,15
128,126.28,127.24,15
127,126.29,127.24,15
126,126.28,127.23,15
128,126.32,127.24,15
127,126.33,127.23,15
128,126.37,127.24,15
129,126.42,127.26,15
127,126.43,127.26,15
127,126.44,127.25,15
127,126.45,127.25,15
126,126.44,127.24,15
127,126.45,127.24,15
124,126.41,127.20,15
125,126.38,127.18,15
127,126.39,127.18,15
126,126.38,127.17,15
126,126.37,127.16,15
126,126.37,127.15,15
129,126.42,127.16,15
128,126.45,127.17,15
126,126.44,127.16,15
127,126.45,127.16,15
126,126.44,127.15,15
125,126.42,127.13,15
128,126.45,127.13,15
126,126.44,127.12,15
126,126.43,127.11,15
126,126.42,127.10,15
128,126.45,127.11,15
128,126.48,127.12,15
128,126.51,127.13,15
128,126.54,127.14,15
128,126.57,127.15,15
127,126.58,127.14,15
129,126.63,127.16,15
128,126.66,127.17,15
129,126.70,127.19,15
127,126.71,127.19,15
128,126.74,127.20,15
127,126.74,127.19,15
127,126.75,127.19,15
127,126.75,127.19,15
126,126.74,127.18,15
127,126.74,127.18,15
126,126.73,127.16,15
127,126.73,127.16,15
126,126.72,127.15,15
127,126.72,127.15,15
128,126.75,127.16,15
127,126.75,127.16,15
126,126.74,127.14,15
127,126.74,127.14,15
127,126.75,127.14,15
128,126.77,127.15,15
127,126.78,127.15,15
129,126.82,127.17,15
129,126.87,127.19,15
131,126.95,127.22,15
128,126.97,127.23,15
130,127.03,127.26,15
131,127.11,127.30,15
130,127.17,127.32,15
130,127.22,127.35,15
131,127.30,127.39,15
129,127.33,127.40,15
131,127.41,127.44,15
131,127.48,127.47,15
130,127.53,127.50,15
130,127.58,127.52,15
129,127.61,127.54,15
129,127.64,127.55,15
129,127.66,127.57,15
129,127.69,127.58,15
130,127.74,127.61,15
130,127.78,127.63,15
130,127.83,127.65,15
130,127.87,127.68,15
130,127.91,127.70,15
130,127.95,127.72,15
129,127.97,127.74,15
131,128.03,127.77,15
128,128.03,127.77,15
129,128.05,127.78,15
129,128.07,127.80,15
129,128.09,127.81,15
130,128.13,127.83,15
128,128.13,127.83,15
134,128.24,127.89,15
133,128.34,127.94,15
130,128.37,127.97,15
131,128.42,128.00,15
131,128.48,128.03,15
130,128.51,128.05,15
135,128.64,128.12,15
130,128.66,128.13,15
132,128.73,128.17,15
130,128.76,128.19,15
129,128.76,128.20,15
129,128.77,128.21,15
132,128.83,128.25,15
131,128.87,128.27,15
130,128.90,128.29,15
133,128.98,128.34,15
132,129.04,128.37,15
131,129.08,128.40,15
131,129.12,128.43,15
133,129.19,128.47,15
133,129.27,128.52,15
134,129.36,128.57,15
131,129.40,128.60,15
131,129.43,128.62,15
131,129.46,128.64,15
133,129.53,128.69,15
132,129.58,128.72,15
135,129.69,128.78,15
137,129.84,128.87,15
135,129.94,128.93,15
131,129.96,128.95,15
137,130.10,129.03,15
138,130.26,129.12,15
138,130.41,129.21,15
137,130.55,129.28,15
135,130.63,129.34,15
136,130.74,129.41,15
137,130.87,129.48,15
134,130.93,129.53,15
137,131.05,129.60,15
135,131.13,129.66,15
139,131.29,129.75,15
136,131.38,129.81,15
134,131.43,129.86,15
137,131.55,129.93,15
137,131.65,130.00,15
139,131.80,130.09,15
138,131.93,130.17,15
136,132.01,130.23,15
139,132.15,130.31,15
137,132.24,130.38,15
140,132.40,130.48,15
139,132.53,130.56,15
142,132.72,130.68,15
140,132.87,130.77,15
138,132.97,130.84,15
141,133.13,130.94,15
141,133.29,131.04,15
139,133.40,131.12,15
138,133.49,131.19,15
142,133.66,131.30,15
140,133.79,131.39,15
142,133.95,131.49,15
141,134.10,131.59,15
139,134.19,131.66,15
143,134.37,131.78,15
141,134.50,131.87,15
140,134.61,131.95,15
141,134.74,132.04,15
142,134.88,132.14,15
142,135.03,132.24,15
143,135.19,132.35,15
141,135.30,132.43,15
142,135.44,132.53,15
144,135.61,132.64,15
147,135.84,132.79,15
147,136.06,132.93,15
143,136.20,133.03,15
145,136.37,133.15,15
147,136.59,133.29,15
144,136.73,133.39,15
144,136.88,133.50,15
147,137.08,133.64,15
146,137.26,133.76,15
144,137.40,133.86,15
145,137.55,133.97,15
149,137.78,134.12,15
153,138.08,134.31,15
147,138.26,134.44,15
147,138.43,134.56,15
152,138.71,134.74,15
150,138.93,134.89,15
148,139.11,135.02,15
150,139.33,135.17,15
148,139.50,135.30,15
148,139.67,135.43,15
149,139.86,135.56,15
154,140.14,135.75,15
156,140.46,135.95,15
153,140.71,136.12,15
155,141.00,136.31,15
159,141.36,136.54,15
154,141.61,136.71,15
154,141.86,136.88,15
154,142.10,137.06,15
159,142.44,137.27,15
157,142.73,137.47,15
156,143.00,137.66,15
156,143.26,137.84,15
155,143.49,138.01,15
155,143.72,138.18,15
151,143.87,138.31,15
155,144.09,138.48,15
156,144.33,138.65,15
155,144.54,138.82,15
154,144.73,138.97,15
155,144.94,139.13,15
156,145.16,139.30,15
155,145.35,139.45,15
157,145.59,139.63,15
155,145.77,139.78,15
154,145.94,139.93,15
156,146.14,140.09,15
157,146.36,140.25,15
156,146.55,140.41,15
155,146.72,140.56,15
155,146.88,140.70,15
155,147.05,140.85,15
154,147.19,140.98,15
154,147.32,141.11,15
157,147.52,141.27,15
155,147.67,141.40,15
157,147.85,141.56,15
157,148.04,141.71,15
163,148.33,141.93,15
166,148.69,142.17,15
162,148.95,142.37,15
163,149.24,142.57,15
164,149.53,142.79,15
163,149.80,142.99,15
163,150.06,143.19,15
161,150.28,143.37,15
162,150.52,143.55,15
163,150.77,143.75,15
167,151.09,143.98,15
162,151.31,144.16,15
167,151.62,144.39,15
167,151.93,144.61,15
165,152.19,144.82,15
171,152.57,145.08,15
171,152.94,145.34,15
171,153.30,145.60,15
170,153.63,145.84,15
171,153.98,146.09,15
169,154.28,146.32,15
169,154.57,146.55,15
170,154.88,146.78,15
170,155.19,147.01,15
170,155.48,147.24,15
170,155.77,147.47,15
168,156.02,147.68,15
168,156.26,147.88,15
177,156.67,148.17,15
175,157.04,148.44,15
172,157.34,148.68,15
177,157.73,148.96,15
175,158.08,149.22,15
174,158.39,149.47,15
173,158.69,149.70,15
175,159.01,149.96,15
178,159.39,150.24,15
176,159.72,150.49,15
175,160.03,150.74,15
173,160.29,150.96,15
173,160.54,151.18,15
174,160.81,151.41,15
175,161.10,151.65,15
175,161.37,151.88,15
174,161.63,152.10,15
175,161.89,152.33,15
175,162.16,152.56,15
171,162.33,152.74,15
174,162.57,152.95,15
174,162.80,153.16,15
177,163.08,153.40,15
178,163.38,153.65,15
185,163.81,153.96,15
183,164.19,154.25,15
181,164.53,154.52,15
185,164.94,154.82,15
187,165.38,155.15,15
184,165.75,155.43,15
181,166.06,155.69,15
182,166.38,155.95,15
184,166.73,156.23,15
183,167.05,156.50,15
182,167.35,156.76,15
183,167.67,157.02,15
182,167.95,157.27,15
181,168.21,157.51,15
183,168.51,157.76,15
181,168.76,157.99,15
188,169.14,158.29,15
193,169.62,158.64,15
196,170.15,159.01,15
191,170.57,159.33,15
193,171.02,159.67,15
199,171.57,160.06,15
199,172.12,160.45,15
194,172.56,160.79,15
193,172.97,161.11,15
194,173.39,161.44,15
197,173.86,161.80,15
201,174.41,162.19,15
197,174.86,162.54,15
195,175.26,162.86,15
198,175.71,163.21,15
199,176.18,163.57,15
197,176.60,163.90,15
199,177.04,164.25,15
197,177.44,164.58,15
201,177.92,164.95,15
195,178.26,165.25,15
198,178.65,165.57,15
201,179.10,165.93,15
198,179.48,166.25,15
199,179.87,166.58,15
202,180.31,166.93,15
199,180.68,167.25,15
200,181.07,167.58,15
200,181.45,167.90,15
199,181.80,168.21,15
200,182.16,168.53,15
196,182.44,168.81,15
198,182.75,169.10,15
198,183.06,169.39,15
198,183.36,169.67,15
198,183.65,169.96,15
197,183.92,170.23,15
200,184.24,170.53,15
198,184.51,170.80,15
198,184.78,171.07,15
197,185.03,171.33,15
197,185.27,171.59,15
201,185.58,171.88,15
202,185.91,172.18,15
199,186.17,172.45,15
199,186.43,172.72,15
201,186.72,173.00,15
203,187.04,173.30,15
201,187.32,173.58,15
198,187.54,173.82,15
199,187.77,174.07,15
199,187.99,174.32,15
200,188.23,174.58,15
202,188.51,174.85,15
203,188.80,175.13,15
200,189.02,175.38,15
201,189.26,175.64,15
200,189.47,175.88,15
199,189.67,176.11,15
200,189.87,176.35,15
202,190.11,176.61,15
199,190.29,176.83,15
199,190.47,177.06,15
199,190.64,177.27,15
199,190.80,177.49,15
198,190.95,177.70,15
201,191.15,177.93,15
199,191.31,178.14,15
196,191.40,178.32,15
198,191.53,178.52,15
198,191.66,178.71,15
197,191.77,178.89,15
197,191.87,179.07,15
196,191.96,179.24,15
197,192.06,179.42,15
196,192.14,179.59,15
195,192.19,179.74,15
194,192.23,179.88,15
195,192.28,180.04,15
195,192.34,180.19,15
194,192.37,180.32,15
194,192.40,180.46,15
195,192.46,180.61,15
194,192.49,180.74,15
192,192.48,180.85,15
192,192.47,180.96,15
195,192.52,181.10,15
193,192.53,181.22,15
192,192.52,181.33,15
193,192.53,181.45,15
193,192.54,181.56,15
192,192.53,181.67,15
191,192.50,181.76,15
194,192.53,181.88,15
193,192.54,181.99,15
194,192.56,182.11,15
191,192.53,182.20,15
189,192.46,182.27,15
190,192.41,182.35,15
190,192.36,182.42,15
190,192.32,182.50,15
190,192.27,182.58,15
190,192.23,182.65,15
190,192.18,182.72,15
194,192.22,182.84,15
190,192.17,182.91,15
189,192.11,182.97,15
189,192.05,183.03,15
190,192.01,183.10,15
189,191.95,183.16,15
194,191.99,183.27,15
190,191.95,183.33,15
187,191.85,183.37,15
187,191.75,183.41,15
187,191.66,183.44,15
189,191.60,183.50,15
188,191.53,183.54,15
186,191.42,183.57,15
189,191.37,183.62,15
189,191.33,183.68,15
186,191.22,183.70,15
185,191.09,183.71,15
187,191.01,183.74,15
185,190.89,183.76,15
186,190.79,183.78,15
186,190.70,183.80,15
188,190.64,183.84,15
186,190.55,183.87,15
184,190.42,183.87,15
184,190.29,183.87,15
185,190.19,183.88,15
184,190.06,183.88,15
184,189.94,183.88,15
184,189.82,183.88,15
186,189.75,183.90,15
186,189.67,183.93,15
182,189.52,183.91,15
182,189.37,183.89,15
183,189.24,183.88,15
184,189.14,183.88,15
182,188.99,183.86,15
184,188.89,183.86,15
186,188.83,183.88,15
183,188.72,183.87,15
181,188.56,183.85,15
182,188.43,183.83,15
182,188.30,183.81,15
181,188.16,183.78,15
181,188.01,183.75,15
181,187.87,183.73,15
181,187.74,183.70,15
182,187.62,183.68,15
180,187.47,183.64,15
179,187.30,183.60,15
181,187.17,183.57,15
179,187.01,183.53,15
178,186.83,183.47,15
179,186.67,183.43,15
179,186.52,183.38,15
180,186.39,183.35,15
178,186.22,183.29,15
178,186.06,183.24,15
178,185.90,183.19,15
178,185.74,183.14,15
178,185.58,183.09,15
175,185.37,183.01,15
177,185.20,182.95,15
178,185.06,182.90,15
175,184.86,182.82,15
176,184.68,182.75,15
175,184.49,182.67,15
176,184.32,182.60,15
175,184.13,182.53,15
175,183.95,182.45,15
175,183.77,182.38,15
174,183.58,182.29,15
175,183.40,182.22,15
174,183.22,182.14,15
175,183.05,182.07,15
174,182.87,181.99,15
174,182.69,181.91,15
174,182.52,181.83,15
173,182.33,181.74,15
173,182.14,181.65,15
172,181.94,181.56,15
175,181.80,181.49,15
173,181.62,181.41,15
172,181.43,181.31,16
172,181.24,181.22,16
172,181.06,181.13,17
173,180.90,181.05,17
171,180.70,180.94,17
171,180.51,180.85,17
171,180.32,180.75,17
171,180.13,180.65,17
170,179.93,180.54,17
171,179.75,180.45,17
170,179.55,180.34,17
170,179.36,180.24,17
170,179.17,180.14,17
168,178.95,180.02,17
169,178.75,179.91,17
169,178.56,179.80,17
168,178.35,179.68,17
171,178.20,179.59,17
169,178.02,179.49,17
168,177.81,179.37,17
168,177.62,179.26,17
169,177.45,179.15,17
168,177.26,179.04,17
167,177.05,178.92,17
169,176.89,178.82,17
167,176.69,178.71,17
167,176.50,178.59,17
167,176.31,178.47,17
167,176.12,178.36,17
167,175.94,178.24,17
166,175.74,178.12,17
166,175.55,178.00,17
166,175.36,177.88,17
165,175.15,177.75,17
165,174.95,177.62,17
165,174.75,177.50,17
164,174.53,177.36,17
163,174.30,177.22,17
163,174.08,177.08,17
163,173.85,176.94,17
164,173.66,176.81,17
164,173.46,176.68,17
164,173.27,176.55,17
165,173.11,176.44,17
163,172.91,176.30,17
162,172.69,176.16,17
162,172.48,176.02,17
163,172.29,175.89,17
160,172.04,175.73,17
161,171.82,175.58,17
163,171.64,175.46,17
161,171.43,175.31,17
162,171.24,175.18,17
162,171.06,175.05,17
162,170.88,174.92,17
161,170.68,174.78,17
161,170.48,174.64,17
161,170.29,174.50,17
160,170.09,174.36,17
160,169.89,174.21,17
159,169.67,174.06,17
160,169.48,173.92,17
160,169.29,173.78,17
159,169.08,173.63,17
159,168.88,173.49,17
160,168.70,173.35,17
159,168.51,173.21,17
159,168.32,173.07,17
158,168.11,172.92,17
159,167.93,172.78,17
158,167.73,172.63,17
158,167.54,172.48,17
157,167.32,172.33,17
158,167.14,172.19,17
158,166.96,172.04,17
157,166.76,171.89,17
157,166.56,171.74,17
156,166.35,171.59,17
155,166.12,171.42,17
157,165.94,171.28,17
157,165.76,171.13,17
155,165.55,170.97,17
156,165.36,170.82,17
156,165.17,170.67,17
155,164.97,170.52,17
155,164.77,170.36,17
155,164.57,170.21,17
156,164.40,170.07,17
154,164.19,169.91,17
154,163.99,169.75,17
153,163.77,169.58,17
155,163.59,169.43,17
154,163.40,169.28,17
154,163.21,169.13,17
156,163.07,169.00,17
154,162.89,168.85,17
153,162.69,168.69,17
153,162.50,168.53,17
152,162.29,168.36,17
153,162.10,168.21,17
153,161.92,168.06,17
153,161.74,167.91,17
153,161.56,167.76,17
152,161.37,167.60,17
152,161.19,167.45,17
152,161.00,167.29,17
153,160.84,167.15,17
152,160.67,167.00,17
152,160.49,166.85,17
153,160.34,166.71,17
152,160.18,166.56,17
152,160.01,166.42,17
151,159.83,166.26,17
152,159.67,166.12,17
151,159.50,165.97,17
151,159.33,165.82,17
149,159.12,165.65,17
151,158.96,165.50,17
150,158.78,165.35,17
150,158.61,165.19,17
150,158.44,165.04,17
151,158.29,164.90,17
150,158.12,164.75,17
149,157.94,164.60,17
149,157.76,164.44,17
148,157.56,164.28,17
149,157.39,164.12,17
147,157.19,163.95,17
148,157.00,163.79,17
150,156.86,163.65,17
148,156.68,163.50,17
149,156.53,163.35,17
149,156.38,163.21,17
148,156.21,163.06,17
147,156.03,162.90,17
147,155.85,162.74,17
147,155.67,162.58,17
147,155.50,162.42,17
147,155.33,162.27,17
147,155.16,162.12,17
146,154.98,161.96,17
146,154.80,161.80,17
146,154.62,161.64,17
147,154.47,161.49,17
145,154.28,161.33,17
145,154.09,161.16,17
146,153.93,161.01,17
145,153.75,160.85,17
145,153.58,160.69,17
145,153.41,160.54,17
145,153.24,160.38,17
144,153.05,160.22,17
144,152.87,160.06,17
145,152.72,159.91,17
145,152.56,159.76,17
145,152.41,159.61,17
144,152.24,159.45,17
144,152.08,159.30,17
145,151.94,159.15,17
143,151.76,158.99,17
143,151.58,158.83,17
143,151.41,158.68,17
143,151.24,158.52,17
143,151.08,158.36,17
141,150.88,158.19,17
144,150.74,158.05,17
143,150.58,157.90,17
143,150.43,157.75,17
142,150.26,157.59,17
144,150.14,157.45,17
142,149.98,157.30,17
143,149.84,157.16,17
141,149.66,157.00,17
141,149.49,156.84,17
143,149.36,156.70,17
142,149.21,156.55,17
142,149.06,156.40,17
142,148.92,156.26,17
141,148.76,156.11,17
141,148.61,155.96,17
141,148.46,155.81,17
142,148.33,155.67,17
141,148.18,155.52,17
141,148.04,155.38,17
141,147.90,155.23,17
140,147.74,155.08,17
140,147.58,154.93,17
140,147.43,154.78,17
140,147.28,154.63,17
140,147.14,154.49,17
140,147.00,154.34,17
139,146.84,154.19,17
139,146.68,154.04,17
139,146.53,153.89,17
139,146.38,153.74,17
139,146.23,153.59,17
139,146.08,153.44,17
139,145.94,153.30,17
139,145.80,153.16,17
138,145.65,153.01,17
139,145.51,152.87,17
138,145.36,152.72,17
139,145.24,152.58,17
138,145.09,152.43,17
138,144.95,152.29,17
137,144.79,152.14,17
139,144.67,152.01,17
138,144.54,151.87,17
139,144.43,151.74,17
137,144.28,151.59,17
138,144.16,151.45,17
139,144.05,151.33,17
137,143.91,151.19,17
136,143.75,151.03,17
138,143.64,150.90,17
138,143.53,150.77,17
138,143.42,150.65,17
137,143.29,150.51,17
138,143.18,150.38,17
138,143.08,150.26,17
137,142.96,150.13,17
138,142.86,150.01,17
137,142.74,149.88,17
138,142.65,149.76,17
136,142.51,149.62,17
137,142.40,149.49,17
138,142.31,149.38,17
139,142.25,149.28,17
137,142.14,149.15,17
136,142.02,149.02,17
138,141.94,148.91,17
137,141.84,148.79,17
140,141.80,148.70,17
137,141.71,148.59,17
138,141.63,148.48,17
139,141.58,148.39,17
138,141.51,148.28,17
138,141.44,148.18,17
137,141.35,148.07,17
136,141.24,147.95,17
136,141.14,147.83,17
137,141.06,147.72,17
137,140.97,147.61,17
137,140.90,147.51,17
138,140.84,147.41,17
137,140.76,147.31,17
137,140.69,147.20,17
138,140.63,147.11,17
137,140.56,147.01,17
136,140.47,146.90,17
135,140.36,146.78,17
136,140.27,146.67,17
136,140.19,146.57,17
135,140.08,146.45,17
136,140.00,146.35,17
135,139.90,146.23,17
135,139.80,146.12,17
133,139.67,145.99,17
134,139.55,145.87,17
136,139.48,145.77,17
135,139.39,145.66,17
134,139.28,145.55,17
133,139.16,145.42,17
134,139.06,145.31,17
133,138.93,145.18,17
134,138.84,145.07,17
134,138.74,144.96,17
134,138.64,144.85,17
134,138.55,144.74,17
133,138.44,144.63,17
134,138.35,144.52,17
134,138.26,144.41,17
134,138.18,144.31,17
134,138.10,144.21,17
132,137.97,144.09,17
134,137.89,143.98,17
132,137.78,143.86,17
133,137.68,143.76,17
133,137.59,143.65,17
135,137.54,143.56,17
133,137.44,143.46,17
131,137.32,143.33,17
133,137.23,143.23,17
134,137.17,143.14,17
136,137.14,143.06,17
132,137.04,142.95,17
134,136.98,142.86,17
134,136.92,142.78,17
134,136.86,142.69,17
134,136.80,142.60,17
133,136.73,142.51,17
134,136.67,142.42,17
134,136.62,142.34,17
134,136.57,142.25,17
134,136.52,142.17,17
134,136.46,142.09,17
134,136.42,142.01,17
133,136.35,141.92,17
132,136.26,141.82,17
134,136.22,141.74,17
133,136.15,141.65,17
132,136.07,141.56,17
132,135.99,141.46,17
133,135.93,141.38,17
130,135.81,141.26,17
132,135.73,141.17,17
131,135.64,141.07,17
132,135.56,140.98,17
132,135.49,140.89,17
131,135.40,140.79,17
133,135.36,140.71,17
131,135.27,140.61,17
132,135.20,140.53,17
130,135.10,140.42,17
131,135.02,140.33,17
131,134.94,140.23,17
131,134.86,140.14,17
131,134.78,140.05,17
130,134.69,139.95,17
131,134.61,139.86,17
130,134.52,139.76,17
130,134.43,139.66,17
130,134.34,139.57,17
130,134.25,139.47,17
130,134.17,139.38,17
130,134.09,139.28,17
130,134.00,139.19,17
131,133.94,139.11,17
130,133.86,139.02,17
129,133.77,138.92,17
129,133.67,138.82,17
129,133.58,138.72,17
129,133.49,138.62,17
130,133.42,138.54,17
129,133.33,138.44,17
128,133.22,138.34,17
130,133.16,138.25,17
129,133.07,138.16,17
128,132.97,138.06,17
128,132.87,137.96,17
129,132.80,137.87,17
127,132.68,137.76,17
129,132.61,137.67,17
128,132.51,137.58,17
128,132.42,137.48,17
128,132.34,137.39,17
128,132.25,137.29,17
129,132.18,137.21,17
128,132.10,137.12,17
127,132.00,137.02,17
131,131.98,136.96,17
127,131.88,136.86,17
128,131.80,136.77,17
128,131.73,136.68,17
127,131.63,136.58,17
127,131.54,136.49,17
127,131.45,136.39,17
127,131.36,136.30,17
128,131.29,136.22,17
127,131.21,136.12,17
127,131.12,136.03,17
126,131.02,135.93,17
127,130.94,135.84,17
127,130.86,135.75,17
128,130.80,135.68,17
126,130.71,135.58,17
127,130.63,135.49,17
127,130.56,135.41,17
128,130.51,135.34,17
127,130.44,135.25,17
127,130.37,135.17,17
126,130.28,135.08,17
126,130.20,134.99,17
128,130.15,134.92,17
127,130.09,134.84,17
125,129.99,134.74,17
125,129.89,134.64,17
126,129.81,134.56,17
125,129.71,134.46,17
125,129.62,134.37,17
125,129.53,134.27,17
124,129.42,134.17,17
124,129.31,134.07,17
126,129.24,133.99,17
125,129.16,133.90,17
129,129.15,133.85,17
126,129.09,133.77,17
125,129.01,133.68,17
126,128.95,133.60,17
125,128.87,133.52,17
126,128.81,133.44,17
125,128.74,133.36,17
125,128.66,133.28,17
124,128.57,133.18,17
124,128.48,133.09,17
125,128.41,133.01,17
125,128.34,132.93,17
124,128.25,132.84,17
124,128.17,132.75,17
126,128.12,132.68,17
124,128.04,132.60,17
122,127.92,132.49,17
123,127.82,132.40,17
123,127.73,132.30,17
123,127.63,132.21,17
124,127.56,132.13,17
124,127.49,132.05,17
123,127.40,131.96,17
123,127.31,131.87,17
122,127.20,131.77,17
123,127.12,131.68,17
123,127.04,131.59,17
123,126.96,131.51,17
124,126.90,131.43,17
121,126.78,131.33,17
123,126.70,131.24,17
122,126.61,131.15,17
123,126.54,131.07,17
123,126.47,130.99,17
122,126.38,130.90,17
126,126.37,130.85,17
122,126.28,130.76,17
123,126.22,130.69,17
121,126.11,130.59,17
122,126.03,130.50,17
123,125.97,130.43,17
122,125.89,130.34,17
121,125.79,130.25,17
121,125.70,130.16,17
121,125.60,130.07,17
122,125.53,129.98,17
122,125.46,129.91,17
122,125.39,129.83,17
121,125.30,129.74,17
121,125.22,129.65,17
121,125.13,129.56,17
123,125.09,129.50,17
121,125.01,129.41,17
122,124.95,129.34,17
121,124.87,129.26,17
121,124.79,129.17,17
121,124.72,129.09,17
122,124.66,129.02,17
122,124.61,128.95,17
122,124.56,128.88,17
121,124.49,128.80,17
121,124.42,128.72,17
121,124.35,128.65,17
