Teste de posicionamento 3(EMG tendao-inervacao (Vermelho A, Verde C) + Ref no pulso) - 19/10/2024 - teste8 - 5 contrações
long frequencia = 1000;                 //frequência de aquisição do sinal, neste caso, 1000 sinais por segundo
float fator1 = 0.02, fator2 = 0.01;
float incerteza = 0.13;
float pico_basal = 130; // Mínimo para ser considerado um pico de contração
int filtro_horizontal=200000; //intervalo de 200ms valores não pode ter mais de 1 contração

Biceps_D,mediaMovel_1,mediaMovel_2,Contracao
132,2.64,1.32,0
131,5.21,2.62,0
131,7.72,3.90,0
132,10.21,5.18,0
133,12.66,6.46,0
132,15.05,7.72,0
131,17.37,8.95,0
131,19.64,10.17,0
130,21.85,11.37,0
131,24.03,12.56,0
131,26.17,13.75,0
132,28.29,14.93,0
131,30.34,16.09,0
131,32.36,17.24,0
131,34.33,18.38,0
131,36.26,19.50,0
132,38.18,20.63,0
131,40.03,21.73,0
131,41.85,22.83,0
131,43.64,23.91,0
131,45.38,24.98,0
132,47.12,26.05,0
132,48.81,27.11,0
131,50.46,28.15,0
131,52.07,29.17,0
131,53.65,30.19,0
132,55.21,31.21,0
132,56.75,32.22,0
132,58.25,33.22,0
131,59.71,34.19,0
132,61.15,35.17,0
132,62.57,36.14,0
131,63.94,37.09,0
132,65.30,38.04,0
131,66.62,38.97,0
131,67.90,39.89,0
132,69.19,40.81,0
133,70.46,41.73,0
131,71.67,42.62,0
133,72.90,43.53,0
132,74.08,44.41,0
131,75.22,45.28,0
132,76.35,46.15,0
131,77.45,46.99,0
131,78.52,47.83,0
131,79.57,48.67,0
131,80.60,49.49,0
131,81.61,50.30,0
131,82.59,51.11,0
131,83.56,51.91,0
130,84.49,52.69,0
131,85.42,53.47,0
130,86.31,54.24,0
132,87.23,55.02,0
132,88.12,55.79,0
131,88.98,56.54,0
131,89.82,57.28,0
131,90.64,58.02,0
131,91.45,58.75,0
131,92.24,59.47,0
131,93.02,60.19,0
132,93.80,60.91,0
131,94.54,61.61,0
133,95.31,62.32,0
132,96.04,63.02,0
131,96.74,63.70,0
131,97.43,64.37,0
131,98.10,65.04,0
132,98.78,65.71,0
132,99.44,66.37,0
130,100.05,67.01,0
130,100.65,67.64,0
131,101.26,68.27,0
131,101.85,68.90,0
132,102.46,69.53,0
131,103.03,70.14,0
131,103.59,70.75,0
132,104.15,71.36,0
132,104.71,71.97,0
131,105.24,72.56,0
130,105.73,73.14,0
130,106.22,73.70,0
130,106.69,74.27,0
131,107.18,74.83,0
130,107.64,75.39,0
130,108.08,75.93,0
131,108.54,76.48,0
130,108.97,77.02,0
133,109.45,77.58,0
130,109.86,78.10,0
131,110.29,78.63,0
130,110.68,79.14,0
130,111.07,79.65,0
130,111.44,80.16,0
130,111.82,80.65,0
130,112.18,81.15,0
130,112.54,81.64,0
131,112.91,82.13,0
132,113.29,82.63,0
131,113.64,83.11,0
130,113.97,83.58,0
130,114.29,84.05,0
130,114.60,84.51,0
130,114.91,84.96,0
130,115.21,85.41,0
132,115.55,85.88,0
131,115.86,86.33,0
131,116.16,86.77,0
130,116.44,87.21,0
130,116.71,87.63,0
131,116.99,88.07,0
134,117.33,88.53,0
130,117.59,88.94,0
130,117.84,89.35,0
130,118.08,89.76,0
130,118.32,90.16,0
130,118.55,90.56,0
132,118.82,90.97,0
131,119.06,91.38,0
132,119.32,91.78,0
131,119.56,92.17,0
130,119.77,92.55,0
131,119.99,92.94,0
129,120.17,93.30,0
130,120.37,93.66,0
131,120.58,94.04,0
130,120.77,94.40,0
131,120.97,94.76,0
130,121.15,95.12,0
130,121.33,95.46,0
132,121.54,95.83,0
130,121.71,96.17,0
132,121.92,96.53,0
130,122.08,96.86,0
130,122.24,97.20,0
132,122.43,97.54,0
132,122.62,97.89,0
131,122.79,98.22,0
130,122.94,98.54,0
130,123.08,98.85,0
132,123.26,99.18,0
131,123.41,99.50,0
130,123.54,99.81,0
130,123.67,100.11,0
131,123.82,100.42,0
131,123.96,100.72,0
131,124.10,101.03,0
131,124.24,101.33,0
132,124.40,101.63,0
131,124.53,101.93,0
132,124.68,102.23,0
131,124.80,102.51,0
130,124.91,102.79,0
131,125.03,103.07,0
130,125.13,103.34,0
131,125.25,103.62,0
131,125.36,103.89,0
129,125.43,104.14,0
131,125.55,104.41,0
129,125.61,104.66,0
132,125.74,104.93,0
131,125.85,105.19,0
131,125.95,105.45,0
131,126.05,105.70,0
131,126.15,105.96,0
132,126.27,106.22,0
130,126.34,106.46,0
130,126.42,106.69,0
131,126.51,106.93,0
131,126.60,107.17,0
131,126.69,107.41,0
131,126.77,107.65,0
131,126.86,107.88,0
131,126.94,108.11,0
131,127.02,108.34,0
131,127.10,108.57,0
130,127.16,108.78,0
132,127.25,109.02,0
131,127.33,109.24,0
135,127.48,109.49,0
131,127.55,109.71,0
131,127.62,109.92,0
131,127.69,110.13,0
131,127.76,110.34,0
131,127.82,110.55,0
130,127.86,110.74,0
129,127.89,110.92,0
131,127.95,111.12,0
133,128.05,111.34,0
131,128.11,111.54,0
131,128.17,111.73,0
129,128.18,111.91,0
132,128.26,112.11,0
132,128.34,112.31,0
132,128.41,112.50,0
128,128.40,112.66,0
131,128.45,112.84,0
132,128.52,113.03,0
131,128.57,113.21,0
132,128.64,113.40,0
131,128.69,113.58,0
132,128.75,113.76,0
132,128.82,113.94,0
133,128.90,114.13,0
131,128.95,114.30,0
132,129.01,114.48,0
132,129.07,114.66,0
131,129.10,114.82,0
131,129.14,114.98,0
131,129.18,115.14,0
131,129.22,115.30,0
132,129.27,115.47,0
132,129.33,115.63,0
131,129.36,115.79,0
132,129.41,115.95,0
132,129.46,116.11,0
132,129.52,116.27,0
131,129.54,116.41,0
131,129.57,116.56,0
131,129.60,116.70,0
133,129.67,116.87,0
131,129.70,117.01,0
132,129.74,117.16,0
131,129.77,117.30,0
131,129.79,117.43,0
132,129.84,117.58,0
133,129.90,117.73,0
131,129.92,117.87,0
132,129.96,118.01,0
132,130.00,118.15,0
131,130.02,118.28,0
132,130.06,118.41,0
131,130.08,118.54,0
131,130.10,118.66,0
132,130.14,118.80,0
131,130.16,118.92,0
131,130.17,119.04,0
131,130.19,119.16,0
131,130.21,119.28,0
132,130.24,119.41,0
131,130.26,119.52,0
131,130.27,119.64,0
131,130.29,119.75,0
131,130.30,119.86,0
132,130.33,119.98,0
131,130.35,120.09,0
131,130.36,120.20,0
132,130.39,120.32,0
132,130.43,120.44,0
132,130.46,120.55,0
132,130.49,120.67,0
131,130.50,120.77,0
132,130.53,120.88,0
131,130.54,120.98,0
132,130.57,121.10,0
132,130.60,121.20,0
132,130.62,121.31,0
132,130.65,121.42,0
133,130.70,121.53,0
131,130.70,121.63,0
132,130.73,121.73,0
132,130.76,121.84,0
133,130.80,121.95,0
132,130.82,122.05,0
131,130.83,122.14,0
131,130.83,122.23,0
131,130.84,122.31,0
132,130.86,122.41,0
131,130.86,122.50,0
132,130.88,122.59,0
131,130.89,122.68,0
132,130.91,122.77,0
132,130.93,122.86,0
132,130.95,122.95,0
131,130.95,123.03,0
133,130.99,123.13,0
132,131.01,123.22,0
132,131.03,123.31,0
132,131.05,123.40,0
131,131.05,123.47,0
132,131.07,123.56,0
132,131.09,123.64,0
130,131.07,123.71,0
130,131.05,123.77,0
131,131.05,123.84,0
131,131.04,123.91,0
132,131.06,123.99,0
131,131.06,124.06,0
130,131.04,124.12,0
130,131.02,124.18,0
129,130.98,124.23,0
129,130.94,124.28,0
132,130.96,124.35,0
131,130.96,124.42,0
131,130.96,124.49,0
131,130.96,124.55,0
130,130.94,124.61,0
130,130.93,124.66,0
130,130.91,124.71,0
130,130.89,124.77,0
131,130.89,124.83,0
131,130.89,124.89,0
129,130.86,124.93,0
131,130.86,124.99,0
130,130.84,125.04,0
130,130.82,125.09,0
130,130.81,125.14,0
129,130.77,125.18,0
130,130.76,125.23,0
131,130.76,125.29,0
131,130.77,125.34,0
129,130.73,125.38,0
130,130.72,125.43,0
132,130.74,125.49,0
130,130.73,125.54,0
130,130.71,125.58,0
129,130.68,125.62,0
130,130.66,125.66,0
130,130.65,125.70,0
129,130.62,125.74,0
130,130.61,125.78,0
130,130.59,125.82,0
131,130.60,125.87,0
131,130.61,125.92,0
132,130.64,125.98,0
130,130.62,126.02,0
131,130.63,126.07,0
131,130.64,126.12,0
134,130.71,126.20,0
130,130.69,126.24,0
131,130.70,126.29,0
129,130.67,126.31,0
131,130.67,126.36,0
132,130.70,126.42,0
130,130.68,126.45,0
131,130.69,126.50,0
131,130.70,126.54,0
131,130.70,126.59,0
130,130.69,126.62,0
129,130.66,126.65,0
130,130.64,126.68,0
131,130.65,126.72,0
132,130.68,126.78,0
131,130.68,126.82,0
128,130.63,126.83,0
131,130.64,126.87,0
131,130.64,126.91,0
133,130.69,126.97,0
131,130.70,127.01,0
131,130.70,127.05,0
129,130.67,127.07,0
131,130.68,127.11,0
130,130.66,127.14,0
130,130.65,127.17,0
131,130.66,127.21,0
131,130.66,127.25,0
131,130.67,127.28,0
131,130.68,127.32,0
130,130.66,127.35,0
131,130.67,127.38,0
132,130.70,127.43,0
131,130.70,127.47,0
131,130.71,127.50,0
131,130.71,127.54,0
133,130.76,127.59,0
132,130.78,127.64,0
131,130.79,127.67,0
130,130.77,127.69,0
132,130.80,127.74,0
131,130.80,127.77,0
131,130.81,127.80,0
130,130.79,127.82,0
132,130.81,127.86,0
131,130.82,127.90,0
131,130.82,127.93,0
131,130.82,127.96,0
130,130.81,127.98,0
130,130.79,128.00,0
130,130.78,128.02,0
130,130.76,128.04,0
129,130.73,128.05,0
129,130.69,128.06,0
129,130.66,128.07,0
131,130.66,128.10,0
130,130.65,128.11,0
131,130.66,128.14,0
130,130.64,128.16,0
130,130.63,128.18,0
129,130.60,128.19,0
129,130.57,128.20,0
129,130.54,128.21,0
130,130.52,128.22,0
131,130.53,128.25,0
131,130.54,128.28,0
131,130.55,128.31,0
131,130.56,128.33,0
132,130.59,128.37,0
131,130.60,128.40,0
131,130.61,128.42,0
129,130.57,128.43,0
130,130.56,128.44,0
131,130.57,128.47,0
132,130.60,128.50,0
130,130.59,128.52,0
129,130.56,128.52,0
129,130.53,128.53,0
131,130.54,128.55,0
130,130.52,128.57,0
130,130.51,128.58,0
129,130.48,128.59,0
129,130.45,128.59,0
129,130.42,128.59,0
129,130.40,128.60,0
129,130.37,128.60,0
129,130.34,128.61,0
130,130.33,128.62,0
129,130.31,128.62,0
130,130.30,128.64,0
129,130.28,128.64,0
130,130.27,128.66,0
129,130.24,128.66,0
129,130.22,128.66,0
133,130.28,128.71,0
129,130.25,128.71,0
130,130.24,128.72,0
130,130.24,128.73,0
131,130.26,128.76,0
129,130.23,128.76,0
129,130.21,128.76,0
127,130.14,128.74,0
130,130.14,128.76,0
129,130.12,128.76,0
129,130.09,128.76,0
129,130.07,128.76,0
129,130.05,128.77,0
129,130.03,128.77,0
129,130.01,128.77,0
129,129.99,128.77,0
128,129.95,128.77,0
131,129.97,128.79,0
129,129.95,128.79,0
129,129.93,128.79,0
129,129.91,128.79,0
129,129.89,128.80,0
128,129.86,128.79,0
128,129.82,128.78,0
128,129.78,128.77,0
128,129.75,128.76,0
128,129.71,128.76,0
129,129.70,128.76,0
128,129.66,128.75,0
129,129.65,128.75,0
129,129.64,128.76,0
129,129.63,128.76,0
128,129.59,128.75,0
128,129.56,128.74,0
128,129.53,128.74,0
128,129.50,128.73,0
129,129.49,128.73,0
128,129.46,128.72,0
129,129.45,128.73,0
128,129.42,128.72,0
127,129.37,128.70,0
128,129.35,128.70,0
129,129.34,128.70,0
129,129.33,128.70,0
129,129.32,128.70,0
129,129.32,128.71,0
129,129.31,128.71,0
129,129.31,128.71,0
129,129.30,128.72,0
129,129.29,128.72,0
132,129.35,128.75,0
131,129.38,128.77,0
130,129.39,128.79,0
133,129.47,128.83,0
130,129.48,128.84,0
133,129.55,128.88,0
130,129.56,128.89,0
130,129.56,128.90,0
131,129.59,128.93,0
132,129.64,128.96,0
131,129.67,128.98,0
132,129.72,129.01,0
131,129.74,129.03,0
133,129.81,129.07,0
132,129.85,129.10,0
132,129.89,129.13,0
133,129.96,129.16,0
134,130.04,129.21,0
132,130.08,129.24,0
133,130.13,129.28,0
133,130.19,129.31,0
129,130.17,129.31,0
134,130.24,129.36,0
133,130.30,129.39,0
133,130.35,129.43,0
132,130.39,129.46,0
132,130.42,129.48,0
133,130.47,129.52,0
133,130.52,129.55,0
132,130.55,129.58,0
132,130.58,129.60,0
133,130.63,129.63,0
134,130.70,129.68,0
133,130.74,129.71,0
133,130.79,129.74,0
133,130.83,129.78,0
133,130.87,129.81,0
133,130.92,129.84,0
133,130.96,129.87,0
134,131.02,129.91,0
132,131.04,129.94,0
133,131.08,129.97,0
133,131.12,130.00,0
133,131.15,130.03,0
132,131.17,130.05,0
133,131.21,130.08,0
133,131.24,130.10,0
132,131.26,130.12,0
132,131.27,130.14,0
133,131.31,130.17,0
131,131.30,130.18,0
133,131.34,130.21,0
132,131.35,130.23,0
131,131.34,130.23,0
133,131.38,130.26,0
133,131.41,130.29,0
133,131.44,130.32,0
132,131.45,130.33,0
133,131.48,130.36,0
132,131.49,130.38,0
137,131.60,130.44,0
133,131.63,130.47,0
133,131.66,130.49,0
133,131.68,130.52,0
134,131.73,130.55,0
133,131.76,130.58,0
134,131.80,130.61,0
132,131.81,130.62,0
133,131.83,130.65,0
133,131.85,130.67,0
134,131.90,130.71,0
134,131.94,130.74,0
135,132.00,130.78,0
134,132.04,130.81,0
133,132.06,130.84,0
133,132.08,130.86,0
133,132.10,130.88,0
133,132.11,130.90,0
133,132.13,130.92,0
133,132.15,130.94,0
133,132.17,130.96,0
133,132.18,130.98,0
133,132.20,131.00,0
133,132.21,131.02,0
133,132.23,131.04,0
133,132.25,131.06,0
133,132.26,131.08,0
132,132.26,131.09,0
133,132.27,131.11,0
132,132.27,131.12,0
132,132.26,131.13,0
132,132.25,131.14,0
132,132.25,131.14,0
133,132.26,131.16,0
132,132.26,131.17,0
133,132.27,131.19,0
133,132.29,131.21,0
133,132.30,131.23,0
134,132.34,131.25,0
138,132.45,131.32,0
135,132.50,131.36,0
133,132.51,131.37,0
134,132.54,131.40,0
133,132.55,131.42,0
133,132.56,131.43,0
133,132.57,131.45,0
133,132.58,131.46,0
133,132.58,131.48,0
133,132.59,131.49,0
134,132.62,131.52,0
133,132.63,131.53,0
134,132.66,131.56,0
135,132.70,131.59,0
133,132.71,131.61,0
133,132.71,131.62,0
134,132.74,131.64,0
133,132.75,131.66,0
136,132.81,131.70,0
133,132.81,131.71,0
133,132.82,131.73,0
134,132.84,131.75,0
135,132.89,131.78,0
135,132.93,131.82,0
134,132.95,131.84,0
135,132.99,131.87,0
135,133.03,131.90,0
136,133.09,131.94,0
135,133.13,131.97,0
135,133.17,132.00,0
135,133.20,132.03,0
135,133.24,132.06,0
135,133.27,132.09,0
135,133.31,132.12,0
135,133.34,132.15,0
136,133.39,132.19,0
135,133.43,132.22,0
136,133.48,132.25,0
136,133.53,132.29,0
137,133.60,132.34,0
137,133.67,132.38,0
137,133.73,132.43,0
137,133.80,132.48,0
137,133.86,132.52,0
139,133.97,132.59,0
140,134.09,132.66,0
139,134.18,132.72,0
138,134.26,132.78,0
137,134.32,132.82,0
139,134.41,132.88,0
141,134.54,132.96,0
140,134.65,133.03,0
140,134.76,133.10,0
140,134.86,133.17,0
141,134.98,133.25,0
143,135.14,133.35,0
140,135.24,133.41,0
139,135.32,133.47,0
139,135.39,133.52,0
141,135.50,133.60,0
140,135.59,133.66,0
140,135.68,133.73,0
139,135.75,133.78,0
140,135.83,133.84,0
140,135.92,133.90,0
141,136.02,133.97,0
139,136.08,134.02,0
141,136.18,134.09,0
141,136.27,134.16,0
141,136.37,134.23,0
139,136.42,134.28,0
138,136.45,134.32,0
139,136.50,134.36,0
141,136.59,134.43,0
141,136.68,134.50,0
141,136.77,134.56,0
141,136.85,134.62,0
140,136.91,134.68,0
142,137.02,134.75,0
144,137.16,134.84,0
143,137.27,134.93,0
143,137.39,135.01,0
143,137.50,135.09,0
143,137.61,135.17,0
143,137.72,135.24,0
145,137.86,135.34,0
143,137.97,135.42,0
144,138.09,135.50,0
146,138.24,135.61,0
143,138.34,135.68,0
143,138.43,135.76,0
145,138.56,135.85,0
145,138.69,135.94,0
145,138.82,136.03,0
145,138.94,136.12,0
145,139.06,136.21,0
145,139.18,136.30,0
145,139.30,136.38,0
144,139.39,136.46,0
145,139.51,136.55,0
144,139.59,136.62,0
143,139.66,136.68,0
145,139.77,136.77,0
145,139.87,136.85,0
145,139.98,136.93,0
145,140.08,137.01,0
145,140.18,137.09,0
145,140.27,137.17,0
145,140.37,137.25,0
144,140.44,137.32,0
145,140.53,137.39,0
146,140.64,137.48,0
145,140.73,137.55,0
145,140.81,137.63,0
147,140.94,137.72,0
147,141.06,137.82,0
147,141.18,137.91,0
145,141.25,137.98,0
147,141.37,138.07,0
148,141.50,138.17,0
148,141.63,138.27,0
146,141.72,138.34,0
148,141.84,138.44,0
147,141.95,138.53,0
148,142.07,138.62,0
150,142.23,138.73,0
150,142.38,138.85,0
149,142.51,138.95,0
153,142.72,139.09,0
149,142.85,139.19,0
149,142.97,139.29,0
151,143.13,139.40,0
150,143.27,139.51,0
150,143.41,139.61,0
149,143.52,139.71,0
149,143.63,139.80,0
151,143.77,139.91,0
152,143.94,140.03,0
151,144.08,140.14,0
151,144.22,140.25,0
152,144.37,140.37,0
150,144.49,140.47,0
151,144.62,140.57,0
153,144.78,140.70,0
151,144.91,140.80,0
151,145.03,140.90,0
151,145.15,141.00,0
152,145.29,141.11,0
154,145.46,141.24,0
154,145.63,141.37,0
153,145.78,141.48,0
152,145.90,141.59,0
153,146.05,141.70,0
154,146.20,141.83,0
155,146.38,141.96,0
154,146.53,142.08,0
153,146.66,142.19,0
153,146.79,142.30,0
153,146.91,142.40,0
153,147.04,142.51,0
156,147.21,142.64,0
156,147.39,142.78,0
155,147.54,142.90,0
155,147.69,143.02,0
157,147.88,143.16,0
153,147.98,143.26,0
157,148.16,143.40,0
156,148.32,143.52,0
157,148.49,143.66,0
157,148.66,143.79,0
159,148.87,143.94,0
159,149.07,144.09,0
157,149.23,144.22,0
157,149.38,144.35,0
157,149.54,144.48,0
159,149.73,144.62,0
159,149.91,144.77,0
161,150.13,144.93,0
161,150.35,145.09,0
160,150.54,145.24,0
164,150.81,145.43,0
164,151.08,145.61,0
163,151.32,145.78,0
163,151.55,145.96,0
165,151.82,146.15,0
165,152.08,146.34,0
167,152.38,146.54,0
165,152.63,146.73,0
166,152.90,146.92,0
165,153.14,147.10,0
167,153.42,147.30,0
168,153.71,147.51,0
171,154.06,147.74,0
173,154.44,147.99,0
169,154.73,148.20,0
171,155.05,148.43,0
169,155.33,148.64,0
172,155.66,148.87,0
173,156.01,149.11,0
171,156.31,149.33,0
172,156.62,149.56,0
172,156.93,149.78,0
171,157.21,150.00,0
174,157.55,150.24,0
177,157.94,150.50,0
173,158.24,150.73,0
173,158.53,150.95,0
175,158.86,151.19,0
174,159.17,151.42,0
175,159.48,151.65,0
174,159.77,151.88,0
173,160.04,152.09,0
173,160.30,152.30,0
175,160.59,152.53,0
175,160.88,152.75,0
175,161.16,152.97,0
177,161.48,153.21,0
177,161.79,153.45,0
178,162.11,153.70,0
177,162.41,153.93,0
178,162.72,154.17,0
176,162.99,154.39,0
178,163.29,154.62,0
177,163.56,154.85,0
179,163.87,155.09,0
178,164.15,155.32,0
178,164.43,155.55,0
179,164.72,155.78,0
180,165.03,156.02,0
179,165.31,156.25,0
179,165.58,156.48,0
181,165.89,156.73,0
181,166.19,156.97,0
181,166.49,157.21,0
181,166.78,157.45,0
182,167.08,157.69,0
180,167.34,157.91,0
181,167.61,158.15,0
181,167.88,158.37,0
182,168.16,158.61,0
183,168.46,158.85,0
183,168.75,159.10,0
185,169.08,159.35,0
185,169.40,159.61,0
184,169.69,159.86,0
184,169.97,160.10,0
185,170.27,160.35,0
188,170.63,160.62,0
185,170.92,160.87,0
186,171.22,161.12,0
186,171.51,161.37,0
187,171.82,161.62,0
189,172.17,161.90,0
188,172.48,162.16,0
188,172.79,162.42,0
187,173.08,162.66,0
189,173.40,162.92,0
189,173.71,163.19,0
193,174.09,163.48,0
196,174.53,163.81,0
197,174.98,164.14,0
197,175.42,164.47,0
201,175.93,164.83,0
202,176.45,165.21,0
204,177.01,165.59,0
201,177.49,165.95,0
201,177.96,166.30,0
201,178.42,166.65,0
201,178.87,166.99,0
205,179.39,167.37,0
202,179.84,167.72,0
203,180.31,168.07,0
207,180.84,168.46,0
207,181.36,168.84,0
205,181.84,169.21,0
205,182.30,169.56,0
205,182.75,169.92,0
205,183.20,170.27,0
210,183.73,170.67,0
212,184.30,171.08,0
211,184.83,171.48,0
212,185.38,171.88,0
210,185.87,172.26,0
211,186.37,172.65,0
213,186.90,173.06,0
212,187.41,173.44,0
212,187.90,173.83,0
213,188.40,174.22,0
213,188.89,174.61,0
214,189.39,175.00,0
215,189.91,175.40,0
215,190.41,175.80,0
214,190.88,176.18,0
215,191.36,176.57,0
215,191.84,176.95,0
214,192.28,177.32,0
213,192.69,177.68,0
213,193.10,178.03,0
213,193.50,178.38,0
213,193.89,178.73,0
213,194.27,179.07,0
216,194.70,179.44,0
214,195.09,179.79,0
213,195.45,180.12,0
215,195.84,180.47,0
213,196.18,180.79,0
213,196.52,181.12,0
215,196.89,181.46,0
214,197.23,181.78,0
213,197.55,182.09,0
213,197.86,182.40,0
214,198.18,182.72,0
213,198.47,183.02,0
215,198.81,183.34,0
213,199.09,183.64,0
213,199.37,183.93,0
213,199.64,184.22,0
214,199.93,184.52,0
213,200.19,184.80,0
214,200.46,185.10,0
213,200.72,185.37,0
213,200.96,185.65,0
213,201.20,185.92,0
213,201.44,186.20,0
213,201.67,186.46,0
212,201.88,186.72,0
213,202.10,186.98,0
211,202.28,187.22,0
211,202.45,187.46,0
212,202.64,187.71,0
212,202.83,187.95,0
211,202.99,188.18,0
210,203.13,188.40,0
209,203.25,188.60,0
213,203.44,188.85,0
211,203.60,189.07,0
211,203.74,189.29,0
210,203.87,189.49,0
211,204.01,189.71,0
211,204.15,189.92,0
211,204.29,190.13,0
210,204.40,190.33,0
209,204.49,190.52,0
210,204.60,190.71,0
209,204.69,190.90,0
209,204.78,191.08,0
209,204.86,191.26,0
209,204.95,191.43,0
209,205.03,191.61,0
209,205.11,191.78,0
208,205.16,191.95,0
209,205.24,192.12,0
207,205.28,192.27,0
212,205.41,192.46,0
208,205.46,192.62,0
207,205.49,192.76,0
209,205.56,192.92,0
208,205.61,193.08,0
209,205.68,193.23,0
207,205.71,193.37,0
207,205.73,193.51,0
207,205.76,193.64,0
207,205.78,193.78,0
206,205.79,193.90,0
207,205.81,194.03,0
206,205.81,194.15,0
205,205.80,194.26,0
205,205.78,194.37,0
206,205.79,194.48,0
202,205.71,194.56,0
204,205.68,194.65,0
205,205.66,194.76,0
204,205.63,194.85,0
205,205.62,194.95,0
203,205.57,195.03,0
203,205.51,195.11,0
203,205.46,195.19,0
203,205.41,195.27,0
202,205.35,195.33,0
203,205.30,195.41,0
203,205.25,195.49,0
202,205.19,195.55,0
202,205.12,195.62,0
201,205.04,195.67,0
201,204.96,195.72,0
202,204.90,195.79,0
201,204.82,195.84,0
201,204.75,195.89,0
201,204.67,195.94,0
200,204.58,195.98,0
200,204.49,196.02,0
199,204.38,196.05,0
199,204.27,196.08,0
199,204.16,196.11,0
200,204.08,196.15,0
200,204.00,196.19,0
199,203.90,196.22,0
199,203.80,196.24,0
199,203.71,196.27,0
199,203.61,196.30,0
199,203.52,196.33,0
197,203.39,196.33,0
199,203.30,196.36,0
197,203.18,196.37,0
197,203.05,196.37,0
197,202.93,196.38,0
198,202.83,196.39,0
197,202.72,196.40,0
200,202.66,196.44,0
197,202.55,196.44,0
195,202.40,196.43,0
197,202.29,196.43,0
197,202.18,196.44,0
196,202.06,196.43,0
195,201.92,196.42,0
195,201.78,196.41,0
195,201.64,196.39,0
197,201.55,196.40,0
195,201.42,196.38,0
194,201.27,196.36,0
193,201.11,196.33,0
194,200.96,196.30,0
193,200.81,196.27,0
193,200.65,196.24,0
193,200.50,196.20,0
193,200.35,196.17,0
193,200.20,196.14,0
193,200.06,196.11,0
193,199.91,196.08,0
192,199.76,196.04,0
192,199.60,196.00,0
191,199.43,195.95,0
192,199.28,195.91,0
191,199.11,195.86,0
192,198.97,195.82,0
189,198.77,195.75,0
191,198.62,195.70,0
191,198.47,195.66,0
189,198.28,195.59,0
189,198.09,195.53,0
189,197.91,195.46,0
189,197.73,195.40,0
189,197.56,195.33,0
189,197.38,195.27,0
189,197.22,195.21,0
189,197.05,195.14,0
188,196.87,195.07,0
188,196.69,195.00,0
187,196.50,194.92,0
189,196.35,194.86,0
187,196.16,194.78,0
189,196.02,194.73,0
187,195.84,194.65,0
187,195.66,194.57,0
186,195.47,194.49,0
187,195.30,194.41,0
185,195.09,194.32,0
185,194.89,194.22,0
185,194.69,194.13,0
185,194.50,194.04,0
185,194.31,193.95,0
185,194.12,193.86,0
184,193.92,193.76,0
183,193.70,193.65,1
184,193.51,193.56,1
184,193.32,193.46,1
184,193.13,193.37,1
183,192.93,193.26,1
183,192.73,193.16,1
183,192.54,193.06,1
182,192.33,192.95,1
183,192.14,192.85,1
182,191.94,192.74,1
181,191.72,192.62,1
181,191.50,192.51,1
181,191.29,192.39,1
181,191.09,192.28,1
181,190.89,192.17,1
181,190.69,192.05,1
181,190.49,191.94,1
180,190.28,191.82,1
181,190.10,191.72,1
179,189.88,191.59,1
180,189.68,191.47,1
180,189.49,191.36,1
179,189.28,191.23,1
179,189.07,191.11,1
179,188.87,190.99,1
178,188.65,190.86,1
179,188.46,190.74,1
179,188.27,190.62,1
177,188.04,190.49,1
177,187.82,190.35,1
179,187.65,190.24,1
177,187.43,190.11,1
177,187.23,189.98,1
177,187.02,189.85,1
177,186.82,189.72,1
177,186.62,189.59,1
177,186.43,189.47,1
176,186.22,189.33,1
177,186.04,189.21,1
175,185.82,189.07,1
175,185.60,188.92,1
177,185.43,188.81,1
175,185.22,188.67,1
176,185.04,188.54,1
175,184.84,188.41,1
175,184.64,188.27,1
174,184.43,188.13,1
176,184.26,188.01,1
174,184.05,187.87,1
174,183.85,187.73,1
173,183.63,187.58,1
173,183.42,187.44,1
174,183.23,187.30,1
173,183.03,187.16,1
173,182.83,187.02,1
170,182.57,186.85,1
173,182.38,186.71,1
173,182.19,186.57,1
172,181.99,186.43,1
172,181.79,186.28,1
173,181.61,186.15,1
172,181.42,186.01,1
171,181.21,185.86,1
172,181.03,185.72,1
172,180.85,185.58,1
171,180.65,185.44,1
171,180.46,185.29,1
169,180.23,185.13,1
169,180.00,184.97,1
169,179.78,184.81,1
170,179.59,184.66,1
169,179.38,184.50,1
169,179.17,184.35,1
169,178.97,184.19,1
169,178.77,184.04,1
169,178.57,183.89,1
168,178.36,183.73,1
168,178.15,183.58,1
168,177.95,183.42,1
169,177.77,183.28,1
168,177.57,183.12,1
167,177.36,182.96,1
167,177.16,182.80,1
167,176.95,182.64,1
167,176.75,182.49,1
167,176.56,182.33,1
166,176.35,182.17,1
167,176.16,182.02,1
167,175.98,181.87,1
166,175.78,181.71,1
167,175.60,181.56,1
165,175.39,181.40,1
165,175.18,181.23,1
165,174.98,181.07,1
169,174.86,180.95,1
165,174.66,180.79,1
167,174.51,180.65,1
165,174.32,180.49,1
165,174.13,180.34,1
165,173.95,180.19,1
165,173.77,180.03,1
164,173.58,179.87,1
164,173.38,179.72,1
164,173.20,179.56,1
164,173.01,179.40,1
164,172.83,179.25,1
163,172.64,179.09,1
164,172.46,178.94,1
163,172.27,178.78,1
163,172.09,178.62,1
163,171.91,178.46,1
163,171.73,178.31,1
163,171.55,178.15,1
165,171.42,178.02,1
161,171.21,177.85,1
163,171.05,177.70,1
161,170.85,177.54,1
163,170.69,177.39,1
164,170.56,177.26,1
162,170.39,177.11,1
161,170.20,176.94,1
161,170.02,176.78,1
161,169.83,176.63,1
161,169.66,176.47,1
161,169.48,176.32,1
161,169.32,176.16,1
161,169.15,176.01,1
161,168.99,175.86,1
160,168.81,175.70,1
161,168.65,175.56,1
161,168.50,175.41,1
161,168.35,175.27,1
160,168.18,175.11,1
160,168.02,174.96,1
161,167.88,174.82,1
159,167.70,174.66,1
160,167.54,174.52,1
160,167.39,174.37,1
160,167.25,174.23,1
160,167.10,174.09,1
159,166.94,173.94,1
160,166.80,173.80,1
159,166.64,173.65,1
159,166.49,173.50,1
159,166.34,173.36,1
160,166.21,173.22,1
159,166.07,173.08,1
159,165.93,172.94,1
157,165.75,172.78,1
159,165.62,172.64,1
159,165.48,172.51,1
159,165.35,172.37,1
158,165.21,172.23,1
158,165.06,172.09,1
157,164.90,171.93,1
157,164.74,171.79,1
157,164.59,171.64,1
157,164.44,171.49,1
157,164.29,171.35,1
156,164.12,171.19,1
157,163.98,171.05,1
155,163.80,170.89,1
157,163.66,170.75,1
155,163.49,170.59,1
156,163.34,170.45,1
156,163.19,170.30,1
156,163.05,170.16,1
155,162.89,170.01,1
156,162.75,169.87,1
155,162.60,169.72,1
154,162.42,169.56,1
153,162.24,169.40,1
154,162.07,169.24,1
155,161.93,169.10,1
154,161.77,168.95,1
153,161.60,168.79,1
153,161.42,168.63,1
153,161.26,168.48,1
153,161.09,168.32,1
153,160.93,168.17,1
153,160.77,168.02,1
153,160.61,167.87,1
153,160.46,167.72,1
153,160.31,167.57,1
152,160.15,167.41,1
153,160.00,167.27,1
153,159.86,167.13,1
153,159.73,166.99,1
155,159.63,166.87,1
152,159.48,166.72,1
152,159.33,166.57,1
151,159.16,166.42,1
152,159.02,166.27,1
151,158.86,166.12,1
152,158.72,165.98,1
151,158.57,165.83,1
152,158.44,165.69,1
151,158.29,165.54,1
151,158.14,165.40,1
150,157.98,165.24,1
151,157.84,165.10,1
151,157.70,164.96,1
149,157.53,164.80,1
149,157.36,164.64,1
149,157.19,164.49,1
151,157.07,164.35,1
151,156.95,164.22,1
149,156.79,164.06,1
150,156.65,163.92,1
149,156.50,163.77,1
149,156.35,163.63,1
149,156.20,163.48,1
149,156.06,163.34,1
149,155.92,163.19,1
149,155.78,163.05,1
149,155.64,162.91,1
149,155.51,162.77,1
149,155.38,162.63,1
147,155.21,162.48,1
148,155.07,162.33,1
148,154.93,162.19,1
147,154.77,162.04,1
148,154.63,161.90,1
147,154.48,161.75,1
148,154.35,161.61,1
148,154.22,161.47,1
148,154.10,161.34,1
147,153.96,161.20,1
148,153.84,161.06,1
147,153.70,160.92,1
147,153.57,160.78,1
146,153.42,160.64,1
146,153.27,160.49,1
147,153.14,160.36,1
147,153.02,160.22,1
145,152.86,160.07,1
147,152.74,159.94,1
146,152.61,159.80,1
148,152.51,159.68,1
147,152.40,159.55,1
146,152.28,159.42,1
146,152.15,159.28,1
145,152.01,159.14,1
149,151.95,159.04,1
146,151.83,158.91,1
146,151.71,158.78,1
145,151.58,158.64,1
145,151.45,158.51,1
146,151.34,158.38,1
145,151.21,158.25,1
145,151.09,158.12,1
145,150.96,157.98,1
145,150.85,157.85,1
145,150.73,157.73,1
145,150.61,157.60,1
145,150.50,157.47,1
144,150.37,157.34,1
144,150.24,157.20,1
144,150.12,157.07,1
143,149.98,156.93,1
144,149.86,156.80,1
144,149.74,156.67,1
143,149.61,156.54,1
143,149.47,156.40,1
143,149.34,156.27,1
143,149.22,156.14,1
143,149.09,156.00,1
142,148.95,155.86,1
143,148.83,155.74,1
141,148.68,155.59,1
142,148.54,155.45,1
142,148.41,155.32,1
142,148.28,155.18,1
141,148.14,155.04,1
141,147.99,154.90,1
141,147.85,154.76,1
141,147.72,154.63,1
142,147.60,154.50,1
142,147.49,154.37,1
141,147.36,154.24,1
141,147.23,154.11,1
141,147.11,153.98,1
141,146.99,153.85,1
141,146.87,153.72,1
141,146.75,153.59,1
141,146.63,153.47,1
141,146.52,153.34,1
141,146.41,153.22,1
140,146.28,153.09,1
140,146.16,152.95,1
140,146.03,152.83,1
139,145.89,152.69,1
140,145.78,152.56,1
139,145.64,152.42,1
140,145.53,152.30,1
139,145.40,152.17,1
140,145.29,152.05,1
139,145.16,151.92,1
139,145.04,151.79,1
139,144.92,151.66,1
140,144.82,151.54,1
139,144.70,151.42,1
139,144.59,151.29,1
139,144.48,151.17,1
140,144.39,151.06,1
139,144.28,150.94,1
139,144.18,150.82,1
137,144.03,150.68,1
139,143.93,150.56,1
139,143.83,150.45,1
138,143.72,150.32,1
137,143.58,150.19,1
138,143.47,150.07,1
139,143.38,149.96,1
138,143.27,149.84,1
137,143.15,149.71,1
138,143.04,149.59,1
139,142.96,149.49,1
137,142.84,149.36,1
138,142.75,149.25,1
137,142.63,149.12,1
137,142.52,149.00,1
137,142.41,148.88,1
137,142.30,148.76,1
137,142.20,148.65,1
137,142.09,148.53,1
136,141.97,148.41,1
136,141.85,148.28,1
135,141.71,148.15,1
136,141.60,148.03,1
137,141.51,147.92,1
136,141.40,147.80,1
136,141.29,147.68,1
136,141.18,147.56,1
136,141.08,147.45,1
135,140.96,147.32,1
137,140.88,147.22,1
137,140.80,147.12,1
137,140.73,147.02,1
136,140.63,146.91,1
136,140.54,146.80,1
137,140.47,146.70,1
138,140.42,146.61,1
136,140.33,146.51,1
136,140.24,146.40,1
137,140.18,146.31,1
136,140.09,146.20,1
137,140.03,146.11,1
136,139.95,146.01,1
137,139.89,145.92,1
138,139.86,145.84,1
137,139.80,145.75,1
137,139.74,145.67,1
135,139.65,145.56,1
137,139.59,145.47,1
139,139.58,145.41,1
137,139.53,145.32,1
137,139.48,145.24,1
137,139.43,145.16,1
138,139.40,145.09,1
137,139.35,145.01,1
137,139.31,144.93,1
137,139.26,144.85,1
137,139.22,144.77,1
137,139.17,144.69,1
137,139.13,144.61,1
138,139.11,144.55,1
137,139.06,144.47,1
137,139.02,144.40,1
137,138.98,144.32,1
137,138.94,144.25,1
136,138.88,144.17,1
136,138.83,144.09,1
137,138.79,144.01,1
137,138.75,143.94,1
136,138.70,143.87,1
137,138.66,143.80,1
135,138.59,143.71,1
137,138.56,143.64,1
137,138.53,143.58,1
137,138.50,143.51,1
137,138.47,143.44,1
137,138.44,143.38,1
137,138.41,143.32,1
137,138.38,143.25,1
137,138.35,143.19,1
136,138.31,143.12,1
137,138.28,143.06,1
137,138.25,143.00,1
136,138.21,142.93,1
137,138.19,142.87,1
137,138.16,142.81,1
140,138.20,142.78,1
137,138.17,142.72,1
136,138.13,142.66,1
136,138.09,142.59,1
137,138.07,142.53,1
137,138.05,142.48,1
138,138.04,142.43,1
136,138.00,142.37,1
137,137.98,142.32,1
138,137.98,142.27,1
140,138.02,142.25,1
139,138.04,142.22,1
139,138.06,142.18,1
138,138.06,142.14,1
139,138.08,142.11,1
139,138.10,142.08,1
138,138.10,142.04,1
138,138.09,142.00,1
139,138.11,141.97,1
137,138.09,141.92,1
139,138.11,141.89,1
139,138.13,141.86,1
140,138.16,141.84,1
138,138.16,141.80,1
139,138.18,141.78,1
137,138.15,141.73,1
137,138.13,141.68,1
137,138.11,141.63,1
138,138.11,141.60,1
139,138.12,141.57,1
139,138.14,141.55,1
139,138.16,141.52,1
138,138.16,141.49,1
140,138.19,141.47,1
139,138.21,141.45,1
139,138.22,141.42,1
137,138.20,141.38,1
137,138.18,141.33,1
138,138.17,141.30,1
139,138.19,141.28,1
137,138.17,141.23,1
138,138.16,141.20,1
137,138.14,141.16,1
138,138.14,141.13,1
137,138.11,141.09,1
137,138.09,141.05,1
138,138.09,141.02,1
139,138.11,141.00,1
139,138.13,140.98,1
138,138.12,140.95,1
139,138.14,140.93,1
140,138.18,140.92,1
139,138.19,140.90,1
140,138.23,140.89,1
140,138.27,140.88,1
139,138.28,140.86,1
140,138.31,140.85,1
141,138.37,140.85,1
140,138.40,140.85,1
141,138.45,140.85,1
141,138.50,140.85,1
140,138.53,140.84,1
140,138.56,140.83,1
140,138.59,140.82,1
141,138.64,140.83,1
141,138.69,140.83,1
139,138.69,140.81,1
141,138.74,140.81,1
141,138.78,140.81,1
141,138.83,140.81,1
141,138.87,140.82,1
141,138.92,140.82,1
140,138.94,140.81,1
141,138.98,140.81,1
141,139.02,140.81,1
141,139.06,140.82,1
141,139.10,140.82,1
141,139.14,140.82,1
141,139.17,140.82,1
140,139.19,140.81,1
141,139.23,140.81,1
141,139.26,140.82,1
143,139.34,140.84,1
141,139.37,140.84,1
141,139.40,140.84,1
141,139.43,140.84,1
141,139.46,140.84,1
141,139.50,140.85,1
141,139.53,140.85,1
141,139.56,140.85,1
141,139.58,140.85,1
141,139.61,140.85,1
141,139.64,140.85,1
142,139.69,140.87,1
145,139.79,140.91,1
141,139.82,140.91,1
141,139.84,140.91,1
141,139.86,140.91,1
141,139.89,140.91,1
141,139.91,140.91,1
141,139.93,140.91,1
142,139.97,140.92,1
142,140.01,140.93,1
143,140.07,140.95,1
141,140.09,140.96,1
143,140.15,140.98,1
141,140.17,140.98,1
143,140.22,141.00,1
141,140.24,141.00,1
142,140.27,141.01,1
141,140.29,141.01,1
141,140.30,141.01,1
141,140.32,141.01,1
142,140.35,141.02,1
141,140.36,141.02,1
141,140.38,141.02,1
141,140.39,141.02,1
142,140.42,141.03,1
141,140.43,141.02,1
142,140.46,141.03,1
143,140.51,141.05,1
143,140.56,141.07,1
143,140.61,141.09,1
143,140.66,141.11,1
141,140.67,141.11,1
141,140.67,141.11,1
142,140.70,141.12,1
142,140.73,141.13,1
142,140.75,141.14,1
143,140.80,141.16,1
141,140.80,141.15,1
143,140.85,141.17,1
141,140.85,141.17,1
141,140.85,141.17,1
143,140.89,141.19,1
141,140.90,141.18,1
143,140.94,141.20,1
142,140.96,141.21,1
141,140.96,141.21,1
141,140.96,141.21,1
143,141.00,141.22,1
142,141.02,141.23,1
141,141.02,141.23,1
142,141.04,141.24,1
141,141.04,141.24,1
142,141.06,141.24,1
141,141.06,141.24,1
141,141.06,141.24,1
143,141.10,141.26,1
139,141.05,141.23,1
142,141.07,141.24,1
143,141.11,141.26,1
143,141.15,141.28,2
142,141.17,141.28,2
142,141.18,141.29,3
141,141.18,141.29,3
142,141.20,141.29,4
141,141.19,141.29,4
144,141.25,141.32,5
143,141.28,141.34,5
143,141.32,141.35,6
143,141.35,141.37,6
145,141.42,141.41,7
143,141.46,141.42,7
145,141.53,141.46,8
143,141.56,141.47,8
147,141.66,141.53,8
147,141.77,141.58,8
146,141.86,141.63,8
147,141.96,141.68,8
147,142.06,141.73,8
147,142.16,141.79,8
147,142.26,141.84,8
149,142.39,141.91,8
147,142.48,141.96,8
150,142.63,142.04,8
148,142.74,142.10,8
149,142.87,142.17,8
151,143.03,142.26,8
149,143.15,142.33,8
149,143.26,142.39,8
149,143.38,142.46,8
151,143.53,142.54,8
151,143.68,142.63,8
151,143.83,142.71,8
150,143.95,142.78,8
153,144.13,142.89,8
151,144.27,142.97,8
151,144.40,143.05,8
152,144.56,143.14,8
151,144.68,143.22,8
152,144.83,143.30,8
153,144.99,143.40,8
151,145.11,143.48,8
151,145.23,143.55,8
153,145.39,143.65,8
154,145.56,143.75,8
156,145.77,143.87,8
154,145.93,143.97,8
156,146.13,144.09,8
155,146.31,144.20,8
157,146.53,144.33,8
157,146.74,144.46,8
157,146.94,144.58,8
157,147.14,144.71,8
159,147.38,144.85,8
157,147.57,144.97,8
159,147.80,145.11,8
157,147.98,145.23,8
158,148.18,145.36,8
159,148.40,145.50,8
158,148.59,145.62,8
157,148.76,145.73,8
159,148.97,145.87,8
160,149.19,146.01,8
158,149.36,146.13,8
158,149.54,146.25,8
159,149.72,146.37,8
159,149.91,146.50,8
159,150.09,146.63,8
161,150.31,146.77,8
159,150.48,146.89,8
163,150.73,147.05,8
162,150.96,147.20,8
161,151.16,147.34,8
164,151.42,147.51,8
165,151.69,147.68,8
166,151.97,147.87,8
165,152.24,148.04,8
165,152.49,148.21,8
166,152.76,148.38,8
165,153.01,148.55,8
165,153.25,148.71,8
169,153.56,148.92,8
171,153.91,149.14,8
169,154.21,149.34,8
171,154.55,149.55,8
170,154.86,149.76,8
171,155.18,149.97,8
172,155.52,150.19,8
173,155.87,150.42,8
173,156.21,150.64,8
171,156.50,150.85,8
176,156.89,151.10,8
173,157.22,151.32,8
171,157.49,151.52,8
171,157.76,151.71,8
173,158.07,151.92,8
172,158.35,152.12,8
171,158.60,152.31,8
173,158.89,152.52,8
174,159.19,152.73,8
174,159.48,152.95,8
173,159.76,153.15,8
175,160.06,153.37,8
176,160.38,153.59,8
175,160.67,153.81,8
175,160.96,154.02,8
175,161.24,154.23,8
173,161.47,154.42,8
175,161.74,154.62,8
175,162.01,154.83,8
177,162.31,155.05,8
177,162.60,155.27,8
177,162.89,155.48,8
181,163.25,155.74,8
184,163.67,156.02,8
183,164.05,156.29,8
183,164.43,156.56,8
183,164.81,156.82,8
182,165.15,157.08,8
184,165.53,157.34,8
187,165.96,157.64,8
188,166.40,157.94,8
187,166.81,158.24,8
189,167.25,158.54,8
192,167.75,158.88,8
190,168.19,159.19,8
189,168.61,159.49,8
191,169.06,159.80,8
189,169.46,160.09,8
189,169.85,160.38,8
190,170.25,160.68,8
193,170.70,161.00,8
193,171.15,161.32,8
194,171.61,161.65,8
196,172.09,161.99,8
194,172.53,162.31,8
196,173.00,162.65,8
199,173.52,163.01,8
201,174.07,163.39,8
200,174.59,163.76,8
200,175.10,164.12,8
200,175.60,164.48,8
201,176.10,164.85,8
202,176.62,165.22,8
204,177.17,165.60,8
203,177.69,165.98,8
201,178.15,166.33,8
201,178.61,166.68,8
202,179.08,167.03,8
203,179.56,167.39,8
203,180.03,167.74,8
201,180.44,168.08,8
203,180.90,168.43,8
205,181.38,168.79,8
203,181.81,169.13,8
205,182.27,169.49,8
204,182.71,169.84,8
204,183.13,170.18,8
205,183.57,170.53,8
205,184.00,170.87,8
205,184.42,171.21,8
207,184.87,171.57,8
209,185.35,171.95,8
207,185.79,172.30,8
207,186.21,172.64,8
208,186.65,173.00,8
211,187.13,173.38,8
208,187.55,173.72,8
209,187.98,174.08,8
209,188.40,174.43,8
209,188.81,174.77,8
209,189.22,175.11,8
211,189.65,175.47,8
211,190.08,175.83,8
211,190.50,176.18,8
211,190.91,176.53,8
211,191.31,176.87,8
211,191.70,177.21,8
212,192.11,177.56,8
213,192.53,177.92,8
217,193.02,178.31,8
214,193.44,178.66,8
220,193.97,179.08,8
220,194.49,179.49,8
219,194.98,179.88,8
218,195.44,180.26,8
219,195.91,180.65,8
221,196.41,181.05,8
219,196.86,181.43,8
221,197.35,181.83,8
219,197.78,182.20,8
220,198.22,182.58,8
219,198.64,182.94,8
220,199.07,183.31,8
219,199.47,183.67,8
220,199.88,184.03,8
219,200.26,184.38,8
220,200.65,184.74,8
219,201.02,185.08,8
219,201.38,185.42,8
219,201.73,185.76,8
221,202.12,186.11,8
221,202.50,186.46,8
220,202.85,186.79,8
222,203.23,187.15,8
224,203.64,187.51,8
227,204.11,187.91,8
227,204.57,188.30,8
226,205.00,188.68,8
225,205.40,189.04,8
229,205.87,189.44,8
231,206.37,189.86,8
231,206.86,190.27,8
230,207.33,190.66,8
231,207.80,191.07,8
229,208.22,191.45,8
233,208.72,191.86,8
235,209.25,192.29,8
233,209.72,192.70,8
236,210.25,193.13,8
239,210.82,193.59,8
239,211.39,194.05,8
239,211.94,194.50,8
239,212.48,194.94,8
238,212.99,195.37,8
240,213.53,195.82,8
241,214.08,196.27,8
241,214.62,196.72,8
240,215.13,197.15,8
241,215.64,197.59,8
241,216.15,198.02,8
239,216.61,198.43,8
241,217.09,198.86,8
240,217.55,199.27,8
240,218.00,199.68,8
241,218.46,200.09,8
242,218.93,200.51,8
243,219.41,200.93,8
242,219.87,201.34,8
241,220.29,201.74,8
246,220.80,202.18,8
241,221.21,202.57,8
240,221.58,202.95,8
240,221.95,203.32,8
241,222.33,203.69,8
243,222.74,204.09,8
243,223.15,204.48,8
242,223.53,204.85,8
243,223.92,205.23,8
242,224.28,205.60,8
242,224.63,205.96,8
241,224.96,206.31,8
243,225.32,206.68,8
242,225.65,207.03,8
241,225.96,207.37,8
242,226.28,207.72,8
240,226.56,208.04,8
241,226.85,208.37,8
241,227.13,208.70,8
241,227.41,209.02,8
241,227.68,209.34,8
241,227.94,209.66,8
242,228.23,209.98,8
242,228.50,210.30,8
242,228.77,210.62,8
242,229.04,210.93,8
241,229.27,211.23,8
241,229.51,211.53,8
241,229.74,211.83,8
242,229.98,212.13,8
240,230.18,212.41,8
242,230.42,212.70,8
241,230.63,212.99,8
241,230.84,213.27,8
241,231.04,213.54,8
240,231.22,213.81,8
241,231.42,214.08,8
240,231.59,214.34,8
239,231.74,214.59,8
239,231.88,214.83,8
239,232.03,215.07,8
239,232.16,215.31,8
239,232.30,215.55,8
237,232.40,215.76,8
238,232.51,215.98,8
237,232.60,216.19,8
237,232.69,216.40,8
237,232.77,216.61,8
237,232.86,216.81,8
237,232.94,217.01,8
237,233.02,217.21,8
239,233.14,217.43,8
237,233.22,217.63,8
237,233.29,217.82,8
236,233.35,218.00,8
240,233.48,218.22,8
235,233.51,218.39,8
236,233.56,218.57,8
235,233.59,218.73,8
235,233.62,218.89,8
235,233.64,219.05,8
235,233.67,219.21,8
234,233.68,219.36,8
235,233.70,219.52,8
233,233.69,219.65,8
233,233.68,219.79,8
233,233.66,219.92,8
233,233.65,220.05,8
233,233.64,220.18,8
232,233.60,220.30,8
231,233.55,220.40,8
231,233.50,220.51,8
231,233.45,220.62,8
231,233.40,220.72,8
231,233.35,220.82,8
231,233.31,220.92,8
230,233.24,221.01,8
229,233.16,221.09,8
230,233.09,221.18,8
229,233.01,221.26,8
230,232.95,221.35,8
228,232.85,221.42,8
228,232.76,221.48,8
229,232.68,221.56,8
227,232.57,221.61,8
227,232.45,221.66,8
227,232.35,221.72,8
227,232.24,221.77,8
226,232.11,221.81,8
227,232.01,221.87,8
225,231.87,221.90,8
225,231.73,221.93,8
226,231.62,221.97,8
225,231.49,222.00,8
225,231.36,222.03,8
226,231.25,222.07,8
225,231.13,222.10,8
225,231.00,222.13,8
223,230.84,222.14,8
224,230.71,222.15,8
224,230.57,222.17,8
223,230.42,222.18,8
224,230.29,222.20,8
222,230.13,222.20,8
221,229.94,222.19,8
222,229.78,222.18,8
221,229.61,222.17,8
221,229.44,222.16,8
220,229.25,222.14,8
220,229.06,222.12,8
221,228.90,222.11,8
219,228.70,222.07,8
221,228.55,222.06,8
219,228.36,222.03,8
219,228.17,222.00,8
218,227.97,221.96,8
218,227.77,221.92,8
217,227.55,221.87,8
217,227.34,221.83,8
217,227.14,221.78,8
217,226.93,221.73,8
217,226.73,221.68,8
216,226.52,221.63,8
216,226.31,221.57,8
216,226.10,221.51,8
215,225.88,221.45,8
215,225.66,221.38,8
215,225.45,221.32,8
215,225.24,221.26,8
215,225.04,221.19,8
215,224.84,221.13,8
213,224.60,221.05,8
213,224.37,220.97,8
213,224.14,220.89,8
213,223.92,220.81,8
213,223.70,220.73,8
212,223.46,220.65,8
212,223.24,220.56,8
211,222.99,220.46,8
211,222.75,220.37,8
212,222.54,220.29,8
211,222.30,220.19,8
211,222.08,220.10,8
211,221.86,220.01,8
211,221.64,219.92,8
209,221.39,219.81,8
208,221.12,219.69,8
209,220.88,219.59,8
209,220.64,219.48,8
211,220.45,219.39,8
209,220.22,219.29,8
208,219.97,219.18,8
207,219.71,219.06,8
207,219.46,218.94,8
207,219.21,218.82,8
207,218.97,218.70,8
206,218.71,218.57,8
207,218.47,218.46,9
207,218.24,218.34,9
206,218.00,218.22,9
205,217.74,218.09,9
205,217.48,217.95,9
205,217.23,217.83,9
205,216.99,217.70,9
204,216.73,217.56,9
201,216.42,217.39,9
203,216.15,217.25,9
205,215.92,217.13,9
203,215.67,216.99,9
203,215.41,216.85,9
203,215.16,216.71,9
203,214.92,216.57,9
202,214.66,216.43,9
202,214.41,216.28,9
201,214.14,216.13,9
201,213.88,215.98,9
201,213.62,215.83,9
201,213.37,215.68,9
201,213.12,215.53,9
200,212.86,215.38,9
200,212.60,215.22,9
200,212.35,215.07,9
199,212.08,214.91,9
199,211.82,214.75,9
200,211.58,214.60,9
198,211.31,214.44,9
199,211.07,214.28,9
197,210.78,214.11,9
198,210.53,213.95,9
199,210.30,213.80,9
198,210.05,213.64,9
197,209.79,213.48,9
197,209.54,213.31,9
197,209.29,213.15,9
197,209.04,212.99,9
197,208.80,212.83,9
196,208.54,212.66,9
196,208.29,212.49,9
196,208.05,212.33,9
196,207.80,212.16,9
195,207.55,211.99,9
195,207.30,211.82,9
193,207.01,211.63,9
194,206.75,211.46,9
197,206.56,211.31,9
194,206.31,211.14,9
194,206.06,210.97,9
193,205.80,210.79,9
193,205.54,210.61,9
193,205.29,210.43,9
193,205.05,210.26,9
193,204.80,210.09,9
192,204.55,209.91,9
192,204.30,209.73,9
193,204.07,209.56,9
191,203.81,209.37,9
192,203.57,209.20,9
191,203.32,209.02,9
192,203.10,208.85,9
191,202.85,208.67,9
190,202.60,208.48,9
191,202.37,208.31,9
190,202.12,208.13,9
190,201.88,207.94,9
189,201.62,207.75,9
189,201.37,207.57,9
189,201.12,207.38,9
189,200.88,207.20,9
189,200.64,207.02,9
188,200.39,206.83,9
187,200.12,206.63,9
189,199.90,206.45,9
188,199.66,206.27,9
188,199.42,206.08,9
187,199.18,205.89,9
187,198.93,205.70,9
185,198.65,205.50,9
187,198.42,205.31,9
188,198.21,205.14,9
186,197.97,204.95,9
185,197.71,204.75,9
185,197.45,204.55,9
186,197.23,204.37,9
185,196.98,204.17,9
185,196.74,203.98,9
185,196.51,203.79,9
184,196.26,203.59,9
185,196.03,203.41,9
185,195.81,203.22,9
184,195.57,203.03,9
184,195.34,202.84,9
184,195.12,202.65,9
183,194.87,202.45,9
184,194.66,202.27,9
183,194.42,202.08,9
183,194.19,201.89,9
183,193.97,201.70,9
183,193.75,201.51,9
182,193.52,201.32,9
183,193.31,201.13,9
183,193.10,200.95,9
182,192.88,200.76,9
182,192.66,200.57,9
181,192.43,200.38,9
181,192.20,200.18,9
183,192.01,200.01,9
179,191.75,199.80,9
181,191.54,199.61,9
180,191.31,199.42,9
180,191.08,199.22,9
179,190.84,199.02,9
180,190.62,198.83,9
180,190.41,198.64,9
180,190.20,198.46,9
179,189.98,198.26,9
179,189.76,198.07,9
180,189.56,197.89,9
179,189.35,197.70,9
179,189.15,197.51,9
178,188.92,197.32,9
178,188.70,197.13,9
177,188.47,196.92,9
178,188.26,196.73,9
179,188.08,196.56,9
178,187.87,196.37,9
177,187.66,196.18,9
178,187.46,196.00,9
177,187.25,195.81,9
179,187.09,195.64,9
177,186.89,195.45,9
177,186.69,195.27,9
177,186.50,195.08,9
176,186.29,194.89,9
175,186.06,194.69,9
176,185.86,194.51,9
176,185.66,194.32,9
176,185.47,194.14,9
177,185.30,193.97,9
177,185.13,193.80,9
175,184.93,193.61,9
177,184.77,193.44,9
175,184.58,193.26,9
177,184.43,193.10,9
177,184.28,192.94,9
176,184.11,192.77,9
176,183.95,192.60,9
176,183.79,192.43,9
176,183.63,192.27,9
175,183.46,192.10,9
175,183.29,191.93,9
175,183.13,191.76,9
175,182.96,191.59,9
177,182.84,191.44,9
175,182.69,191.28,9
175,182.53,191.12,9
175,182.38,190.95,9
175,182.24,190.79,9
175,182.09,190.64,9
174,181.93,190.47,9
174,181.77,190.31,9
175,181.64,190.15,9
173,181.46,189.98,9
173,181.29,189.81,9
173,181.13,189.64,9
173,180.96,189.48,9
173,180.81,189.31,9
173,180.65,189.15,9
172,180.48,188.98,9
172,180.31,188.81,9
171,180.12,188.63,9
172,179.96,188.46,9
172,179.80,188.30,9
171,179.62,188.13,9
172,179.47,187.96,9
171,179.30,187.79,9
171,179.14,187.63,9
171,178.97,187.46,9
171,178.81,187.30,9
171,178.66,187.13,9
170,178.48,186.96,9
169,178.29,186.78,9
169,178.11,186.60,9
170,177.95,186.44,9
169,177.77,186.26,9
169,177.59,186.09,9
169,177.42,185.92,9
169,177.25,185.75,9
168,177.07,185.57,9
169,176.91,185.41,9
168,176.73,185.23,9
168,176.55,185.06,9
167,176.36,184.88,9
169,176.21,184.72,9
172,176.13,184.59,9
168,175.97,184.43,9
167,175.79,184.25,9
167,175.61,184.08,9
169,175.48,183.93,9
168,175.33,183.77,9
168,175.18,183.61,9
169,175.06,183.47,9
167,174.90,183.30,9
167,174.74,183.14,9
169,174.63,183.00,9
167,174.47,182.84,9
167,174.32,182.68,9
167,174.18,182.52,9
168,174.05,182.38,9
166,173.89,182.21,9
166,173.74,182.05,9
165,173.56,181.88,9
166,173.41,181.72,9
167,173.28,181.58,9
165,173.12,181.41,9
166,172.97,181.26,9
166,172.83,181.10,9
165,172.68,180.94,9
165,172.52,180.78,9
165,172.37,180.63,9
164,172.21,180.46,9
165,172.06,180.30,9
164,171.90,180.14,9
165,171.76,179.99,9
163,171.59,179.82,9
165,171.46,179.67,9
163,171.29,179.51,9
164,171.14,179.35,9
163,170.98,179.19,9
163,170.82,179.02,9
164,170.68,178.87,9
164,170.55,178.73,9
163,170.40,178.57,9
163,170.25,178.41,9
163,170.10,178.26,9
163,169.96,178.11,9
163,169.82,177.96,9
162,169.67,177.80,9
163,169.53,177.65,9
162,169.38,177.49,9
162,169.23,177.34,9
161,169.07,177.17,9
161,168.91,177.01,9
161,168.75,176.85,9
162,168.62,176.70,9
161,168.46,176.55,9
161,168.31,176.39,9
162,168.19,176.25,9
161,168.04,176.09,9
159,167.86,175.92,9
162,167.75,175.78,9
161,167.61,175.64,9
161,167.48,175.49,9
161,167.35,175.34,9
160,167.20,175.19,9
161,167.08,175.05,9
159,166.92,174.89,9
159,166.76,174.73,9
160,166.62,174.58,9
160,166.49,174.44,9
159,166.34,174.28,9
159,166.19,174.13,9
159,166.05,173.98,9
160,165.93,173.84,9
159,165.79,173.69,9
160,165.67,173.55,9
159,165.54,173.41,9
159,165.41,173.26,9
157,165.24,173.10,9
158,165.10,172.95,9
157,164.94,172.79,9
158,164.80,172.64,9
157,164.64,172.49,9
157,164.49,172.33,9
157,164.34,172.18,9
157,164.19,172.03,9
157,164.05,171.88,9
157,163.91,171.73,9
157,163.77,171.58,9
156,163.61,171.42,9
157,163.48,171.28,9
155,163.31,171.12,9
157,163.19,170.98,9
156,163.04,170.83,9
155,162.88,170.67,9
156,162.74,170.52,9
155,162.59,170.37,9
156,162.46,170.22,9
155,162.31,170.07,9
155,162.16,169.92,9
155,162.02,169.77,9
155,161.88,169.62,9
154,161.72,169.47,9
155,161.59,169.32,9
154,161.43,169.17,9
154,161.29,169.02,9
153,161.12,168.86,9
155,161.00,168.72,9
153,160.84,168.56,9
153,160.68,168.41,9
153,160.53,168.25,9
153,160.38,168.10,9
153,160.23,167.95,9
152,160.06,167.79,9
151,159.88,167.62,9
153,159.75,167.47,9
152,159.59,167.32,9
152,159.44,167.17,9
152,159.29,167.01,9
152,159.14,166.86,9
152,159.00,166.72,9
152,158.86,166.57,9
152,158.72,166.42,9
151,158.57,166.27,9
151,158.42,166.12,9
151,158.27,165.96,9
152,158.14,165.83,9
151,158.00,165.68,9
151,157.86,165.53,9
151,157.72,165.38,9
152,157.61,165.25,9
151,157.48,165.11,9
151,157.35,164.97,9
149,157.18,164.81,9
150,157.04,164.66,9
149,156.88,164.50,9
150,156.74,164.36,9
150,156.60,164.21,9
150,156.47,164.07,9
151,156.36,163.94,9
150,156.24,163.80,9
149,156.09,163.65,9
150,155.97,163.52,9
149,155.83,163.37,9
151,155.73,163.25,9
150,155.62,163.12,9
149,155.49,162.97,9
151,155.40,162.86,9
151,155.31,162.74,9
150,155.20,162.61,9
149,155.08,162.47,9
151,155.00,162.36,9
151,154.92,162.24,9
155,154.92,162.17,9
151,154.84,162.06,9
150,154.74,161.94,9
149,154.63,161.81,9
151,154.56,161.70,9
149,154.44,161.58,9
152,154.40,161.48,9
151,154.33,161.38,9
151,154.26,161.27,9
151,154.20,161.17,9
150,154.11,161.06,9
151,154.05,160.96,9
150,153.97,160.85,9
149,153.87,160.73,9
151,153.81,160.63,9
149,153.72,160.51,9
148,153.60,160.39,9
149,153.51,160.28,9
149,153.42,160.16,9
149,153.33,160.05,9
149,153.24,159.94,9
149,153.16,159.83,9
148,153.06,159.71,9
148,152.96,159.60,9
147,152.84,159.47,9
147,152.72,159.35,9
148,152.62,159.23,9
147,152.51,159.11,9
148,152.42,159.00,9
149,152.35,158.90,9
149,152.29,158.80,9
149,152.22,158.70,9
147,152.12,158.58,9
149,152.05,158.49,9
149,151.99,158.39,9
149,151.93,158.30,9
149,151.87,158.21,9
149,151.82,158.11,9
149,151.76,158.02,9
150,151.73,157.94,9
148,151.65,157.84,9
149,151.60,157.76,9
148,151.53,157.66,9
149,151.48,157.57,9
147,151.39,157.47,9
148,151.32,157.37,9
147,151.23,157.27,9
147,151.15,157.16,9
148,151.08,157.07,9
148,151.02,156.98,9
147,150.94,156.88,9
147,150.86,156.78,9
147,150.79,156.69,9
147,150.71,156.59,9
148,150.66,156.50,9
148,150.60,156.42,9
147,150.53,156.32,9
147,150.46,156.23,9
148,150.41,156.15,9
147,150.34,156.06,9
148,150.30,155.98,9
148,150.25,155.90,9
147,150.19,155.81,9
147,150.12,155.72,9
148,150.08,155.64,9
146,150.00,155.55,9
146,149.92,155.45,9
147,149.86,155.37,9
146,149.78,155.27,9
146,149.71,155.18,9
146,149.63,155.09,9
146,149.56,155.00,9
146,149.49,154.91,9
145,149.40,154.81,9
146,149.33,154.72,9
145,149.24,154.62,9
145,149.16,154.53,9
145,149.08,154.43,9
143,148.95,154.32,9
145,148.88,154.22,9
145,148.80,154.13,9
145,148.72,154.04,9
144,148.63,153.94,9
145,148.55,153.85,9
145,148.48,153.76,9
144,148.39,153.66,9
145,148.33,153.58,9
145,148.26,153.49,9
143,148.15,153.39,9
144,148.07,153.29,9
144,147.99,153.20,9
144,147.91,153.11,9
145,147.85,153.03,9
145,147.80,152.95,9
145,147.74,152.87,9
145,147.68,152.79,9
145,147.63,152.71,9
145,147.58,152.63,9
145,147.53,152.56,9
144,147.46,152.47,9
144,147.39,152.39,9
145,147.34,152.31,9
144,147.27,152.23,9
143,147.19,152.14,9
143,147.10,152.05,9
144,147.04,151.97,9
144,146.98,151.89,9
143,146.90,151.80,9
143,146.82,151.71,9
143,146.75,151.62,9
141,146.63,151.52,9
143,146.56,151.43,9
144,146.51,151.36,9
145,146.48,151.29,9
144,146.43,151.22,9
145,146.40,151.16,9
144,146.35,151.09,9
143,146.28,151.01,9
143,146.22,150.93,9
144,146.17,150.86,9
143,146.11,150.78,9
143,146.05,150.70,9
144,146.01,150.63,9
143,145.95,150.56,9
143,145.89,150.48,9
143,145.83,150.41,9
143,145.77,150.33,9
143,145.72,150.26,9
143,145.66,150.19,9
143,145.61,150.11,9
143,145.56,150.04,9
143,145.51,149.97,9
142,145.44,149.89,9
142,145.37,149.81,9
141,145.28,149.73,9
143,145.24,149.66,9
142,145.17,149.58,9
142,145.11,149.51,9
143,145.07,149.44,9
142,145.00,149.37,9
141,144.92,149.28,9
141,144.85,149.20,9
143,144.81,149.14,9
142,144.75,149.07,9
141,144.68,148.99,9
143,144.64,148.93,9
142,144.59,148.86,9
141,144.52,148.78,9
141,144.45,148.70,9
145,144.46,148.66,9
141,144.39,148.59,9
141,144.32,148.51,9
143,144.30,148.46,9
143,144.27,148.40,9
141,144.21,148.33,9
141,144.14,148.25,9
141,144.08,148.18,9
140,144.00,148.10,9
141,143.94,148.03,9
141,143.88,147.96,9
140,143.80,147.88,9
141,143.74,147.81,9
141,143.69,147.74,9
141,143.64,147.67,9
141,143.58,147.61,9
140,143.51,147.53,9
140,143.44,147.46,9
141,143.39,147.39,9
139,143.30,147.31,9
140,143.24,147.23,9
139,143.15,147.15,9
140,143.09,147.08,9
139,143.01,147.00,9
140,142.95,146.93,9
140,142.89,146.86,9
140,142.83,146.79,9
139,142.76,146.71,9
141,142.72,146.66,9
141,142.69,146.60,9
141,142.65,146.54,9
143,142.66,146.51,9
141,142.63,146.45,9
143,142.63,146.42,9
143,142.64,146.39,9
143,142.65,146.35,9
145,142.69,146.34,9
145,142.74,146.32,9
145,142.79,146.31,9
147,142.87,146.32,9
143,142.87,146.29,9
145,142.92,146.27,9
144,142.94,146.25,9
143,142.94,146.22,9
145,142.98,146.20,9
145,143.02,146.19,9
144,143.04,146.17,9
145,143.08,146.16,9
145,143.12,146.15,9
145,143.16,146.14,9
144,143.17,146.11,9
143,143.17,146.08,9
144,143.19,146.06,9
145,143.22,146.05,9
144,143.24,146.03,9
144,143.25,146.01,9
145,143.29,146.00,9
145,143.32,145.99,9
143,143.32,145.96,9
143,143.31,145.93,9
143,143.30,145.90,9
143,143.30,145.87,9
145,143.33,145.86,9
144,143.34,145.85,9
145,143.38,145.84,9
145,143.41,145.83,9
145,143.44,145.82,9
147,143.51,145.83,9
147,143.58,145.84,9
145,143.61,145.84,9
147,143.68,145.85,9
147,143.74,145.86,9
145,143.77,145.85,9
145,143.79,145.84,9
145,143.82,145.83,9
145,143.84,145.83,9
145,143.87,145.82,9
145,143.89,145.81,9
146,143.93,145.81,9
145,143.95,145.80,9
145,143.97,145.79,9
145,143.99,145.79,9
145,144.01,145.78,9
143,143.99,145.75,9
145,144.01,145.74,9
146,144.05,145.75,9
145,144.07,145.74,9
145,144.09,145.73,9
145,144.11,145.72,9
145,144.13,145.72,9
145,144.14,145.71,9
145,144.16,145.70,9
144,144.16,145.69,9
144,144.15,145.67,9
147,144.21,145.68,9
145,144.23,145.67,9
145,144.24,145.67,9
145,144.26,145.66,9
143,144.23,145.63,9
144,144.23,145.62,9
145,144.24,145.61,9
144,144.24,145.60,9
145,144.25,145.59,9
145,144.27,145.58,9
145,144.28,145.58,9
145,144.30,145.57,9
146,144.33,145.58,9
145,144.35,145.57,9
145,144.36,145.57,9
145,144.37,145.56,9
144,144.36,145.54,9
145,144.38,145.54,9
145,144.39,145.53,9
145,144.40,145.53,9
145,144.41,145.52,9
145,144.42,145.52,9
145,144.44,145.51,9
146,144.47,145.52,9
146,144.50,145.52,9
145,144.51,145.52,9
145,144.52,145.51,9
145,144.53,145.51,9
145,144.54,145.50,9
148,144.61,145.53,9
146,144.63,145.53,9
147,144.68,145.55,9
147,144.73,145.56,9
147,144.77,145.57,9
147,144.82,145.59,9
149,144.90,145.62,9
150,145.00,145.67,9
148,145.06,145.69,9
149,145.14,145.72,9
148,145.20,145.75,9
148,145.26,145.77,9
147,145.29,145.78,9
148,145.34,145.80,9
147,145.38,145.82,9
149,145.45,145.85,9
148,145.50,145.87,9
149,145.57,145.90,9
148,145.62,145.92,9
148,145.67,145.94,9
148,145.71,145.96,9
149,145.78,145.99,9
149,145.84,146.02,9
149,145.91,146.05,9
151,146.01,146.10,10
149,146.07,146.13,10
150,146.15,146.17,11
150,146.22,146.21,11
151,146.32,146.26,12
151,146.41,146.30,12
151,146.51,146.35,12
151,146.60,146.40,12
151,146.68,146.44,12
152,146.79,146.50,12
152,146.89,146.55,12
151,146.98,146.60,12
151,147.06,146.64,12
153,147.18,146.71,12
151,147.25,146.75,12
152,147.35,146.80,12
153,147.46,146.86,12
153,147.57,146.92,12
153,147.68,146.99,12
153,147.79,147.05,12
156,147.95,147.13,12
154,148.07,147.20,12
155,148.21,147.28,12
157,148.39,147.38,12
158,148.58,147.48,12
156,148.73,147.57,12
157,148.89,147.66,12
158,149.07,147.77,12
158,149.25,147.87,12
158,149.43,147.97,12
157,149.58,148.06,12
158,149.75,148.16,12
157,149.89,148.25,12
159,150.07,148.36,12
158,150.23,148.45,12
159,150.41,148.56,12
159,150.58,148.66,12
159,150.75,148.77,12
159,150.91,148.87,12
159,151.08,148.97,12
160,151.25,149.08,12
162,151.47,149.21,12
162,151.68,149.34,12
160,151.85,149.44,12
161,152.03,149.56,12
160,152.19,149.66,12
162,152.38,149.79,12
159,152.52,149.88,12
161,152.69,149.99,12
161,152.85,150.10,12
162,153.04,150.22,12
161,153.19,150.33,12
161,153.35,150.43,12
161,153.50,150.54,12
163,153.69,150.66,12
162,153.86,150.78,12
163,154.04,150.90,12
166,154.28,151.05,12
165,154.50,151.19,12
166,154.73,151.34,12
166,154.95,151.49,12
166,155.17,151.63,12
165,155.37,151.76,12
166,155.58,151.91,12
165,155.77,152.04,12
164,155.94,152.16,12
165,156.12,152.29,12
166,156.31,152.42,12
165,156.49,152.55,12
163,156.62,152.65,12
165,156.79,152.78,12
165,156.95,152.90,12
165,157.11,153.02,12
166,157.29,153.15,12
166,157.46,153.28,12
168,157.67,153.43,12
166,157.84,153.55,12
167,158.02,153.69,12
166,158.18,153.81,12
167,158.36,153.94,12
167,158.53,154.07,12
167,158.70,154.20,12
167,158.87,154.33,12
167,159.03,154.46,12
167,159.19,154.58,12
170,159.41,154.73,12
169,159.60,154.88,12
170,159.81,155.03,12
171,160.03,155.19,12
172,160.27,155.36,12
172,160.50,155.52,12
174,160.77,155.71,12
175,161.06,155.90,12
173,161.30,156.07,12
174,161.55,156.25,12
176,161.84,156.45,12
177,162.14,156.65,12
178,162.46,156.87,12
182,162.85,157.12,12
183,163.25,157.38,12
183,163.65,157.63,12
184,164.06,157.90,12
189,164.55,158.21,12
191,165.08,158.54,12
190,165.58,158.85,12
190,166.07,159.16,12
192,166.59,159.49,12
192,167.10,159.82,12
190,167.56,160.12,12
195,168.10,160.47,12
197,168.68,160.83,12
200,169.31,161.22,12
199,169.90,161.60,12
202,170.54,162.01,12
206,171.25,162.45,12
207,171.97,162.89,12
203,172.59,163.29,12
207,173.28,163.73,12
211,174.03,164.20,12
211,174.77,164.67,12
210,175.48,165.12,12
214,176.25,165.61,12
216,177.04,166.12,12
216,177.82,166.61,12
214,178.54,167.09,12
215,179.27,167.57,12
216,180.01,168.05,12
215,180.71,168.52,12
216,181.41,169.00,12
216,182.11,169.47,12
218,182.82,169.95,12
221,183.59,170.46,12
219,184.29,170.95,12
219,184.99,171.43,12
221,185.71,171.92,12
220,186.39,172.40,12
219,187.05,172.87,12
218,187.67,173.32,12
218,188.27,173.77,12
220,188.91,174.23,12
219,189.51,174.68,12
218,190.08,175.11,12
220,190.68,175.56,12
219,191.24,176.00,12
220,191.82,176.44,12
220,192.38,176.87,12
219,192.91,177.29,12
220,193.46,177.72,12
222,194.03,178.16,12
222,194.59,178.60,12
221,195.12,179.02,12
224,195.69,179.47,12
223,196.24,179.91,12
223,196.77,180.34,12
226,197.36,180.80,12
228,197.97,181.27,12
226,198.53,181.72,12
226,199.08,182.16,12
225,199.60,182.59,12
225,200.11,183.01,12
227,200.65,183.45,12
226,201.15,183.88,12
226,201.65,184.30,12
226,202.14,184.72,12
225,202.59,185.12,12
225,203.04,185.52,12
223,203.44,185.89,12
225,203.87,186.28,12
224,204.28,186.66,12
225,204.69,187.04,12
225,205.10,187.42,12
224,205.47,187.79,12
224,205.84,188.15,12
224,206.21,188.51,12
224,206.56,188.86,12
223,206.89,189.21,12
223,207.21,189.54,12
223,207.53,189.88,12
225,207.88,190.23,12
224,208.20,190.57,12
224,208.52,190.90,12
223,208.81,191.22,12
222,209.07,191.53,12
223,209.35,191.84,12
222,209.60,192.15,12
221,209.83,192.43,12
222,210.07,192.73,12
221,210.29,193.01,12
220,210.49,193.28,12
220,210.68,193.55,12
219,210.84,193.80,12
221,211.05,194.08,12
218,211.19,194.32,12
219,211.34,194.56,12
218,211.48,194.80,12
218,211.61,195.03,12
218,211.73,195.26,12
217,211.84,195.48,12
217,211.94,195.69,12
216,212.02,195.89,12
215,212.08,196.09,12
214,212.12,196.26,12
216,212.20,196.46,12
216,212.27,196.66,12
216,212.35,196.85,12
215,212.40,197.03,12
215,212.45,197.21,12
215,212.51,197.39,12
215,212.56,197.57,12
214,212.58,197.73,12
213,212.59,197.88,12
213,212.60,198.03,12
213,212.61,198.18,12
212,212.60,198.32,12
212,212.58,198.46,12
212,212.57,198.59,12
212,212.56,198.73,12
211,212.53,198.85,12
210,212.48,198.96,12
211,212.45,199.08,12
210,212.40,199.19,12
210,212.35,199.30,12
209,212.29,199.40,12
209,212.22,199.49,12
209,212.16,199.59,12
208,212.07,199.67,12
209,212.01,199.77,12
207,211.91,199.84,12
206,211.79,199.90,12
207,211.70,199.97,12
207,211.60,200.04,12
207,211.51,200.11,12
208,211.44,200.19,12
207,211.35,200.26,12
207,211.26,200.33,12
206,211.16,200.38,12
204,211.02,200.42,12
206,210.92,200.47,12
205,210.80,200.52,12
205,210.68,200.56,12
206,210.59,200.62,12
206,210.50,200.67,12
205,210.39,200.72,12
205,210.28,200.76,12
204,210.15,200.79,12
203,210.01,200.81,12
204,209.89,200.84,12
204,209.77,200.88,12
205,209.68,200.92,12
204,209.56,200.95,12
202,209.41,200.96,12
203,209.28,200.98,12
202,209.14,200.99,12
201,208.98,200.99,12
201,208.82,200.99,12
201,208.66,200.99,12
201,208.51,200.99,12
202,208.38,201.00,12
200,208.21,200.99,12
200,208.04,200.98,12
200,207.88,200.97,12
199,207.71,200.95,12
199,207.53,200.93,12
199,207.36,200.91,12
200,207.21,200.90,12
198,207.03,200.87,12
199,206.87,200.85,12
198,206.69,200.83,12
198,206.52,200.80,12
198,206.35,200.77,12
197,206.16,200.73,12
196,205.96,200.69,12
196,205.76,200.64,12
197,205.58,200.60,12
197,205.41,200.57,12
197,205.24,200.53,12
196,205.06,200.48,12
195,204.86,200.43,12
197,204.70,200.40,12
197,204.55,200.36,12
196,204.38,200.32,12
194,204.17,200.25,12
195,203.98,200.20,12
195,203.80,200.15,12
194,203.61,200.09,12
194,203.42,200.03,12
194,203.23,199.97,12
195,203.06,199.92,12
193,202.86,199.85,12
192,202.64,199.77,12
192,202.43,199.69,12
195,202.28,199.65,12
191,202.06,199.56,12
192,201.86,199.48,12
192,201.66,199.41,12
194,201.51,199.35,12
191,201.30,199.27,12
191,201.09,199.19,12
190,200.87,199.10,12
191,200.67,199.02,12
191,200.48,198.94,12
190,200.27,198.85,12
192,200.10,198.78,12
191,199.92,198.70,12
190,199.72,198.61,12
189,199.51,198.52,12
190,199.32,198.43,12
190,199.13,198.35,12
189,198.93,198.25,12
189,198.73,198.16,12
189,198.54,198.07,12
188,198.32,197.97,12
189,198.14,197.88,12
188,197.94,197.78,12
188,197.74,197.68,13
187,197.52,197.58,13
186,197.29,197.46,13
190,197.15,197.39,13
187,196.94,197.28,13
187,196.74,197.18,13
186,196.53,197.07,13
186,196.32,196.96,13
186,196.11,196.85,13
186,195.91,196.74,13
185,195.69,196.62,13
184,195.46,196.49,13
184,195.23,196.37,13
184,195.00,196.25,13
185,194.80,196.13,13
184,194.59,196.01,13
184,194.38,195.89,13
184,194.17,195.77,13
183,193.95,195.65,13
182,193.71,195.51,13
182,193.47,195.37,13
183,193.26,195.25,13
183,193.06,195.13,13
181,192.82,194.99,13
182,192.60,194.86,13
183,192.41,194.74,13
183,192.22,194.62,13
181,192.00,194.48,13
181,191.78,194.35,13
181,191.56,194.22,13
182,191.37,194.09,13
179,191.12,193.94,13
181,190.92,193.81,13
181,190.72,193.69,13
180,190.51,193.55,13
179,190.28,193.40,13
180,190.07,193.27,13
180,189.87,193.14,13
179,189.65,193.00,13
178,189.42,192.85,13
178,189.19,192.70,13
178,188.97,192.55,13
178,188.75,192.40,13
177,188.51,192.25,13
178,188.30,192.11,13
177,188.08,191.96,13
177,187.85,191.81,13
176,187.62,191.65,13
177,187.41,191.50,13
176,187.18,191.35,13
175,186.93,191.18,13
175,186.69,191.02,13
177,186.50,190.88,13
176,186.29,190.73,13
175,186.07,190.58,13
175,185.84,190.42,13
175,185.63,190.27,13
174,185.39,190.10,13
174,185.17,189.94,13
174,184.94,189.78,13
174,184.72,189.62,13
175,184.53,189.48,13
174,184.32,189.32,13
172,184.07,189.15,13
174,183.87,189.00,13
173,183.65,188.84,13
173,183.44,188.68,13
172,183.21,188.51,13
173,183.01,188.36,13
172,182.79,188.20,13
172,182.57,188.03,13
172,182.36,187.87,13
171,182.13,187.70,13
171,181.91,187.54,13
171,181.69,187.37,13
171,181.48,187.21,13
170,181.25,187.04,13
170,181.02,186.87,13
169,180.78,186.69,13
170,180.57,186.52,13
168,180.32,186.33,13
169,180.09,186.16,13
169,179.87,185.99,13
169,179.65,185.82,13
168,179.42,185.64,13
168,179.19,185.47,13
168,178.97,185.29,13
167,178.73,185.11,13
166,178.47,184.92,13
166,178.22,184.73,13
167,178.00,184.55,13
165,177.74,184.35,13
167,177.52,184.18,13
166,177.29,184.00,13
166,177.07,183.82,13
166,176.85,183.64,13
165,176.61,183.45,13
166,176.40,183.28,13
165,176.17,183.10,13
166,175.97,182.93,13
165,175.75,182.75,13
166,175.55,182.58,13
165,175.34,182.40,13
165,175.13,182.23,13
165,174.93,182.06,13
165,174.73,181.89,13
165,174.54,181.72,13
164,174.33,181.54,13
164,174.12,181.37,13
164,173.92,181.19,13
164,173.72,181.02,13
164,173.53,180.85,13
162,173.29,180.66,13
164,173.11,180.49,13
164,172.93,180.33,13
164,172.75,180.17,13
163,172.55,179.99,13
163,172.36,179.82,13
163,172.17,179.66,13
163,171.99,179.49,13
163,171.81,179.33,13
162,171.62,179.15,13
162,171.42,178.98,13
162,171.23,178.81,13
161,171.03,178.63,13
161,170.83,178.46,13
161,170.63,178.28,13
161,170.44,178.11,13
161,170.25,177.94,13
161,170.07,177.77,13
161,169.88,177.60,13
159,169.67,177.41,13
160,169.47,177.24,13
160,169.28,177.07,13
159,169.08,176.89,13
159,168.88,176.71,13
158,168.66,176.52,13
159,168.47,176.35,13
159,168.28,176.17,13
159,168.09,176.00,13
159,167.91,175.83,13
159,167.73,175.66,13
158,167.54,175.49,13
155,167.29,175.28,13
158,167.10,175.11,13
158,166.92,174.94,13
158,166.74,174.77,13
158,166.57,174.60,13
157,166.37,174.42,13
157,166.19,174.25,13
158,166.02,174.09,13
158,165.86,173.93,13
158,165.71,173.77,13
156,165.51,173.59,13
161,165.42,173.46,13
158,165.27,173.31,13
157,165.11,173.15,13
157,164.94,172.98,13
156,164.77,172.81,13
155,164.57,172.64,13
156,164.40,172.47,13
155,164.21,172.30,13
156,164.05,172.13,13
156,163.89,171.97,13
156,163.73,171.81,13
155,163.55,171.64,13
155,163.38,171.48,13
155,163.21,171.31,13
155,163.05,171.15,13
155,162.89,170.99,13
154,162.71,170.82,13
155,162.56,170.66,13
155,162.41,170.50,13
155,162.26,170.35,13
154,162.09,170.18,13
154,161.93,170.02,13
154,161.77,169.86,13
154,161.62,169.70,13
152,161.42,169.53,13
153,161.26,169.36,13
153,161.09,169.20,13
153,160.93,169.04,13
153,160.77,168.88,13
153,160.62,168.72,13
153,160.46,168.56,13
154,160.33,168.41,13
154,160.21,168.27,13
153,160.06,168.12,13
154,159.94,167.98,13
153,159.80,167.83,13
153,159.67,167.68,13
152,159.51,167.52,13
153,159.38,167.38,13
153,159.26,167.23,13
153,159.13,167.09,13
153,159.01,166.95,13
153,158.89,166.81,13
152,158.75,166.66,13
153,158.64,166.52,13
152,158.50,166.38,13
152,158.37,166.24,13
152,158.24,166.09,13
151,158.10,165.94,13
151,157.96,165.79,13
151,157.82,165.65,13
150,157.66,165.49,13
150,157.51,165.33,13
151,157.38,165.19,13
150,157.23,165.04,13
150,157.09,164.89,13
150,156.95,164.74,13
150,156.81,164.59,13
150,156.67,164.45,13
149,156.52,164.29,13
149,156.37,164.14,13
148,156.20,163.98,13
149,156.06,163.83,13
149,155.91,163.68,13
148,155.76,163.52,13
148,155.60,163.37,13
147,155.43,163.20,13
148,155.28,163.05,13
148,155.13,162.90,13
147,154.97,162.74,13
150,154.87,162.61,13
146,154.69,162.45,13
147,154.54,162.29,13
147,154.39,162.14,13
147,154.24,161.99,13
146,154.08,161.83,13
146,153.92,161.67,13
146,153.76,161.51,13
145,153.58,161.35,13
146,153.43,161.20,13
146,153.28,161.04,13
145,153.12,160.88,13
145,152.95,160.72,13
145,152.80,160.57,13
145,152.64,160.41,13
145,152.49,160.26,13
145,152.34,160.11,13
145,152.19,159.95,13
144,152.03,159.79,13
144,151.87,159.64,13
144,151.71,159.48,13
143,151.53,159.32,13
143,151.36,159.15,13
142,151.18,158.98,13
144,151.03,158.83,13
143,150.87,158.67,13
143,150.71,158.52,13
143,150.56,158.36,13
143,150.41,158.21,13
143,150.26,158.06,13
143,150.12,157.90,13
143,149.97,157.76,13
143,149.83,157.61,13
143,149.70,157.46,13
143,149.56,157.32,13
144,149.45,157.18,13
142,149.30,157.03,13
141,149.14,156.87,13
142,148.99,156.72,13
141,148.83,156.57,13
142,148.70,156.42,13
141,148.54,156.27,13
142,148.41,156.12,13
141,148.26,155.97,13
141,148.12,155.82,13
141,147.98,155.67,13
141,147.84,155.53,13
142,147.72,155.39,13
141,147.59,155.25,13
141,147.45,155.11,13
140,147.31,154.95,13
141,147.18,154.82,13
141,147.06,154.68,13
141,146.93,154.54,13
141,146.82,154.40,13
141,146.70,154.27,13
141,146.59,154.14,13
140,146.45,154.00,13
140,146.32,153.86,13
141,146.22,153.73,13
140,146.09,153.59,13
140,145.97,153.46,13
140,145.85,153.32,13
139,145.72,153.18,13
141,145.62,153.06,13
139,145.49,152.92,13
140,145.38,152.79,13
140,145.27,152.66,13
139,145.15,152.52,13
140,145.04,152.40,13
140,144.94,152.27,13
139,144.82,152.14,13
138,144.69,152.00,13
139,144.57,151.87,13
139,144.46,151.74,13
138,144.33,151.60,13
138,144.21,151.47,13
139,144.10,151.34,13
140,144.02,151.23,13
138,143.90,151.10,13
138,143.78,150.96,13
138,143.67,150.84,13
137,143.53,150.70,13
137,143.40,150.56,13
138,143.29,150.43,13
137,143.17,150.30,13
137,143.04,150.17,13
137,142.92,150.04,13
137,142.81,149.90,13
136,142.67,149.77,13
137,142.56,149.64,13
137,142.44,149.51,13
137,142.34,149.39,13
137,142.23,149.26,13
136,142.10,149.13,13
136,141.98,149.00,13
137,141.88,148.88,13
136,141.77,148.75,13
136,141.65,148.62,13
137,141.56,148.51,13
136,141.45,148.38,13
137,141.36,148.27,13
135,141.23,148.13,13
135,141.11,148.00,13
136,141.00,147.88,13
135,140.88,147.75,13
135,140.77,147.63,13
136,140.67,147.51,13
136,140.58,147.40,13
137,140.51,147.29,13
135,140.39,147.17,13
135,140.29,147.05,13
135,140.18,146.93,13
136,140.10,146.82,13
136,140.02,146.71,13
135,139.92,146.59,13
135,139.82,146.48,13
136,139.74,146.37,13
137,139.69,146.28,13
135,139.59,146.16,13
135,139.50,146.05,13
139,139.49,145.98,13
136,139.42,145.88,13
136,139.35,145.78,13
136,139.29,145.69,13
136,139.22,145.59,13
137,139.18,145.50,13
137,139.13,145.42,13
136,139.07,145.32,13
136,139.01,145.23,13
137,138.97,145.15,13
137,138.93,145.07,13
137,138.89,144.99,13
139,138.89,144.93,13
138,138.87,144.86,13
138,138.86,144.79,13
139,138.86,144.73,13
139,138.86,144.67,13
139,138.86,144.62,13
139,138.87,144.56,13
137,138.83,144.49,13
140,138.85,144.44,13
140,138.88,144.40,13
138,138.86,144.33,13
140,138.88,144.29,13
139,138.88,144.24,13
139,138.89,144.18,13
139,138.89,144.13,13
139,138.89,144.08,13
139,138.89,144.03,13
140,138.92,143.99,13
139,138.92,143.94,13
139,138.92,143.89,13
140,138.94,143.85,13
139,138.94,143.80,13
139,138.94,143.75,13
140,138.96,143.72,13
141,139.00,143.69,13
141,139.04,143.66,13
139,139.04,143.62,13
139,139.04,143.57,13
139,139.04,143.52,13
140,139.06,143.49,13
140,139.08,143.45,13
140,139.10,143.42,13
140,139.12,143.39,13
141,139.15,143.36,13
140,139.17,143.33,13
140,139.19,143.29,13
140,139.20,143.26,13
141,139.24,143.24,13
141,139.27,143.22,13
141,139.31,143.19,13
141,139.34,143.17,13
142,139.40,143.16,13
139,139.39,143.12,13
142,139.44,143.11,13
141,139.47,143.09,13
141,139.50,143.07,13
141,139.53,143.05,13
141,139.56,143.03,13
141,139.59,143.00,13
141,139.62,142.98,13
142,139.67,142.97,13
141,139.69,142.96,13
141,139.72,142.94,13
141,139.74,142.92,13
141,139.77,142.90,13
141,139.79,142.88,13
141,139.82,142.86,13
140,139.82,142.83,13
139,139.81,142.79,13
139,139.79,142.75,13
140,139.79,142.73,13
141,139.82,142.71,13
140,139.82,142.68,13
140,139.83,142.66,13
139,139.81,142.62,13
140,139.81,142.59,13
140,139.82,142.57,13
139,139.80,142.53,13
139,139.78,142.50,13
141,139.81,142.48,13
141,139.83,142.47,13
143,139.90,142.47,13
141,139.92,142.46,13
141,139.94,142.44,13
139,139.92,142.41,13
141,139.94,142.39,13
140,139.94,142.37,13
141,139.96,142.36,13
140,139.97,142.33,13
140,139.97,142.31,13
141,139.99,142.30,13
140,139.99,142.27,13
140,139.99,142.25,13
139,139.97,142.22,13
140,139.97,142.20,13
139,139.95,142.16,13
140,139.95,142.14,13
140,139.95,142.12,13
143,140.01,142.13,13
140,140.01,142.11,13
140,140.01,142.09,13
139,139.99,142.06,13
139,139.97,142.03,13
141,139.99,142.02,13
140,139.99,142.00,13
141,140.01,141.99,13
140,140.01,141.97,13
140,140.01,141.95,13
139,139.99,141.92,13
140,139.99,141.90,13
139,139.97,141.87,13
140,139.97,141.85,13
140,139.97,141.83,13
140,139.97,141.81,13
140,139.97,141.79,13
140,139.97,141.78,13
139,139.96,141.75,13
139,139.94,141.72,13
139,139.92,141.69,13
139,139.90,141.67,13
139,139.88,141.64,13
139,139.86,141.61,13
141,139.89,141.61,13
139,139.87,141.58,13
139,139.85,141.56,13
139,139.83,141.53,13
139,139.82,141.51,13
141,139.84,141.50,13
142,139.88,141.51,13
141,139.91,141.50,13
141,139.93,141.50,13
141,139.95,141.49,13
142,139.99,141.50,13
143,140.05,141.51,13
140,140.05,141.50,13
139,140.03,141.47,13
139,140.01,141.45,13
140,140.01,141.43,13
141,140.03,141.43,13
139,140.01,141.40,13
139,139.99,141.38,13
139,139.97,141.35,13
139,139.95,141.33,13
139,139.93,141.31,13
139,139.91,141.28,13
139,139.89,141.26,13
141,139.91,141.26,13
139,139.90,141.24,13
139,139.88,141.21,13
139,139.86,141.19,13
139,139.84,141.17,13
139,139.83,141.15,13
139,139.81,141.13,13
139,139.79,141.11,13
140,139.80,141.09,13
139,139.78,141.07,13
139,139.77,141.05,13
139,139.75,141.03,13
139,139.74,141.01,13
140,139.74,141.00,13
139,139.73,140.98,13
139,139.71,140.96,13
139,139.70,140.94,13
140,139.70,140.93,13
138,139.67,140.90,13
138,139.64,140.87,13
139,139.62,140.86,13
139,139.61,140.84,13
143,139.68,140.86,13
138,139.65,140.83,13
139,139.63,140.81,13
139,139.62,140.79,13
138,139.59,140.77,13
138,139.56,140.74,13
138,139.52,140.71,13
140,139.53,140.70,13
139,139.52,140.69,13
138,139.49,140.66,13
137,139.44,140.62,13
139,139.43,140.61,13
139,139.43,140.59,13
139,139.42,140.58,13
139,139.41,140.56,13
140,139.42,140.55,13
140,139.43,140.55,13
140,139.44,140.54,13
140,139.45,140.54,13
141,139.49,140.54,13
139,139.48,140.53,13
139,139.47,140.51,13
140,139.48,140.51,13
140,139.49,140.50,13
140,139.50,140.50,13
140,139.51,140.49,13
140,139.52,140.49,13
140,139.53,140.48,13
139,139.52,140.47,13
141,139.55,140.47,13
140,139.56,140.47,13
140,139.56,140.46,13
140,139.57,140.46,13
139,139.56,140.44,13
139,139.55,140.43,13
140,139.56,140.42,13
139,139.55,140.41,13
139,139.54,140.40,13
140,139.55,140.39,13
139,139.54,140.38,13
140,139.54,140.37,13
140,139.55,140.37,13
140,139.56,140.37,13
139,139.55,140.35,13
140,139.56,140.35,13
141,139.59,140.36,13
140,139.60,140.35,13
139,139.59,140.34,13
141,139.61,140.35,13
142,139.66,140.36,13
143,139.73,140.39,13
141,139.75,140.40,13
141,139.78,140.40,13
141,139.80,140.41,13
141,139.83,140.41,13
141,139.85,140.42,13
141,139.87,140.42,13
141,139.90,140.43,13
140,139.90,140.43,13
142,139.94,140.44,13
141,139.96,140.45,13
141,139.98,140.45,13
141,140.00,140.46,13
140,140.00,140.45,13
140,140.00,140.45,13
141,140.02,140.45,13
141,140.04,140.46,13
140,140.04,140.46,13
140,140.04,140.45,13
141,140.06,140.46,13
139,140.04,140.44,13
139,140.02,140.43,13
140,140.02,140.42,13
140,140.02,140.42,13
142,140.06,140.43,13
143,140.12,140.46,13
142,140.15,140.48,13
142,140.19,140.49,13
141,140.21,140.50,13
141,140.22,140.50,13
143,140.28,140.53,13
142,140.31,140.54,13
142,140.35,140.56,13
142,140.38,140.57,13
141,140.39,140.57,13
141,140.40,140.58,13
141,140.42,140.58,13
141,140.43,140.59,13
141,140.44,140.59,13
142,140.47,140.61,13
142,140.50,140.62,14
142,140.53,140.63,14
141,140.54,140.64,15
141,140.55,140.64,15
142,140.58,140.65,16
143,140.63,140.68,16
142,140.65,140.69,17
141,140.66,140.69,17
142,140.69,140.71,18
143,140.73,140.73,18
142,140.76,140.74,19
141,140.76,140.75,19
142,140.79,140.76,20
143,140.83,140.78,20
142,140.86,140.79,21
141,140.86,140.79,21
142,140.88,140.81,22
143,140.92,140.83,22
143,140.97,140.85,23
143,141.01,140.87,23
143,141.05,140.89,23
143,141.09,140.91,23
143,141.12,140.93,23
143,141.16,140.96,23
143,141.20,140.98,23
144,141.25,141.01,23
143,141.29,141.03,23
146,141.38,141.08,23
146,141.48,141.12,23
145,141.55,141.16,23
145,141.62,141.20,23
145,141.68,141.24,23
145,141.75,141.28,23
145,141.81,141.31,23
146,141.90,141.36,23
147,142.00,141.42,23
146,142.08,141.46,23
143,142.10,141.48,23
146,142.18,141.52,23
148,142.29,141.59,23
147,142.39,141.64,23
147,142.48,141.70,23
147,142.57,141.75,23
147,142.66,141.80,23
148,142.77,141.86,23
150,142.91,141.95,23
149,143.03,142.02,23
149,143.15,142.09,23
150,143.29,142.17,23
151,143.44,142.25,23
151,143.59,142.34,23
150,143.72,142.42,23
150,143.85,142.49,23
149,143.95,142.56,23
150,144.07,142.63,23
151,144.21,142.72,23
151,144.35,142.80,23
151,144.48,142.88,23
153,144.65,142.98,23
152,144.80,143.07,23
151,144.92,143.15,23
151,145.04,143.23,23
152,145.18,143.32,23
153,145.34,143.42,23
154,145.51,143.52,23
155,145.70,143.64,23
155,145.89,143.75,23
155,146.07,143.86,23
159,146.33,144.01,23
159,146.58,144.16,23
159,146.83,144.31,23
159,147.07,144.46,23
160,147.33,144.61,23
161,147.60,144.78,23
162,147.89,144.95,23
161,148.15,145.11,23
159,148.37,145.25,23
161,148.62,145.41,23
161,148.87,145.56,23
163,149.15,145.74,23
164,149.45,145.92,23
163,149.72,146.09,23
163,149.99,146.26,23
162,150.23,146.42,23
163,150.48,146.58,23
164,150.75,146.76,23
164,151.02,146.93,23
165,151.30,147.11,23
163,151.53,147.27,23
163,151.76,147.43,23
163,151.99,147.58,23
165,152.25,147.76,23
166,152.52,147.94,23
167,152.81,148.13,23
169,153.14,148.34,23
169,153.45,148.54,23
171,153.80,148.77,23
171,154.15,148.99,23
171,154.48,149.21,23
173,154.85,149.45,23
173,155.22,149.69,23
171,155.53,149.90,23
172,155.86,150.12,23
172,156.19,150.34,23
173,156.52,150.56,23
173,156.85,150.79,23
173,157.17,151.01,23
173,157.49,151.23,23
173,157.80,151.45,23
175,158.14,151.68,23
174,158.46,151.91,23
175,158.79,152.14,23
174,159.10,152.36,23
180,159.51,152.63,23
179,159.90,152.90,23
178,160.27,153.15,23
179,160.64,153.41,23
179,161.01,153.66,23
178,161.35,153.91,23
177,161.66,154.14,23
180,162.03,154.40,23
183,162.45,154.68,23
179,162.78,154.92,23
182,163.16,155.20,23
186,163.62,155.50,23
185,164.05,155.80,23
184,164.45,156.08,23
184,164.84,156.36,23
186,165.26,156.66,23
184,165.64,156.93,23
182,165.96,157.18,23
183,166.30,157.44,23
184,166.66,157.70,23
184,167.00,157.97,23
184,167.34,158.23,23
186,167.72,158.51,23
187,168.10,158.79,23
186,168.46,159.06,23
185,168.79,159.32,23
187,169.16,159.60,23
191,169.59,159.91,23
187,169.94,160.18,23
187,170.28,160.45,23
190,170.68,160.75,23
191,171.08,161.05,23
190,171.46,161.34,23
190,171.83,161.63,23
193,172.26,161.94,23
194,172.69,162.26,23
194,173.12,162.58,23
193,173.51,162.88,23
194,173.92,163.19,23
196,174.37,163.52,23
194,174.76,163.83,23
192,175.10,164.11,23
192,175.44,164.39,23
192,175.77,164.66,23
191,176.08,164.93,23
191,176.38,165.19,23
193,176.71,165.46,23
195,177.07,165.76,23
193,177.39,166.03,23
193,177.70,166.30,23
195,178.05,166.59,23
198,178.45,166.90,23
195,178.78,167.18,23
194,179.08,167.45,23
197,179.44,167.75,23
200,179.85,168.07,23
198,180.22,168.37,23
197,180.55,168.66,23
197,180.88,168.94,23
199,181.24,169.24,23
199,181.60,169.54,23
197,181.91,169.81,23
198,182.23,170.09,23
202,182.62,170.41,23
200,182.97,170.71,23
199,183.29,170.99,23
199,183.61,171.27,23
199,183.91,171.55,23
199,184.22,171.82,23
198,184.49,172.09,23
198,184.76,172.34,23
199,185.05,172.61,23
201,185.37,172.90,23
199,185.64,173.16,23
199,185.91,173.41,23
198,186.15,173.66,23
198,186.38,173.90,23
197,186.60,174.13,23
199,186.85,174.38,23
201,187.13,174.65,23
198,187.35,174.88,23
198,187.56,175.11,23
199,187.79,175.35,23
201,188.05,175.61,23
198,188.25,175.83,23
198,188.45,176.06,23
198,188.64,176.27,23
201,188.88,176.52,23
199,189.09,176.75,23
197,189.24,176.95,23
197,189.40,177.15,23
197,189.55,177.35,23
196,189.68,177.53,23
196,189.81,177.72,23
197,189.95,177.91,23
197,190.09,178.10,23
195,190.19,178.27,23
195,190.29,178.44,23
194,190.36,178.59,23
194,190.43,178.75,23
195,190.52,178.91,23
194,190.59,179.06,23
196,190.70,179.23,23
198,190.85,179.42,23
196,190.95,179.59,23
193,190.99,179.72,23
193,191.03,179.85,23
194,191.09,179.99,23
195,191.17,180.14,23
193,191.21,180.27,23
193,191.24,180.40,23
195,191.32,180.55,23
193,191.35,180.67,23
193,191.38,180.79,23
193,191.42,180.92,23
193,191.45,181.04,23
193,191.48,181.16,23
192,191.49,181.26,23
193,191.52,181.38,23
192,191.53,181.49,23
190,191.50,181.57,23
191,191.49,181.67,23
190,191.46,181.75,23
191,191.45,181.84,23
190,191.42,181.92,23
189,191.37,182.00,23
191,191.37,182.09,23
192,191.38,182.18,23
190,191.35,182.26,23
187,191.26,182.31,23
187,191.18,182.36,23
189,191.13,182.42,23
188,191.07,182.48,23
188,191.01,182.53,23
187,190.93,182.58,23
190,190.91,182.65,23
188,190.85,182.71,23
186,190.76,182.74,23
186,190.66,182.77,23
184,190.53,182.78,23
185,190.42,182.81,23
184,190.29,182.82,23
186,190.20,182.85,23
186,190.12,182.88,23
184,190.00,182.89,23
184,189.88,182.90,23
183,189.74,182.91,23
184,189.62,182.92,23
184,189.51,182.93,23
184,189.40,182.94,23
184,189.29,182.95,23
186,189.23,182.98,23
184,189.12,182.99,23
182,188.98,182.98,23
181,188.82,182.96,23
182,188.68,182.95,23
181,188.53,182.93,23
182,188.40,182.92,23
182,188.27,182.91,23
184,188.19,182.92,23
179,188.00,182.88,23
179,187.82,182.84,23
180,187.67,182.82,23
179,187.49,182.78,23
180,187.34,182.75,23
178,187.16,182.70,23
180,187.01,182.68,23
180,186.87,182.65,23
179,186.72,182.61,23
179,186.56,182.58,23
179,186.41,182.54,23
178,186.24,182.50,23
178,186.08,182.45,23
178,185.92,182.41,23
177,185.74,182.35,23
178,185.58,182.31,23
177,185.41,182.26,23
177,185.24,182.20,23
176,185.06,182.14,23
176,184.88,182.08,23
176,184.70,182.02,23
175,184.51,181.95,23
176,184.34,181.89,23
176,184.17,181.83,23
175,183.99,181.76,23
174,183.79,181.68,23
174,183.59,181.61,23
174,183.40,181.53,23
174,183.21,181.46,23
174,183.03,181.38,23
174,182.85,181.31,23
174,182.67,181.23,23
174,182.49,181.16,23
174,182.33,181.09,23
173,182.14,181.01,23
173,181.96,180.93,23
173,181.78,180.85,23
173,181.60,180.77,23
173,181.43,180.69,23
173,181.26,180.62,23
171,181.06,180.52,23
171,180.85,180.43,23
171,180.66,180.33,23
171,180.46,180.24,23
171,180.27,180.15,24
171,180.09,180.05,24
171,179.91,179.96,25
171,179.73,179.87,25
170,179.53,179.78,25
170,179.34,179.68,25
171,179.18,179.59,25
170,178.99,179.49,25
170,178.81,179.40,25
169,178.62,179.30,25
169,178.43,179.19,25
170,178.26,179.10,25
167,178.03,178.98,25
169,177.85,178.88,25
168,177.65,178.77,25
168,177.46,178.66,25
169,177.29,178.57,25
168,177.11,178.46,25
167,176.90,178.35,25
167,176.71,178.23,25
167,176.51,178.12,25
167,176.32,178.01,25
167,176.13,177.90,25
167,175.95,177.79,25
167,175.77,177.68,25
167,175.60,177.58,25
166,175.41,177.46,25
166,175.22,177.35,25
166,175.03,177.23,25
166,174.85,177.12,25
165,174.66,177.00,25
165,174.46,176.88,25
165,174.27,176.76,25
164,174.07,176.63,25
164,173.87,176.51,25
164,173.67,176.38,25
164,173.48,176.26,25
164,173.29,176.13,25
163,173.08,176.00,25
163,172.88,175.87,25
164,172.70,175.75,25
164,172.53,175.64,25
163,172.34,175.51,25
162,172.13,175.38,25
162,171.93,175.24,25
162,171.73,175.11,25
162,171.53,174.98,25
161,171.32,174.84,25
162,171.14,174.71,25
161,170.93,174.57,25
162,170.76,174.45,25
161,170.56,174.31,25
161,170.37,174.18,25
161,170.18,174.05,25
159,169.96,173.90,25
160,169.76,173.76,25
159,169.54,173.61,25
160,169.35,173.47,25
160,169.17,173.34,25
159,168.96,173.20,25
159,168.76,173.05,25
159,168.57,172.91,25
159,168.38,172.77,25
159,168.19,172.64,25
158,167.99,172.49,25
159,167.81,172.36,25
158,167.61,172.21,25
158,167.42,172.07,25
158,167.23,171.93,25
158,167.04,171.79,25
157,166.84,171.64,25
157,166.65,171.50,25
157,166.45,171.35,25
157,166.26,171.21,25
158,166.10,171.08,25
156,165.90,170.92,25
157,165.72,170.79,25
156,165.53,170.64,25
156,165.33,170.49,25
156,165.15,170.35,25
156,164.97,170.20,25
156,164.79,170.06,25
157,164.63,169.93,25
155,164.44,169.78,25
156,164.27,169.64,25
155,164.08,169.50,25
155,163.90,169.35,25
155,163.72,169.21,25
155,163.55,169.07,25
154,163.36,168.92,25
154,163.17,168.77,25
154,162.99,168.62,25
154,162.81,168.47,25
154,162.63,168.33,25
154,162.46,168.18,25
153,162.27,168.03,25
153,162.08,167.88,25
154,161.92,167.74,25
154,161.76,167.61,25
152,161.57,167.45,25
154,161.42,167.32,25
152,161.23,167.16,25
152,161.04,167.01,25
152,160.86,166.86,25
153,160.71,166.72,25
149,160.47,166.54,25
152,160.30,166.40,25
151,160.12,166.25,25
151,159.93,166.09,25
151,159.76,165.94,25
151,159.58,165.79,25
150,159.39,165.63,25
152,159.24,165.50,25
151,159.08,165.35,25
151,158.92,165.21,25
150,158.74,165.06,25
150,158.56,164.91,25
150,158.39,164.76,25
150,158.22,164.61,25
149,158.04,164.45,25
149,157.86,164.30,25
150,157.70,164.16,25
149,157.53,164.01,25
149,157.36,163.86,25
148,157.17,163.70,25
150,157.03,163.56,25
149,156.87,163.41,25
149,156.71,163.27,25
148,156.53,163.12,25
149,156.38,162.98,25
147,156.20,162.82,25
148,156.03,162.67,25
147,155.85,162.51,25
147,155.67,162.36,25
147,155.50,162.20,25
147,155.33,162.05,25
148,155.18,161.91,25
148,155.04,161.77,25
146,154.86,161.61,25
146,154.68,161.46,25
145,154.49,161.29,25
147,154.34,161.15,25
146,154.17,161.00,25
146,154.01,160.85,25
147,153.87,160.71,25
147,153.73,160.57,25
147,153.60,160.44,25
146,153.44,160.29,25
146,153.30,160.15,25
146,153.15,160.01,25
145,152.99,159.86,25
145,152.83,159.71,25
145,152.67,159.56,25
146,152.54,159.43,25
146,152.41,159.29,25
144,152.24,159.14,25
145,152.09,159.00,25
145,151.95,158.86,25
144,151.79,158.71,25
144,151.64,158.56,25
144,151.48,158.42,25
143,151.31,158.26,25
144,151.17,158.12,25
144,151.02,157.98,25
143,150.86,157.83,25
143,150.71,157.68,25
144,150.57,157.54,25
144,150.44,157.41,25
143,150.29,157.26,25
143,150.15,157.12,25
143,150.00,156.98,25
144,149.88,156.85,25
143,149.75,156.71,25
143,149.61,156.58,25
143,149.48,156.44,25
144,149.37,156.32,25
143,149.24,156.18,25
143,149.12,156.05,25
142,148.97,155.91,25
143,148.86,155.78,25
143,148.74,155.65,25
143,148.62,155.53,25
142,148.49,155.39,25
142,148.36,155.26,25
142,148.23,155.12,25
143,148.13,155.00,25
143,148.03,154.88,25
143,147.93,154.76,25
143,147.83,154.65,25
142,147.71,154.52,25
142,147.60,154.39,25
141,147.46,154.26,25
142,147.36,154.14,25
142,147.25,154.02,25
142,147.14,153.90,25
141,147.02,153.77,25
141,146.90,153.64,25
141,146.78,153.51,25
141,146.67,153.39,25
141,146.55,153.26,25
141,146.44,153.14,25
142,146.35,153.03,25
140,146.23,152.90,25
141,146.12,152.78,25
141,146.02,152.66,25
141,145.92,152.55,25
139,145.78,152.41,25
140,145.66,152.29,25
141,145.57,152.17,25
139,145.44,152.04,25
140,145.33,151.92,25
139,145.20,151.79,25
139,145.08,151.67,25
139,144.96,151.54,25
139,144.84,151.41,25
140,144.74,151.30,25
140,144.65,151.19,25
138,144.52,151.05,25
138,144.38,150.92,25
138,144.26,150.79,25
138,144.13,150.67,25
142,144.09,150.58,25
138,143.97,150.45,25
139,143.87,150.34,25
139,143.77,150.23,25
137,143.64,150.09,25
138,143.52,149.97,25
138,143.41,149.85,25
137,143.28,149.72,25
137,143.16,149.60,25
138,143.06,149.48,25
137,142.93,149.36,25
137,142.82,149.23,25
137,142.70,149.11,25
137,142.59,148.99,25
137,142.47,148.87,25
136,142.34,148.74,25
137,142.24,148.62,25
137,142.13,148.51,25
137,142.03,148.39,25
137,141.93,148.28,25
136,141.81,148.16,25
137,141.71,148.04,25
135,141.58,147.91,25
136,141.47,147.79,25
136,141.36,147.68,25
136,141.25,147.56,25
136,141.15,147.44,25
135,141.02,147.32,25
135,140.90,147.20,25
135,140.79,147.07,25
135,140.67,146.95,25
135,140.56,146.83,25
134,140.43,146.71,25
134,140.30,146.58,25
135,140.19,146.46,25
135,140.09,146.35,25
133,139.95,146.21,25
134,139.83,146.09,25
134,139.71,145.97,25
133,139.58,145.84,25
133,139.44,145.71,25
133,139.32,145.59,25
133,139.19,145.46,25
134,139.09,145.35,25
133,138.96,145.22,25
133,138.84,145.10,25
134,138.75,144.99,25
133,138.63,144.87,25
133,138.52,144.75,25
133,138.41,144.63,25
133,138.30,144.52,25
132,138.18,144.39,25
133,138.07,144.28,25
133,137.97,144.17,25
133,137.87,144.05,25
131,137.73,143.92,25
133,137.64,143.81,25
133,137.55,143.71,25
133,137.46,143.60,25
132,137.35,143.48,25
132,137.24,143.37,25
133,137.15,143.26,25
132,137.05,143.15,25
132,136.95,143.04,25
131,136.83,142.92,25
131,136.71,142.80,25
133,136.64,142.70,25
132,136.55,142.60,25
131,136.44,142.48,25
131,136.33,142.36,25
131,136.22,142.25,25
131,136.12,142.14,25
130,135.99,142.02,25
130,135.87,141.90,25
131,135.78,141.79,25
130,135.66,141.67,25
130,135.55,141.55,25
130,135.44,141.44,25
130,135.33,141.32,25
130,135.22,141.21,25
130,135.12,141.10,25
130,135.02,140.99,25
131,134.93,140.89,25
131,134.86,140.79,25
130,134.76,140.68,25
130,134.66,140.57,25
130,134.57,140.47,25
130,134.48,140.36,25
129,134.37,140.25,25
129,134.26,140.14,25
129,134.16,140.03,25
128,134.03,139.91,25
129,133.93,139.80,25
129,133.83,139.69,25
128,133.72,139.57,25
128,133.60,139.46,25
128,133.49,139.34,25
129,133.40,139.24,25
129,133.31,139.14,25
128,133.21,139.02,25
128,133.10,138.91,25
128,133.00,138.80,25
128,132.90,138.70,25
128,132.80,138.59,25
127,132.69,138.47,25
125,132.53,138.34,25
128,132.44,138.24,25
128,132.35,138.13,25
128,132.27,138.03,25
128,132.18,137.93,25
128,132.10,137.83,25
128,132.02,137.73,25
128,131.94,137.64,25
128,131.86,137.54,25
128,131.78,137.44,25
128,131.70,137.35,25
128,131.63,137.26,25
128,131.56,137.16,25
128,131.49,137.07,25
129,131.44,136.99,25
128,131.37,136.90,25
128,131.30,136.81,25
129,131.25,136.73,25
129,131.21,136.66,25
128,131.15,136.57,25
128,131.08,136.49,25
128,131.02,136.40,25
128,130.96,136.32,25
127,130.88,136.22,25
127,130.80,136.13,25
128,130.75,136.05,25
127,130.67,135.96,25
127,130.60,135.87,25
127,130.53,135.78,25
129,130.50,135.71,25
126,130.41,135.62,25
127,130.34,135.53,25
127,130.27,135.44,25
126,130.19,135.35,25
126,130.10,135.26,25
123,129.96,135.13,25
126,129.88,135.04,25
125,129.78,134.94,25
126,129.71,134.85,25
125,129.61,134.75,25
126,129.54,134.67,25
126,129.47,134.58,25
125,129.38,134.48,25
125,129.29,134.39,25
124,129.19,134.29,25
124,129.08,134.18,25
124,128.98,134.08,25
124,128.88,133.98,25
126,128.82,133.90,25
125,128.75,133.81,25
125,128.67,133.72,25
124,128.58,133.63,25
125,128.51,133.54,25
124,128.42,133.44,25
124,128.33,133.35,25
125,128.26,133.27,25
124,128.18,133.17,25
124,128.09,133.08,25
125,128.03,133.00,25
124,127.95,132.91,25
124,127.87,132.82,25
124,127.80,132.73,25
124,127.72,132.65,25
124,127.65,132.56,25
125,127.59,132.48,25
125,127.54,132.41,25
124,127.47,132.33,25
126,127.44,132.26,25
126,127.41,132.20,25
126,127.38,132.14,25
123,127.30,132.05,25
125,127.25,131.98,25
127,127.24,131.93,25
127,127.24,131.88,25
127,127.23,131.83,25
127,127.23,131.78,25
127,127.23,131.73,25
127,127.22,131.68,25
126,127.20,131.63,25
126,127.17,131.57,25
127,127.17,131.53,25
129,127.21,131.50,25
127,127.20,131.46,25
128,127.22,131.42,25
128,127.23,131.39,25
128,127.25,131.35,25
127,127.24,131.31,25
128,127.26,131.28,25
127,127.25,131.23,25
128,127.27,131.20,25
127,127.26,131.16,25
126,127.24,131.11,25
128,127.25,131.08,25
128,127.27,131.05,25
128,127.28,131.02,25
128,127.30,130.99,25
128,127.31,130.96,25
128,127.33,130.93,25
128,127.34,130.90,25
127,127.33,130.86,25
126,127.31,130.81,25
127,127.30,130.77,25
126,127.27,130.72,25
127,127.27,130.69,25
127,127.26,130.65,25
128,127.28,130.62,25
126,127.25,130.58,25
126,127.23,130.53,25
126,127.20,130.49,25
126,127.18,130.44,25
126,127.15,130.40,25
127,127.15,130.36,25
125,127.11,130.31,25
127,127.11,130.28,25
126,127.08,130.23,25
126,127.06,130.19,25
123,126.98,130.12,25
126,126.96,130.08,25
125,126.92,130.03,25
125,126.88,129.98,25
125,126.85,129.93,25
126,126.83,129.89,25
126,126.81,129.85,25
124,126.76,129.79,25
125,126.72,129.74,25
125,126.69,129.69,25
125,126.65,129.65,25
124,126.60,129.59,25
124,126.55,129.54,25
126,126.54,129.50,25
126,126.53,129.46,25
124,126.48,129.41,25
125,126.45,129.37,25
125,126.42,129.32,25
124,126.37,129.27,25
125,126.34,129.23,25
123,126.27,129.16,25
125,126.25,129.12,25
124,126.20,129.07,25
123,126.14,129.01,25
124,126.10,128.96,25
124,126.06,128.91,25
124,126.01,128.86,25
124,125.97,128.81,25
125,125.95,128.78,25
125,125.94,128.74,25
125,125.92,128.70,25
126,125.92,128.67,25
126,125.92,128.65,25
124,125.88,128.60,25
125,125.86,128.56,25
130,125.95,128.58,25
125,125.93,128.54,25
126,125.93,128.52,25
127,125.95,128.50,25
126,125.95,128.48,25
125,125.93,128.44,25
125,125.91,128.41,25
126,125.92,128.38,25
125,125.90,128.35,25
125,125.88,128.32,25
125,125.86,128.28,25
125,125.84,128.25,25
126,125.85,128.23,25
126,125.85,128.21,25
126,125.85,128.18,25
125,125.84,128.15,25
126,125.84,128.13,25
125,125.82,128.10,25
127,125.85,128.09,25
126,125.85,128.07,25
126,125.85,128.05,25
127,125.88,128.04,25
125,125.86,128.01,25
126,125.86,127.99,25
126,125.86,127.97,25
126,125.87,127.95,25
127,125.89,127.94,25
126,125.89,127.92,25
126,125.89,127.90,25
125,125.88,127.87,25
125,125.86,127.84,25
125,125.84,127.81,25
125,125.82,127.78,25
126,125.83,127.77,25
126,125.83,127.75,25
125,125.81,127.72,25
125,125.80,127.69,25
124,125.76,127.66,25
126,125.77,127.64,25
124,125.73,127.60,25
125,125.72,127.58,25
127,125.74,127.57,25
126,125.75,127.56,25
126,125.75,127.54,25
128,125.80,127.55,25
127,125.82,127.54,25
127,125.85,127.53,25
126,125.85,127.52,25
129,125.91,127.53,25
129,125.97,127.55,25
130,126.05,127.57,25
130,126.13,127.60,25
130,126.21,127.62,25
129,126.27,127.63,25
128,126.30,127.64,25
128,126.33,127.64,25
129,126.39,127.66,25
132,126.50,127.70,25
129,126.55,127.71,25
129,126.60,127.73,25
128,126.63,127.73,25
129,126.67,127.74,25
130,126.74,127.76,25
128,126.77,127.77,25
128,126.79,127.77,25
128,126.82,127.77,25
129,126.86,127.78,25
128,126.88,127.78,25
128,126.90,127.79,25
127,126.91,127.78,25
127,126.91,127.77,25
128,126.93,127.77,25
127,126.93,127.77,25
129,126.97,127.78,25
129,127.01,127.79,25
128,127.03,127.79,25
128,127.05,127.79,25
128,127.07,127.80,25
126,127.05,127.78,25
127,127.05,127.77,25
127,127.05,127.76,25
127,127.05,127.76,25
127,127.05,127.75,25
127,127.04,127.74,25
127,127.04,127.73,25
129,127.08,127.75,25
127,127.08,127.74,25
127,127.08,127.73,25
127,127.08,127.72,25
129,127.12,127.74,25
128,127.13,127.74,25
129,127.17,127.75,25
127,127.17,127.74,25
128,127.18,127.75,25
128,127.20,127.75,25
128,127.22,127.75,25
129,127.25,127.76,25
129,127.29,127.78,25
129,127.32,127.79,25
129,127.36,127.80,25
129,127.39,127.81,25
130,127.44,127.83,25
129,127.47,127.85,25
129,127.50,127.86,25
129,127.53,127.87,25
129,127.56,127.88,25
130,127.61,127.90,25
129,127.64,127.91,25
130,127.69,127.93,25
128,127.69,127.93,25
129,127.72,127.94,25
128,127.72,127.95,25
129,127.75,127.96,25
131,127.81,127.99,25
132,127.90,128.03,25
132,127.98,128.07,25
131,128.04,128.10,25
131,128.10,128.12,25
130,128.14,128.14,25
130,128.17,128.16,25
130,128.21,128.18,25
130,128.25,128.20,25
131,128.30,128.23,25
132,128.38,128.26,25
130,128.41,128.28,25
131,128.46,128.31,25
131,128.51,128.34,25
130,128.54,128.35,25
131,128.59,128.38,25
131,128.64,128.41,25
132,128.71,128.44,25
132,128.77,128.48,25
131,128.82,128.50,25
131,128.86,128.53,25
131,128.90,128.55,25
134,129.00,128.61,25
132,129.06,128.64,25
133,129.14,128.68,25
132,129.20,128.72,25
132,129.26,128.75,25
129,129.25,128.75,25
133,129.33,128.79,25
134,129.42,128.85,25
133,129.49,128.89,25
136,129.62,128.96,25
136,129.75,129.03,25
135,129.85,129.09,25
135,129.96,129.15,25
134,130.04,129.20,25
135,130.14,129.26,25
134,130.21,129.30,25
135,130.31,129.36,25
137,130.44,129.44,25
136,130.55,129.50,25
138,130.70,129.59,25
135,130.79,129.64,25
136,130.89,129.70,25
134,130.96,129.75,25
136,131.06,129.81,25
136,131.16,129.87,25
138,131.29,129.95,25
137,131.41,130.02,25
137,131.52,130.09,25
138,131.65,130.17,25
139,131.80,130.26,25
138,131.92,130.34,25
138,132.04,130.41,25
140,132.20,130.51,25
140,132.36,130.61,25
138,132.47,130.68,25
139,132.60,130.76,25
142,132.79,130.87,25
142,132.97,130.99,25
141,133.13,131.09,25
141,133.29,131.19,25
145,133.52,131.32,25
145,133.75,131.46,25
145,133.98,131.60,25
144,134.18,131.72,25
145,134.40,131.85,25
145,134.61,131.98,25
146,134.84,132.12,25
146,135.06,132.26,25
146,135.28,132.40,25
148,135.53,132.56,25
147,135.76,132.70,25
149,136.03,132.86,25
147,136.25,133.01,25
147,136.46,133.15,25
147,136.67,133.28,25
146,136.86,133.41,25
147,137.06,133.55,25
147,137.26,133.68,25
145,137.41,133.79,25
147,137.61,133.93,25
150,137.85,134.09,25
152,138.14,134.27,25
150,138.37,134.42,25
152,138.65,134.60,25
155,138.97,134.80,25
156,139.31,135.02,25
153,139.59,135.20,25
154,139.88,135.38,25
153,140.14,135.56,25
154,140.42,135.74,25
154,140.69,135.93,25
157,141.01,136.14,25
156,141.31,136.34,25
156,141.61,136.53,25
157,141.92,136.74,25
156,142.20,136.93,25
156,142.47,137.12,25
155,142.72,137.30,25
156,142.99,137.49,25
157,143.27,137.68,25
158,143.56,137.88,25
157,143.83,138.08,25
157,144.10,138.27,25
157,144.35,138.45,25
158,144.63,138.65,25
158,144.89,138.84,25
161,145.22,139.06,25
158,145.47,139.25,25
159,145.74,139.45,25
160,146.03,139.66,25
162,146.35,139.88,25
163,146.68,140.11,25
161,146.97,140.32,25
162,147.27,140.54,25
163,147.58,140.76,25
165,147.93,141.00,25
163,148.23,141.22,25
163,148.53,141.44,25
163,148.82,141.66,25
165,149.14,141.89,25
164,149.44,142.11,25
163,149.71,142.32,25
166,150.03,142.56,25
167,150.37,142.80,25
166,150.69,143.03,25
165,150.97,143.25,25
166,151.27,143.48,25
167,151.59,143.72,25
167,151.90,143.95,25
168,152.22,144.19,25
169,152.55,144.44,25
168,152.86,144.67,25
169,153.19,144.92,25
169,153.50,145.16,25
169,153.81,145.39,25
172,154.18,145.66,25
171,154.51,145.91,25
171,154.84,146.17,25
169,155.12,146.39,25
171,155.44,146.64,25
172,155.77,146.89,25
176,156.18,147.18,25
173,156.51,147.44,25
173,156.84,147.70,25
172,157.15,147.94,25
171,157.42,148.17,25
175,157.78,148.44,25
173,158.08,148.69,25
173,158.38,148.93,25
175,158.71,149.19,25
175,159.04,149.45,25
177,159.40,149.72,25
175,159.71,149.98,25
175,160.01,150.23,25
175,160.31,150.47,25
175,160.61,150.72,25
174,160.88,150.95,25
175,161.16,151.19,25
174,161.41,151.42,25
173,161.65,151.64,25
174,161.89,151.86,25
172,162.10,152.06,25
173,162.31,152.27,25
174,162.55,152.49,25
173,162.76,152.69,25
173,162.96,152.90,25
172,163.14,153.09,25
173,163.34,153.29,25
172,163.51,153.47,25
173,163.70,153.67,25
175,163.93,153.88,25
177,164.19,154.11,25
177,164.45,154.34,25
177,164.70,154.57,25
179,164.98,154.81,25
180,165.28,155.06,25
180,165.58,155.31,25
181,165.89,155.57,25
180,166.17,155.82,25
180,166.45,156.06,25
179,166.70,156.29,25
179,166.94,156.51,25
180,167.20,156.75,25
182,167.50,157.00,25
183,167.81,157.26,25
182,168.09,157.51,25
181,168.35,157.74,25
183,168.64,158.00,25
183,168.93,158.25,25
183,169.21,158.49,25
183,169.49,158.74,25
183,169.76,158.98,25
187,170.10,159.26,25
185,170.40,159.52,25
184,170.67,159.76,25
187,171.00,160.04,25
188,171.34,160.32,25
188,171.67,160.59,25
187,171.98,160.86,25
189,172.32,161.14,25
190,172.67,161.43,25
193,173.08,161.74,25
191,173.44,162.03,25
195,173.87,162.36,25
195,174.29,162.69,25
194,174.69,163.00,25
196,175.11,163.33,25
196,175.53,163.66,25
195,175.92,163.97,25
194,176.28,164.27,25
193,176.62,164.56,25
196,177.00,164.88,25
199,177.44,165.22,25
199,177.87,165.56,25
200,178.32,165.90,25
201,178.77,166.25,25
199,179.18,166.58,25
198,179.55,166.89,25
198,179.92,167.20,25
199,180.30,167.52,25
197,180.64,167.82,25
199,181.00,168.13,25
199,181.36,168.44,25
201,181.76,168.76,25
199,182.10,169.06,25
198,182.42,169.35,25
197,182.71,169.63,25
198,183.02,169.91,25
198,183.32,170.19,25
197,183.59,170.46,25
198,183.88,170.74,25
199,184.18,171.02,25
196,184.42,171.27,25
195,184.63,171.51,25
196,184.86,171.75,25
197,185.10,172.01,25
197,185.34,172.26,25
197,185.57,172.50,25
197,185.80,172.75,25
199,186.06,173.01,25
199,186.32,173.27,25
198,186.56,173.52,25
198,186.78,173.76,25
198,187.01,174.00,25
198,187.23,174.24,25
197,187.42,174.47,25
197,187.62,174.70,25
197,187.80,174.92,25
195,187.95,175.12,25
195,188.09,175.32,25
195,188.23,175.52,25
197,188.40,175.73,25
196,188.55,175.93,25
195,188.68,176.13,25
196,188.83,176.32,25
196,188.97,176.52,25
195,189.09,176.71,25
194,189.19,176.88,25
195,189.31,177.06,25
195,189.42,177.24,25
194,189.51,177.41,25
194,189.60,177.57,25
194,189.69,177.74,25
196,189.82,177.92,25
192,189.86,178.06,25
192,189.90,178.20,25
193,189.97,178.35,25
193,190.03,178.49,25
192,190.07,178.63,25
192,190.10,178.76,25
192,190.14,178.90,25
193,190.20,179.04,25
192,190.24,179.17,25
191,190.25,179.28,25
190,190.25,179.39,25
191,190.26,179.51,25
189,190.24,179.60,25
190,190.23,179.71,25
190,190.23,179.81,25
190,190.22,179.91,25
189,190.20,180.00,25
188,190.15,180.08,25
188,190.11,180.16,25
189,190.09,180.25,25
187,190.03,180.32,25
187,189.97,180.38,25
188,189.93,180.46,25
188,189.89,180.54,25
187,189.83,180.60,25
186,189.75,180.65,25
187,189.70,180.72,25
187,189.64,180.78,25
188,189.61,180.85,25
185,189.52,180.89,25
185,189.43,180.94,25
185,189.34,180.98,25
185,189.25,181.02,25
184,189.15,181.05,25
185,189.07,181.09,25
185,188.98,181.12,25
184,188.88,181.15,25
182,188.75,181.16,25
182,188.61,181.17,25
184,188.52,181.20,25
182,188.39,181.21,25
183,188.28,181.22,25
182,188.16,181.23,25
183,188.05,181.25,25
182,187.93,181.26,25
181,187.79,181.26,25
181,187.66,181.25,25
182,187.54,181.26,25
181,187.41,181.26,25
179,187.24,181.23,25
180,187.10,181.22,25
181,186.98,181.22,25
179,186.82,181.20,25
179,186.66,181.18,25
179,186.51,181.15,25
179,186.36,181.13,25
179,186.21,181.11,25
180,186.09,181.10,25
179,185.95,181.08,25
178,185.79,181.05,25
177,185.61,181.01,25
178,185.46,180.98,25
178,185.31,180.95,25
180,185.20,180.94,25
176,185.02,180.89,25
177,184.86,180.85,25
177,184.70,180.81,25
177,184.55,180.77,25
175,184.36,180.72,25
177,184.21,180.68,25
175,184.03,180.62,25
176,183.86,180.58,25
175,183.69,180.52,25
175,183.51,180.46,25
175,183.34,180.41,25
175,183.18,180.36,25
175,183.01,180.30,25
174,182.83,180.24,25
174,182.66,180.18,25
173,182.46,180.11,25
173,182.27,180.03,25
172,182.07,179.95,25
173,181.89,179.88,25
173,181.71,179.82,25
173,181.54,179.75,25
172,181.34,179.67,25
173,181.18,179.60,25
172,180.99,179.53,25
173,180.83,179.46,25
171,180.64,179.38,25
171,180.44,179.29,25
171,180.26,179.21,25
171,180.07,179.13,25
170,179.87,179.04,25
170,179.67,178.95,25
169,179.46,178.85,25
170,179.27,178.76,25
170,179.08,178.67,25
169,178.88,178.57,25
169,178.68,178.48,25
169,178.49,178.38,26
168,178.28,178.28,26
168,178.08,178.18,27
170,177.91,178.10,27
167,177.70,177.98,27
168,177.50,177.88,27
167,177.29,177.78,27
167,177.09,177.67,27
167,176.88,177.56,27
167,176.69,177.46,27
167,176.49,177.35,27
165,176.26,177.23,27
166,176.06,177.12,27
166,175.86,177.00,27
165,175.64,176.88,27
165,175.43,176.77,27
165,175.22,176.65,27
164,174.99,176.52,27
165,174.79,176.41,27
164,174.58,176.28,27
164,174.37,176.16,27
163,174.14,176.03,27
164,173.94,175.91,27
164,173.74,175.79,27
165,173.56,175.68,27
164,173.37,175.56,27
163,173.16,175.44,27
163,172.96,175.31,27
164,172.78,175.20,27
163,172.59,175.08,27
163,172.39,174.96,27
163,172.21,174.84,27
162,172.00,174.71,27
162,171.80,174.58,27
163,171.63,174.47,27
161,171.41,174.33,27
162,171.23,174.21,27
162,171.04,174.09,27
161,170.84,173.96,27
161,170.64,173.83,27
161,170.45,173.70,27
161,170.26,173.57,27
162,170.10,173.46,27
161,169.91,173.33,27
161,169.74,173.21,27
160,169.54,173.08,27
161,169.37,172.95,27
160,169.18,172.83,27
160,169.00,172.70,27
159,168.80,172.56,27
161,168.64,172.44,27
160,168.47,172.32,27
160,168.30,172.20,27
159,168.12,172.06,27
159,167.93,171.93,27
159,167.75,171.80,27
160,167.60,171.69,27
159,167.43,171.56,27
159,167.26,171.43,27
160,167.11,171.32,27
159,166.95,171.20,27
159,166.79,171.07,27
159,166.64,170.95,27
159,166.48,170.83,27
159,166.33,170.72,27
158,166.17,170.59,27
158,166.00,170.46,27
158,165.84,170.34,27
158,165.69,170.22,27
158,165.53,170.09,27
157,165.36,169.96,27
157,165.20,169.83,27
157,165.03,169.70,27
157,164.87,169.58,27
157,164.71,169.45,27
156,164.54,169.32,27
156,164.37,169.18,27
155,164.18,169.04,27
155,164.00,168.90,27
155,163.82,168.76,27
154,163.62,168.61,27
156,163.47,168.49,27
156,163.32,168.36,27
155,163.15,168.23,27
155,162.99,168.10,27
155,162.83,167.97,27
155,162.67,167.84,27
155,162.52,167.71,27
155,162.37,167.58,27
156,162.24,167.47,27
156,162.12,167.35,27
155,161.98,167.23,27
155,161.84,167.11,27
154,161.68,166.97,27
155,161.55,166.85,27
155,161.41,166.74,27
156,161.31,166.63,27
156,161.20,166.52,27
154,161.06,166.40,27
155,160.93,166.28,27
154,160.80,166.16,27
154,160.66,166.04,27
155,160.55,165.93,27
154,160.42,165.81,27
153,160.27,165.68,27
154,160.14,165.56,27
154,160.02,165.45,27
153,159.88,165.32,27
153,159.74,165.20,27
152,159.59,165.07,27
153,159.46,164.95,27
153,159.33,164.83,27
153,159.20,164.71,27
154,159.10,164.60,27
153,158.97,164.49,27
153,158.85,164.37,27
154,158.76,164.27,27
154,158.66,164.17,27
154,158.57,164.06,27
152,158.44,163.94,27
153,158.33,163.83,27
154,158.24,163.74,27
153,158.14,163.63,27
153,158.03,163.52,27
152,157.91,163.41,27
153,157.82,163.30,27
152,157.70,163.19,27
152,157.59,163.08,27
153,157.49,162.98,27
153,157.40,162.88,27
153,157.32,162.78,27
152,157.21,162.67,27
152,157.10,162.56,27
152,157.00,162.46,27
151,156.88,162.34,27
151,156.77,162.23,27
151,156.65,162.12,27
152,156.56,162.02,27
152,156.47,161.92,27
152,156.38,161.82,27
152,156.29,161.72,27
150,156.16,161.60,27
151,156.06,161.50,27
152,155.98,161.40,27
151,155.88,161.30,27
152,155.80,161.20,27
151,155.71,161.10,27
151,155.61,161.00,27
151,155.52,160.90,27
154,155.49,160.83,27
150,155.38,160.72,27
151,155.29,160.63,27
151,155.21,160.53,27
152,155.14,160.45,27
152,155.08,160.36,27
151,155.00,160.27,27
151,154.92,160.17,27
152,154.86,160.09,27
151,154.78,160.00,27
151,154.71,159.91,27
152,154.65,159.83,27
151,154.58,159.74,27
152,154.53,159.67,27
151,154.46,159.58,27
150,154.37,159.48,27
150,154.28,159.39,27
150,154.19,159.30,27
150,154.11,159.20,27
151,154.05,159.12,27
150,153.97,159.03,27
150,153.89,158.94,27
150,153.81,158.85,27
149,153.71,158.75,27
150,153.64,158.66,27
150,153.57,158.58,27
151,153.52,158.50,27
151,153.47,158.43,27
150,153.40,158.34,27
150,153.33,158.26,27
150,153.26,158.18,27
150,153.20,158.09,27
150,153.13,158.01,27
149,153.05,157.92,27
150,152.99,157.84,27
152,152.97,157.79,27
150,152.91,157.71,27
149,152.83,157.62,27
150,152.77,157.54,27
150,152.72,157.47,27
151,152.69,157.40,27
150,152.63,157.33,27
149,152.56,157.25,27
151,152.53,157.18,27
150,152.48,157.11,27
150,152.43,157.04,27
150,152.38,156.97,27
149,152.31,156.89,27
150,152.27,156.82,27
150,152.22,156.75,27
149,152.16,156.68,27
149,152.09,156.60,27
150,152.05,156.53,27
150,152.01,156.47,27
150,151.97,156.40,27
150,151.93,156.34,27
149,151.87,156.27,27
150,151.83,156.20,27
149,151.78,156.13,27
149,151.72,156.06,27
150,151.69,156.00,27
149,151.63,155.93,27
148,151.56,155.85,27
148,151.49,155.77,27
148,151.42,155.69,27
147,151.33,155.61,27
148,151.26,155.53,27
149,151.22,155.47,27
147,151.14,155.38,27
149,151.09,155.32,27
151,151.09,155.27,27
149,151.05,155.21,27
149,151.01,155.15,27
150,150.99,155.10,27
150,150.97,155.05,27
150,150.95,155.00,27
150,150.93,154.95,27
149,150.89,154.89,27
150,150.87,154.84,27
151,150.88,154.80,27
151,150.88,154.76,27
150,150.86,154.71,27
150,150.84,154.67,27
150,150.83,154.62,27
151,150.83,154.58,27
149,150.79,154.53,27
149,150.76,154.47,27
149,150.72,154.42,27
150,150.71,154.37,27
149,150.67,154.32,27
149,150.64,154.27,27
151,150.65,154.23,27
150,150.63,154.19,27
150,150.62,154.15,27
149,150.59,154.10,27
149,150.56,154.05,27
149,150.53,154.00,27
150,150.52,153.96,27
149,150.49,153.91,27
149,150.46,153.86,27
150,150.45,153.82,27
149,150.42,153.77,27
148,150.37,153.71,27
148,150.32,153.66,27
147,150.26,153.59,27
149,150.23,153.54,27
149,150.21,153.50,27
149,150.18,153.45,27
148,150.14,153.40,27
148,150.10,153.35,27
147,150.03,153.28,27
147,149.97,153.22,27
148,149.93,153.17,27
147,149.87,153.11,27
146,149.80,153.03,27
148,149.76,152.98,27
147,149.71,152.92,27
145,149.61,152.85,27
147,149.56,152.79,27
147,149.51,152.73,27
147,149.46,152.67,27
147,149.41,152.61,27
147,149.36,152.56,27
146,149.29,152.49,27
148,149.27,152.45,27
147,149.22,152.39,27
147,149.18,152.34,27
147,149.13,152.29,27
147,149.09,152.23,27
146,149.03,152.17,27
146,148.97,152.11,27
146,148.91,152.05,27
146,148.85,151.99,27
145,148.77,151.92,27
145,148.70,151.85,27
146,148.65,151.79,27
146,148.59,151.73,27
146,148.54,151.68,27
146,148.49,151.62,27
145,148.42,151.55,27
143,148.31,151.47,27
145,148.25,151.40,27
146,148.20,151.35,27
145,148.14,151.28,27
145,148.07,151.22,27
145,148.01,151.16,27
146,147.97,151.11,27
145,147.91,151.05,27
146,147.87,151.00,27
145,147.82,150.94,27
146,147.78,150.89,27
146,147.74,150.84,27
145,147.69,150.78,27
145,147.64,150.72,27
146,147.60,150.67,27
147,147.59,150.64,27
146,147.56,150.59,27
146,147.53,150.55,27
145,147.48,150.49,27
146,147.45,150.45,27
147,147.44,150.41,27
146,147.41,150.37,27
145,147.36,150.31,27
145,147.32,150.26,27
147,147.31,150.23,27
146,147.28,150.19,27
145,147.24,150.13,27
146,147.21,150.09,27
145,147.17,150.04,27
146,147.14,150.00,27
145,147.10,149.95,27
145,147.06,149.90,27
145,147.02,149.85,27
147,147.02,149.82,27
146,147.00,149.79,27
143,146.92,149.72,27
146,146.90,149.68,27
146,146.88,149.64,27
147,146.88,149.62,27
145,146.85,149.57,27
146,146.83,149.54,27
147,146.83,149.51,27
146,146.82,149.47,27
146,146.80,149.44,27
146,146.78,149.41,27
146,146.77,149.37,27
147,146.77,149.35,27
147,146.78,149.32,27
145,146.74,149.28,27
145,146.71,149.24,27
146,146.69,149.21,27
147,146.70,149.18,27
146,146.68,149.15,27
146,146.67,149.12,27
146,146.66,149.09,27
148,146.68,149.08,27
148,146.71,149.07,27
146,146.70,149.04,27
147,146.70,149.02,27
147,146.71,149.00,27
147,146.71,148.98,27
146,146.70,148.95,27
146,146.69,148.92,27
148,146.71,148.91,27
148,146.74,148.90,27
145,146.70,148.86,27
146,146.69,148.83,27
146,146.68,148.80,27
147,146.68,148.79,27
146,146.67,148.76,27
144,146.62,148.71,27
146,146.60,148.68,27
147,146.61,148.67,27
148,146.64,148.66,27
146,146.63,148.63,27
147,146.63,148.62,27
147,146.64,148.60,27
147,146.65,148.58,27
147,146.65,148.57,27
146,146.64,148.54,27
146,146.63,148.52,27
147,146.64,148.50,27
147,146.64,148.49,27
147,146.65,148.47,27
147,146.66,148.46,27
147,146.66,148.44,27
147,146.67,148.43,27
147,146.68,148.41,27
147,146.68,148.40,27
147,146.69,148.39,27
147,146.70,148.37,27
147,146.70,148.36,27
147,146.71,148.34,27
147,146.71,148.33,27
147,146.72,148.32,27
148,146.75,148.31,27
148,146.77,148.31,27
147,146.78,148.30,27
147,146.78,148.29,27
147,146.78,148.27,27
147,146.79,148.26,27
147,146.79,148.25,27
147,146.80,148.23,27
148,146.82,148.23,27
148,146.84,148.23,27
148,146.87,148.23,27
147,146.87,148.22,27
147,146.87,148.20,27
147,146.88,148.19,27
147,146.88,148.18,27
147,146.88,148.17,27
147,146.88,148.16,27
147,146.89,148.14,27
148,146.91,148.14,27
147,146.91,148.13,27
147,146.91,148.12,27
151,146.99,148.15,27
147,146.99,148.14,27
147,146.99,148.13,27
147,146.99,148.12,27
147,146.99,148.10,27
147,146.99,148.09,27
148,147.01,148.09,27
147,147.01,148.08,27
147,147.01,148.07,27
147,147.01,148.06,27
147,147.01,148.05,27
149,147.05,148.06,27
148,147.07,148.06,27
149,147.11,148.07,27
148,147.13,148.07,27
149,147.17,148.08,27
147,147.16,148.07,27
147,147.16,148.05,27
148,147.18,148.05,27
149,147.21,148.06,27
147,147.21,148.05,27
149,147.24,148.06,27
148,147.26,148.06,27
148,147.27,148.06,27
147,147.27,148.05,27
149,147.30,148.06,27
149,147.34,148.07,27
149,147.37,148.08,27
149,147.40,148.09,27
149,147.43,148.10,27
148,147.45,148.10,27
147,147.44,148.09,27
150,147.49,148.10,27
149,147.52,148.11,27
147,147.51,148.10,27
152,147.60,148.14,27
148,147.61,148.14,27
149,147.63,148.15,27
149,147.66,148.16,27
149,147.69,148.17,27
147,147.67,148.15,27
148,147.68,148.15,27
149,147.71,148.16,27
149,147.73,148.17,27
148,147.74,148.17,27
150,147.78,148.19,27
149,147.81,148.19,27
148,147.81,148.19,27
149,147.84,148.20,27
149,147.86,148.21,27
149,147.88,148.22,27
149,147.90,148.22,27
149,147.93,148.23,27
149,147.95,148.24,27
148,147.95,148.24,27
149,147.97,148.24,27
150,148.01,148.26,27
149,148.03,148.27,27
149,148.05,148.28,27
149,148.07,148.28,27
150,148.11,148.30,27
149,148.12,148.31,27
148,148.12,148.30,27
150,148.16,148.32,27
150,148.20,148.34,27
149,148.21,148.35,27
148,148.21,148.34,27
150,148.24,148.36,28
150,148.28,148.37,28
149,148.29,148.38,29
150,148.33,148.40,29
150,148.36,148.41,30
147,148.33,148.40,30
150,148.37,148.42,31
149,148.38,148.42,31
149,148.39,148.43,32
150,148.42,148.44,32
150,148.46,148.46,33
149,148.47,148.46,33
149,148.48,148.47,34
149,148.49,148.47,34
150,148.52,148.49,35
150,148.55,148.50,35
149,148.56,148.51,36
150,148.59,148.52,36
151,148.63,148.55,37
150,148.66,148.56,37
149,148.67,148.57,38
147,148.63,148.55,38
150,148.66,148.57,39
150,148.69,148.58,39
150,148.72,148.60,40
149,148.72,148.60,40
150,148.75,148.61,40
150,148.77,148.63,40
150,148.80,148.64,40
150,148.82,148.65,40
150,148.84,148.67,40
149,148.85,148.67,40
149,148.85,148.67,40
151,148.89,148.70,40
150,148.92,148.71,40
149,148.92,148.71,40
150,148.94,148.73,40
150,148.96,148.74,40
149,148.96,148.74,40
149,148.96,148.74,40
150,148.98,148.76,40
150,149.00,148.77,40
150,149.02,148.78,40
151,149.06,148.80,40
150,149.08,148.82,40
151,149.12,148.84,40
151,149.16,148.86,40
150,149.17,148.87,40
149,149.17,148.87,40
152,149.23,148.90,40
151,149.26,148.92,40
150,149.28,148.94,40
150,149.29,148.95,40
150,149.31,148.96,40
150,149.32,148.97,40
150,149.33,148.98,40
151,149.37,149.00,40
150,149.38,149.01,40
151,149.41,149.03,40
151,149.44,149.05,40
149,149.43,149.05,40
150,149.45,149.06,40
150,149.46,149.07,40
150,149.47,149.08,40
151,149.50,149.09,40
150,149.51,149.10,40
150,149.52,149.11,40
151,149.55,149.13,40
151,149.58,149.15,40
150,149.59,149.16,40
150,149.59,149.17,40
149,149.58,149.17,40
150,149.59,149.17,40
149,149.58,149.17,40
150,149.59,149.18,40
150,149.60,149.19,40
151,149.62,149.21,40
150,149.63,149.21,40
150,149.64,149.22,40
150,149.65,149.23,40
149,149.63,149.23,40
151,149.66,149.25,40
150,149.67,149.25,40
150,149.67,149.26,40
150,149.68,149.27,40
151,149.71,149.29,40
150,149.71,149.29,40
149,149.70,149.29,40
151,149.72,149.31,40
149,149.71,149.30,40
150,149.72,149.31,40
150,149.72,149.32,40
150,149.73,149.32,40
149,149.71,149.32,40
150,149.72,149.33,40
150,149.72,149.33,40
149,149.71,149.33,40
150,149.71,149.34,40
151,149.74,149.35,40
150,149.75,149.36,40
149,149.73,149.36,40
147,149.68,149.33,40
149,149.66,149.33,40
150,149.67,149.34,40
150,149.68,149.34,40
150,149.68,149.35,40
151,149.71,149.37,40
151,149.73,149.38,40
147,149.68,149.36,40
150,149.69,149.37,40
150,149.69,149.37,40
151,149.72,149.39,40
151,149.74,149.40,40
151,149.77,149.42,40
151,149.79,149.44,40
150,149.80,149.44,40
151,149.82,149.46,40
151,149.85,149.47,40
150,149.85,149.48,40
151,149.87,149.49,40
151,149.89,149.51,40
151,149.92,149.52,40
152,149.96,149.55,40
150,149.96,149.55,40
150,149.96,149.56,40
151,149.98,149.57,40
150,149.98,149.58,40
150,149.98,149.58,40
151,150.00,149.59,40
150,150.00,149.60,40
151,150.02,149.61,40
150,150.02,149.62,40
150,150.02,149.62,40
151,150.04,149.63,40
151,150.06,149.65,40
150,150.06,149.65,40
150,150.06,149.65,40
151,150.08,149.67,40
150,150.07,149.67,40
150,150.07,149.67,40
150,150.07,149.68,40
150,150.07,149.68,40
151,150.09,149.69,40
151,150.11,149.71,40
150,150.11,149.71,40
150,150.10,149.71,40
151,150.12,149.73,40
150,150.12,149.73,40
151,150.14,149.74,40
150,150.13,149.74,40
150,150.13,149.75,40
150,150.13,149.75,40
149,150.11,149.74,40
151,150.12,149.75,40
152,150.16,149.78,40
150,150.16,149.78,40
151,150.17,149.79,40
151,150.19,149.80,40
150,150.19,149.81,40
150,150.18,149.81,40
150,150.18,149.81,40
151,150.20,149.82,40
151,150.21,149.83,40
150,150.21,149.83,40
151,150.22,149.85,40
150,150.22,149.85,40
151,150.24,149.86,40
150,150.23,149.86,40
151,150.25,149.87,40
150,150.24,149.87,40
152,150.28,149.89,40
151,150.29,149.91,40
150,150.28,149.91,40
150,150.28,149.91,40
151,150.29,149.92,40
151,150.31,149.93,40
150,150.30,149.93,40
150,150.30,149.93,40
151,150.31,149.94,40
150,150.30,149.94,40
150,150.30,149.94,40
150,150.29,149.94,40
151,150.31,149.95,40
151,150.32,149.96,40
152,150.35,149.98,40
150,150.35,149.98,40
151,150.36,149.99,40
151,150.37,150.00,40
152,150.40,150.02,40
153,150.46,150.05,40
151,150.47,150.06,40
151,150.48,150.07,40
152,150.51,150.09,40
151,150.52,150.10,40
150,150.51,150.10,40
151,150.52,150.11,40
151,150.53,150.12,40
151,150.54,150.13,40
151,150.55,150.14,40
150,150.54,150.13,40
152,150.56,150.15,40
153,150.61,150.18,40
152,150.64,150.20,40
150,150.63,150.20,40
150,150.62,150.20,40
151,150.62,150.20,40
152,150.65,150.22,40
151,150.66,150.23,40
150,150.64,150.23,40
151,150.65,150.24,40
152,150.68,150.25,40
150,150.67,150.25,40
151,150.67,150.26,40
151,150.68,150.27,40
151,150.68,150.27,40
150,150.67,150.27,40
150,150.66,150.27,40
150,150.64,150.26,40
151,150.65,150.27,40
151,150.66,150.28,40
150,150.65,150.28,40
151,150.65,150.28,40
151,150.66,150.29,40
151,150.67,150.30,40
155,150.75,150.34,40
151,150.76,150.35,40
151,150.76,150.36,40
150,150.75,150.35,40
151,150.75,150.36,40
151,150.76,150.37,40
150,150.74,150.36,40
151,150.75,150.37,40
151,150.75,150.38,40
151,150.76,150.38,40
151,150.76,150.39,40
150,150.75,150.38,40
151,150.75,150.39,40
152,150.78,150.41,40
151,150.78,150.41,40
151,150.79,150.42,40
152,150.81,150.43,40
152,150.83,150.45,40
151,150.84,150.46,40
150,150.82,150.45,40
151,150.82,150.46,40
151,150.83,150.46,40
151,150.83,150.47,40
150,150.81,150.46,40
150,150.80,150.46,40
152,150.82,150.47,40
151,150.83,150.48,40
150,150.81,150.47,40
151,150.81,150.48,40
150,150.80,150.47,40
151,150.80,150.48,40
150,150.79,150.47,40
150,150.77,150.47,40
150,150.75,150.47,40
151,150.76,150.47,40
151,150.76,150.48,40
150,150.75,150.47,40
150,150.73,150.47,40
150,150.72,150.46,40
151,150.72,150.47,40
151,150.73,150.47,40
151,150.74,150.48,40
150,150.72,150.47,40
150,150.71,150.47,40
151,150.71,150.47,40
150,150.70,150.47,40
150,150.68,150.46,40
150,150.67,150.46,40
150,150.66,150.46,40
151,150.66,150.46,40
150,150.65,150.46,40
150,150.64,150.45,40
151,150.64,150.46,40
151,150.65,150.46,40
150,150.64,150.46,40
150,150.63,150.45,40
