Teste de posicionamento 3(EMG tendao-inervacao (Vermelho A, Verde C) + Ref no pulso) - 16/09/2024 - teste4 - 5 contrações
long frequencia = 1000;                 //frequência de aquisição do sinal, neste caso, 1000 sinais por segundo
float fator1 = 0.02, fator2 = 0.01;
float incerteza = 0.13;
float pico_basal = 130; // Mínimo para ser considerado um pico de contração
int filtro_horizontal=200000; //intervalo de 200ms valores não pode ter mais de 1 contração

Biceps_D,mediaMovel_1,mediaMovel_2,Contracao
100,2.00,1.00,0
101,3.98,2.00,0
100,5.90,2.98,0
98,7.74,3.93,0
100,9.59,4.89,0
100,11.40,5.84,0
104,13.25,6.82,0
100,14.98,7.76,0
99,16.66,8.67,0
98,18.29,9.56,0
98,19.88,10.45,0
98,21.45,11.32,0
100,23.02,12.21,0
101,24.58,13.10,0
103,26.15,13.99,0
99,27.60,14.84,0
101,29.07,15.71,0
100,30.49,16.55,0
99,31.86,17.37,0
99,33.20,18.19,0
98,34.50,18.99,0
100,35.81,19.80,0
99,37.07,20.59,0
101,38.35,21.39,0
99,39.56,22.17,0
98,40.73,22.93,0
99,41.90,23.69,0
98,43.02,24.43,0
100,44.16,25.19,0
100,45.28,25.94,0
98,46.33,26.66,0
97,47.34,27.36,0
99,48.38,28.08,0
99,49.39,28.79,0
100,50.40,29.50,0
99,51.37,30.19,0
97,52.29,30.86,0
97,53.18,31.52,0
99,54.10,32.20,0
100,55.02,32.88,0
99,55.89,33.54,0
98,56.74,34.18,0
98,57.56,34.82,0
99,58.39,35.46,0
100,59.22,36.11,0
100,60.04,36.75,0
97,60.78,37.35,0
99,61.54,37.96,0
98,62.27,38.57,0
98,62.99,39.16,0
98,63.69,39.75,0
100,64.41,40.35,0
99,65.10,40.94,0
97,65.74,41.50,0
99,66.41,42.07,0
100,67.08,42.65,0
98,67.70,43.21,0
99,68.32,43.76,0
98,68.92,44.31,0
100,69.54,44.86,0
98,70.11,45.39,0
98,70.67,45.92,0
98,71.21,46.44,0
98,71.75,46.96,0
96,72.23,47.45,0
98,72.75,47.95,0
100,73.29,48.47,0
98,73.79,48.97,0
100,74.31,49.48,0
99,74.81,49.97,0
97,75.25,50.44,0
100,75.74,50.94,0
97,76.17,51.40,0
98,76.61,51.87,0
98,77.03,52.33,0
99,77.47,52.79,0
100,77.92,53.27,0
100,78.37,53.73,0
99,78.78,54.19,0
97,79.14,54.61,0
98,79.52,55.05,0
98,79.89,55.48,0
100,80.29,55.92,0
100,80.69,56.36,0
98,81.03,56.78,0
97,81.35,57.18,0
98,81.68,57.59,0
99,82.03,58.00,0
98,82.35,58.40,0
98,82.66,58.80,0
99,82.99,59.20,0
99,83.31,59.60,0
98,83.60,59.98,0
100,83.93,60.38,0
99,84.23,60.77,0
98,84.51,61.14,0
98,84.78,61.51,0
98,85.04,61.88,0
98,85.30,62.24,0
100,85.60,62.62,0
98,85.84,62.97,0
97,86.07,63.31,0
97,86.29,63.65,0
98,86.52,63.99,0
98,86.75,64.33,0
99,86.99,64.68,0
99,87.23,65.02,0
98,87.45,65.35,0
99,87.68,65.69,0
106,88.05,66.09,0
98,88.25,66.41,0
98,88.44,66.72,0
97,88.61,67.03,0
98,88.80,67.34,0
99,89.00,67.65,0
100,89.22,67.98,0
98,89.40,68.28,0
97,89.55,68.56,0
99,89.74,68.87,0
98,89.91,69.16,0
99,90.09,69.46,0
100,90.29,69.76,0
97,90.42,70.04,0
98,90.57,70.32,0
99,90.74,70.60,0
100,90.93,70.90,0
100,91.11,71.19,0
98,91.25,71.46,0
97,91.36,71.71,0
98,91.49,71.97,0
99,91.64,72.24,0
98,91.77,72.50,0
97,91.88,72.75,0
98,92.00,73.00,0
98,92.12,73.25,0
98,92.24,73.50,0
100,92.39,73.76,0
99,92.52,74.01,0
98,92.63,74.25,0
97,92.72,74.48,0
98,92.83,74.72,0
99,92.95,74.96,0
100,93.09,75.21,0
98,93.19,75.44,0
98,93.28,75.66,0
98,93.38,75.89,0
96,93.43,76.09,0
100,93.56,76.33,0
99,93.67,76.55,0
97,93.74,76.76,0
97,93.80,76.96,0
98,93.89,77.17,0
100,94.01,77.40,0
100,94.13,77.63,0
98,94.21,77.83,0
97,94.26,78.02,0
98,94.34,78.22,0
98,94.41,78.42,0
98,94.48,78.61,0
99,94.57,78.82,0
97,94.62,79.00,0
98,94.69,79.19,0
98,94.75,79.38,0
100,94.86,79.58,0
99,94.94,79.78,0
97,94.98,79.95,0
97,95.02,80.12,0
98,95.08,80.30,0
98,95.14,80.48,0
100,95.24,80.67,0
99,95.31,80.86,0
97,95.35,81.02,0
97,95.38,81.18,0
99,95.45,81.36,0
102,95.58,81.56,0
97,95.61,81.72,0
98,95.66,81.88,0
99,95.73,82.05,0
98,95.77,82.21,0
99,95.84,82.38,0
98,95.88,82.53,0
98,95.92,82.69,0
98,95.96,82.84,0
98,96.01,82.99,0
101,96.10,83.17,0
99,96.16,83.33,0
97,96.18,83.47,0
98,96.22,83.61,0
98,96.25,83.76,0
98,96.29,83.90,0
100,96.36,84.06,0
98,96.39,84.20,0
97,96.41,84.33,0
98,96.44,84.46,0
97,96.45,84.59,0
99,96.50,84.73,0
98,96.53,84.87,0
98,96.56,85.00,0
98,96.59,85.13,0
98,96.62,85.26,0
98,96.64,85.38,0
99,96.69,85.52,0
98,96.72,85.65,0
97,96.72,85.76,0
98,96.75,85.88,0
98,96.77,86.00,0
100,96.84,86.14,0
99,96.88,86.27,0
98,96.90,86.39,0
98,96.93,86.50,0
98,96.95,86.62,0
100,97.01,86.75,0
99,97.05,86.88,0
98,97.07,86.99,0
97,97.07,87.09,0
99,97.10,87.21,0
98,97.12,87.31,0
99,97.16,87.43,0
98,97.18,87.54,0
97,97.17,87.63,0
98,97.19,87.74,0
98,97.21,87.84,0
100,97.26,87.96,0
103,97.38,88.11,0
98,97.39,88.21,0
99,97.42,88.32,0
97,97.41,88.40,0
99,97.44,88.51,0
99,97.48,88.61,0
100,97.53,88.73,0
96,97.50,88.80,0
98,97.51,88.89,0
97,97.50,88.97,0
99,97.53,89.07,0
98,97.54,89.16,0
98,97.54,89.25,0
97,97.53,89.33,0
98,97.54,89.42,0
99,97.57,89.51,0
98,97.58,89.60,0
98,97.59,89.68,0
97,97.58,89.75,0
99,97.61,89.85,0
101,97.67,89.96,0
98,97.68,90.04,0
98,97.69,90.12,0
97,97.67,90.19,0
96,97.64,90.24,0
98,97.65,90.32,0
101,97.71,90.43,0
99,97.74,90.52,0
97,97.72,90.58,0
98,97.73,90.65,0
98,97.74,90.73,0
98,97.74,90.80,0
98,97.75,90.87,0
98,97.75,90.94,0
97,97.74,91.00,0
96,97.70,91.05,0
98,97.71,91.12,0
100,97.75,91.21,0
98,97.76,91.28,0
98,97.76,91.35,0
97,97.75,91.40,0
97,97.73,91.46,0
98,97.74,91.53,0
98,97.74,91.59,0
98,97.75,91.65,0
96,97.71,91.70,0
96,97.68,91.74,0
98,97.69,91.80,0
98,97.69,91.87,0
98,97.70,91.93,0
98,97.70,91.99,0
96,97.67,92.03,0
98,97.68,92.09,0
98,97.68,92.15,0
100,97.73,92.22,0
97,97.71,92.27,0
97,97.70,92.32,0
95,97.65,92.35,0
98,97.65,92.40,0
98,97.66,92.46,0
98,97.67,92.51,0
95,97.61,92.54,0
97,97.60,92.58,0
96,97.57,92.62,0
98,97.58,92.67,0
95,97.53,92.70,0
96,97.50,92.73,0
96,97.47,92.76,0
98,97.48,92.81,0
99,97.51,92.88,0
98,97.52,92.93,0
96,97.49,92.96,0
96,97.46,92.99,0
98,97.47,93.04,0
98,97.48,93.09,0
98,97.49,93.14,0
98,97.50,93.19,0
97,97.49,93.22,0
98,97.50,93.27,0
98,97.51,93.32,0
98,97.52,93.37,0
99,97.55,93.42,0
98,97.56,93.47,0
96,97.53,93.49,0
96,97.50,93.52,0
98,97.51,93.56,0
98,97.52,93.61,0
97,97.51,93.64,0
96,97.48,93.66,0
97,97.47,93.70,0
96,97.44,93.72,0
98,97.45,93.76,0
99,97.48,93.82,0
97,97.47,93.85,0
100,97.52,93.91,0
97,97.51,93.94,0
98,97.52,93.98,0
98,97.53,94.02,0
98,97.54,94.06,0
95,97.49,94.07,0
96,97.46,94.09,0
96,97.43,94.11,0
98,97.44,94.15,0
99,97.47,94.20,0
96,97.44,94.21,0
97,97.43,94.24,0
97,97.42,94.27,0
98,97.44,94.31,0
100,97.49,94.36,0
98,97.50,94.40,0
97,97.49,94.43,0
97,97.48,94.45,0
98,97.49,94.49,0
98,97.50,94.52,0
98,97.51,94.56,0
98,97.52,94.59,0
98,97.53,94.63,0
97,97.52,94.65,0
98,97.53,94.68,0
98,97.54,94.72,0
97,97.53,94.74,0
96,97.50,94.75,0
97,97.49,94.77,0
98,97.50,94.81,0
99,97.53,94.85,0
98,97.54,94.88,0
96,97.50,94.89,0
98,97.51,94.92,0
100,97.56,94.97,0
98,97.57,95.00,0
95,97.52,95.00,0
97,97.51,95.02,0
96,97.48,95.03,0
96,97.45,95.04,0
97,97.44,95.06,0
98,97.45,95.09,0
97,97.44,95.11,0
98,97.46,95.14,0
96,97.43,95.15,0
97,97.42,95.17,0
98,97.43,95.20,0
98,97.44,95.22,0
95,97.39,95.22,0
96,97.36,95.23,0
96,97.34,95.24,0
98,97.35,95.26,0
99,97.38,95.30,0
96,97.36,95.31,0
97,97.35,95.33,0
96,97.32,95.33,0
97,97.32,95.35,0
98,97.33,95.38,0
96,97.30,95.38,0
96,97.28,95.39,0
95,97.23,95.38,0
96,97.21,95.39,0
98,97.22,95.42,0
97,97.22,95.43,0
96,97.19,95.44,0
96,97.17,95.44,0
96,97.15,95.45,0
96,97.12,95.45,0
98,97.14,95.48,0
98,97.16,95.50,0
96,97.13,95.51,0
96,97.11,95.51,0
95,97.07,95.51,0
97,97.07,95.52,0
102,97.17,95.59,0
96,97.14,95.59,0
96,97.12,95.60,0
97,97.12,95.61,0
97,97.12,95.63,0
98,97.13,95.65,0
96,97.11,95.65,0
96,97.09,95.66,0
96,97.07,95.66,0
97,97.07,95.67,0
98,97.08,95.70,0
98,97.10,95.72,0
96,97.08,95.72,0
96,97.06,95.72,0
96,97.04,95.73,0
97,97.04,95.74,0
98,97.06,95.76,0
97,97.06,95.78,0
96,97.03,95.78,0
95,96.99,95.77,0
96,96.97,95.77,0
98,96.99,95.79,0
97,96.99,95.81,0
96,96.97,95.81,0
98,96.99,95.83,0
98,97.01,95.85,0
97,97.01,95.86,0
97,97.01,95.87,0
99,97.05,95.91,0
96,97.03,95.91,0
95,96.99,95.90,0
97,96.99,95.91,0
95,96.95,95.90,0
96,96.93,95.90,0
95,96.89,95.89,0
95,96.86,95.88,0
96,96.84,95.88,0
97,96.84,95.90,0
98,96.87,95.92,0
97,96.87,95.93,0
96,96.85,95.93,0
96,96.83,95.93,0
98,96.86,95.95,0
98,96.88,95.97,0
97,96.88,95.98,0
95,96.85,95.97,0
96,96.83,95.97,0
97,96.83,95.98,0
98,96.86,96.00,0
97,96.86,96.01,0
96,96.84,96.01,0
98,96.86,96.03,0
96,96.85,96.03,0
96,96.83,96.03,0
96,96.81,96.03,0
95,96.78,96.02,0
95,96.74,96.01,0
95,96.71,96.00,0
96,96.69,96.00,0
97,96.70,96.01,0
95,96.66,96.00,0
95,96.63,95.99,0
94,96.58,95.97,0
96,96.57,95.97,0
95,96.54,95.96,0
98,96.57,95.98,0
96,96.55,95.98,0
95,96.52,95.97,0
95,96.49,95.96,0
96,96.48,95.96,0
96,96.47,95.96,0
97,96.48,95.97,0
95,96.45,95.96,0
96,96.44,95.96,0
96,96.44,95.96,0
96,96.43,95.96,0
97,96.44,95.97,0
96,96.43,95.97,0
94,96.38,95.95,0
97,96.39,95.97,0
95,96.37,95.96,0
96,96.36,95.96,0
96,96.35,95.96,0
95,96.32,95.95,0
95,96.30,95.94,0
96,96.29,95.94,0
97,96.31,95.95,0
96,96.30,95.95,0
95,96.27,95.94,0
96,96.27,95.94,0
96,96.26,95.94,0
96,96.26,95.94,0
96,96.25,95.94,0
96,96.25,95.94,0
94,96.20,95.92,0
95,96.18,95.91,0
96,96.17,95.91,0
96,96.17,95.92,0
96,96.17,95.92,0
95,96.14,95.91,0
95,96.12,95.90,0
96,96.12,95.90,0
96,96.12,95.90,0
95,96.09,95.89,0
94,96.05,95.87,0
94,96.01,95.85,0
96,96.01,95.86,0
95,95.99,95.85,0
96,95.99,95.85,0
97,96.01,95.86,0
96,96.01,95.86,0
95,95.99,95.85,0
98,96.03,95.87,0
96,96.03,95.88,0
96,96.03,95.88,0
96,96.03,95.88,0
94,95.99,95.86,0
96,95.99,95.86,0
95,95.97,95.85,0
97,95.99,95.86,0
98,96.03,95.88,0
96,96.03,95.89,0
95,96.01,95.88,0
95,95.99,95.87,0
96,95.99,95.87,0
96,95.99,95.87,0
96,95.99,95.87,0
94,95.95,95.85,0
97,95.97,95.86,0
96,95.97,95.87,0
95,95.95,95.86,0
95,95.93,95.85,0
94,95.89,95.83,0
96,95.90,95.83,0
95,95.88,95.82,0
95,95.86,95.82,0
97,95.88,95.83,0
95,95.87,95.82,0
94,95.83,95.80,0
99,95.89,95.83,0
97,95.91,95.84,0
96,95.92,95.85,0
94,95.88,95.83,0
97,95.90,95.84,0
95,95.88,95.83,0
94,95.84,95.81,0
96,95.85,95.81,0
95,95.83,95.81,0
95,95.81,95.80,0
94,95.78,95.78,0
96,95.78,95.78,0
96,95.79,95.78,0
96,95.79,95.79,0
95,95.77,95.78,0
94,95.74,95.76,0
92,95.66,95.72,0
97,95.69,95.74,0
95,95.68,95.73,0
94,95.64,95.71,0
94,95.61,95.69,0
95,95.60,95.69,0
95,95.59,95.68,0
96,95.60,95.68,0
96,95.60,95.69,0
95,95.59,95.68,0
95,95.58,95.67,0
94,95.55,95.66,0
96,95.56,95.66,0
95,95.55,95.65,0
95,95.53,95.65,0
94,95.50,95.63,0
94,95.47,95.61,0
94,95.44,95.60,0
96,95.46,95.60,0
96,95.47,95.61,0
94,95.44,95.59,0
95,95.43,95.58,0
94,95.40,95.57,0
94,95.37,95.55,0
95,95.36,95.55,0
95,95.36,95.54,0
94,95.33,95.53,0
94,95.30,95.51,0
96,95.32,95.52,0
95,95.31,95.51,0
96,95.32,95.52,0
96,95.34,95.52,0
95,95.33,95.52,0
95,95.32,95.51,0
94,95.30,95.49,0
95,95.29,95.49,0
95,95.29,95.49,0
94,95.26,95.47,0
94,95.24,95.46,0
95,95.23,95.45,0
95,95.23,95.45,0
96,95.24,95.45,0
94,95.22,95.44,0
94,95.19,95.42,0
95,95.19,95.42,0
96,95.20,95.42,0
96,95.22,95.43,0
96,95.24,95.44,0
95,95.23,95.43,0
95,95.23,95.43,0
94,95.20,95.41,0
96,95.22,95.42,0
95,95.21,95.41,0
94,95.19,95.40,0
95,95.19,95.40,0
94,95.16,95.38,0
96,95.18,95.39,0
96,95.20,95.39,0
94,95.17,95.38,0
95,95.17,95.38,0
96,95.18,95.38,0
96,95.20,95.39,0
97,95.24,95.41,0
96,95.25,95.41,0
95,95.25,95.41,0
97,95.28,95.42,0
96,95.30,95.43,0
97,95.33,95.44,0
97,95.36,95.46,0
98,95.42,95.49,0
96,95.43,95.49,0
95,95.42,95.49,0
96,95.43,95.49,0
97,95.46,95.51,0
96,95.47,95.51,0
94,95.44,95.50,0
94,95.42,95.48,0
95,95.41,95.48,0
96,95.42,95.48,0
95,95.41,95.48,0
94,95.38,95.46,0
96,95.39,95.47,0
95,95.39,95.46,0
96,95.40,95.47,0
96,95.41,95.47,0
97,95.44,95.49,0
96,95.45,95.49,0
96,95.46,95.50,0
98,95.52,95.52,0
95,95.51,95.52,0
94,95.48,95.50,0
96,95.49,95.51,0
95,95.48,95.50,0
96,95.49,95.51,0
95,95.48,95.50,0
95,95.47,95.50,0
94,95.44,95.48,0
97,95.47,95.50,0
95,95.46,95.49,0
98,95.51,95.52,0
96,95.52,95.52,0
97,95.55,95.54,0
95,95.54,95.53,0
94,95.51,95.52,0
94,95.48,95.50,0
96,95.49,95.51,0
96,95.50,95.51,0
95,95.49,95.51,0
94,95.46,95.49,0
95,95.45,95.49,0
94,95.42,95.47,0
94,95.39,95.46,0
94,95.36,95.44,0
95,95.36,95.44,0
94,95.33,95.42,0
92,95.26,95.39,0
96,95.28,95.40,0
95,95.27,95.39,0
95,95.27,95.39,0
94,95.24,95.37,0
97,95.28,95.39,0
95,95.27,95.39,0
96,95.29,95.39,0
94,95.26,95.38,0
96,95.28,95.38,0
95,95.27,95.38,0
96,95.28,95.39,0
96,95.30,95.39,0
95,95.29,95.39,0
95,95.29,95.39,0
94,95.26,95.37,0
94,95.24,95.36,0
96,95.25,95.36,0
97,95.29,95.38,0
96,95.30,95.39,0
96,95.31,95.39,0
96,95.33,95.40,0
94,95.30,95.39,0
94,95.28,95.37,0
96,95.29,95.38,0
94,95.26,95.36,0
94,95.24,95.35,0
95,95.23,95.35,0
96,95.25,95.35,0
96,95.26,95.36,0
95,95.26,95.36,0
94,95.23,95.34,0
94,95.21,95.33,0
96,95.23,95.34,0
96,95.24,95.34,0
96,95.26,95.35,0
94,95.23,95.34,0
95,95.23,95.33,0
97,95.26,95.35,0
98,95.32,95.38,0
100,95.41,95.42,0
99,95.48,95.46,0
98,95.53,95.48,0
96,95.54,95.49,0
96,95.55,95.49,0
98,95.60,95.52,0
96,95.61,95.52,0
95,95.60,95.52,0
96,95.60,95.52,0
98,95.65,95.55,0
98,95.70,95.57,0
95,95.68,95.57,0
96,95.69,95.57,0
96,95.70,95.57,0
96,95.70,95.58,0
98,95.75,95.60,0
98,95.79,95.63,0
97,95.82,95.64,0
96,95.82,95.64,0
97,95.85,95.66,0
100,95.93,95.70,0
99,95.99,95.73,0
99,96.05,95.77,0
100,96.13,95.81,0
97,96.15,95.82,0
98,96.18,95.84,0
99,96.24,95.87,0
100,96.32,95.92,0
97,96.33,95.93,0
98,96.36,95.95,0
98,96.40,95.97,0
98,96.43,95.99,0
99,96.48,96.02,0
100,96.55,96.06,0
98,96.58,96.08,0
98,96.61,96.10,0
98,96.63,96.12,0
100,96.70,96.15,0
99,96.75,96.18,0
99,96.79,96.21,0
100,96.86,96.25,0
101,96.94,96.30,0
104,97.08,96.37,0
102,97.18,96.43,0
101,97.26,96.48,0
99,97.29,96.50,0
100,97.34,96.54,0
101,97.42,96.58,0
102,97.51,96.63,0
100,97.56,96.67,0
101,97.63,96.71,0
99,97.66,96.73,0
100,97.70,96.77,0
100,97.75,96.80,0
99,97.77,96.82,0
99,97.80,96.84,0
102,97.88,96.90,0
103,97.98,96.96,0
104,98.10,97.03,0
104,98.22,97.10,0
102,98.30,97.15,0
101,98.35,97.18,0
100,98.39,97.21,0
103,98.48,97.27,0
103,98.57,97.33,0
101,98.62,97.36,0
101,98.66,97.40,0
101,98.71,97.44,0
103,98.80,97.49,0
105,98.92,97.57,0
104,99.02,97.63,0
102,99.08,97.68,0
102,99.14,97.72,0
104,99.24,97.78,0
103,99.31,97.83,0
102,99.37,97.88,0
103,99.44,97.93,0
103,99.51,97.98,0
104,99.60,98.04,0
106,99.73,98.12,0
104,99.81,98.18,0
102,99.86,98.21,0
103,99.92,98.26,0
104,100.00,98.32,0
105,100.10,98.39,0
105,100.20,98.45,0
102,100.24,98.49,0
106,100.35,98.56,0
103,100.40,98.61,0
109,100.58,98.71,0
107,100.70,98.79,0
104,100.77,98.85,0
105,100.85,98.91,0
106,100.96,98.98,0
108,101.10,99.07,0
108,101.24,99.16,0
108,101.37,99.25,0
104,101.42,99.29,0
108,101.56,99.38,0
108,101.68,99.47,0
108,101.81,99.55,0
106,101.89,99.62,0
108,102.02,99.70,0
108,102.14,99.78,0
107,102.23,99.86,0
106,102.31,99.92,0
105,102.36,99.97,0
106,102.44,100.03,0
109,102.57,100.12,0
109,102.70,100.21,0
109,102.82,100.30,0
107,102.91,100.36,0
108,103.01,100.44,0
109,103.13,100.52,0
109,103.24,100.61,0
107,103.32,100.67,0
108,103.41,100.75,0
109,103.53,100.83,0
110,103.65,100.92,0
108,103.74,100.99,0
107,103.81,101.05,0
107,103.87,101.11,0
110,103.99,101.20,0
111,104.13,101.30,0
107,104.19,101.35,0
108,104.27,101.42,0
111,104.40,101.52,0
112,104.55,101.62,0
109,104.64,101.70,0
109,104.73,101.77,0
109,104.81,101.84,0
109,104.90,101.91,0
109,104.98,101.98,0
108,105.04,102.04,0
109,105.12,102.11,0
108,105.18,102.17,0
109,105.25,102.24,0
111,105.37,102.33,0
109,105.44,102.39,0
107,105.47,102.44,0
109,105.54,102.51,0
109,105.61,102.57,0
109,105.68,102.64,0
109,105.75,102.70,0
109,105.81,102.76,0
112,105.94,102.85,0
111,106.04,102.94,0
109,106.10,103.00,0
109,106.15,103.06,0
110,106.23,103.13,0
111,106.33,103.20,0
113,106.46,103.30,0
110,106.53,103.37,0
111,106.62,103.45,0
111,106.71,103.52,0
111,106.79,103.60,0
109,106.84,103.65,0
111,106.92,103.72,0
111,107.00,103.80,0
111,107.08,103.87,0
109,107.12,103.92,0
111,107.20,103.99,0
111,107.27,104.06,0
111,107.35,104.13,0
109,107.38,104.18,0
110,107.43,104.24,0
114,107.57,104.33,0
113,107.67,104.42,0
110,107.72,104.48,0
110,107.77,104.53,0
111,107.83,104.60,0
109,107.85,104.64,0
111,107.92,104.70,0
111,107.98,104.77,0
111,108.04,104.83,0
109,108.06,104.87,0
110,108.10,104.92,0
109,108.12,104.96,0
109,108.13,105.00,0
109,108.15,105.04,0
109,108.17,105.08,0
109,108.18,105.12,0
115,108.32,105.22,0
113,108.41,105.30,0
111,108.47,105.36,0
113,108.56,105.43,0
113,108.65,105.51,0
113,108.73,105.58,0
112,108.80,105.65,0
113,108.88,105.72,0
111,108.92,105.77,0
111,108.97,105.83,0
113,109.05,105.90,0
115,109.17,105.99,0
111,109.20,106.04,0
113,109.28,106.11,0
111,109.31,106.16,0
113,109.39,106.23,0
114,109.48,106.30,0
113,109.55,106.37,0
111,109.58,106.42,0
113,109.65,106.48,0
116,109.77,106.58,0
112,109.82,106.63,0
116,109.94,106.73,0
115,110.04,106.81,0
117,110.18,106.91,0
113,110.24,106.97,0
113,110.29,107.03,0
114,110.37,107.10,0
117,110.50,107.20,0
119,110.67,107.32,0
118,110.82,107.43,0
117,110.94,107.52,0
114,111.00,107.59,0
116,111.10,107.67,0
117,111.22,107.76,0
119,111.38,107.88,0
119,111.53,107.99,0
120,111.70,108.11,0
117,111.80,108.20,0
117,111.91,108.28,0
116,111.99,108.36,0
117,112.09,108.45,0
117,112.19,108.53,0
120,112.34,108.65,0
119,112.48,108.75,0
120,112.63,108.86,0
117,112.71,108.94,0
117,112.80,109.03,0
115,112.84,109.09,0
119,112.97,109.18,0
120,113.11,109.29,0
118,113.21,109.38,0
121,113.36,109.50,0
119,113.47,109.59,0
119,113.59,109.68,0
123,113.77,109.82,0
118,113.86,109.90,0
118,113.94,109.98,0
117,114.00,110.05,0
117,114.06,110.12,0
118,114.14,110.20,0
117,114.20,110.27,0
117,114.25,110.33,0
119,114.35,110.42,0
118,114.42,110.50,0
118,114.49,110.57,0
117,114.54,110.64,0
117,114.59,110.70,0
117,114.64,110.76,0
119,114.73,110.85,0
117,114.77,110.91,0
117,114.82,110.97,0
117,114.86,111.03,0
119,114.94,111.11,0
120,115.05,111.20,0
119,115.12,111.27,0
119,115.20,111.35,0
119,115.28,111.43,0
117,115.31,111.48,0
121,115.43,111.58,0
121,115.54,111.67,0
121,115.65,111.77,0
121,115.75,111.86,0
119,115.82,111.93,0
121,115.92,112.02,0
119,115.98,112.09,0
119,116.04,112.16,0
123,116.18,112.27,0
117,116.20,112.32,0
119,116.26,112.38,0
125,116.43,112.51,0
120,116.50,112.58,0
124,116.65,112.70,0
121,116.74,112.78,0
120,116.80,112.85,0
123,116.93,112.95,0
125,117.09,113.08,0
122,117.19,113.16,0
126,117.36,113.29,0
128,117.58,113.44,0
127,117.77,113.58,0
125,117.91,113.69,0
122,117.99,113.77,0
123,118.09,113.87,0
125,118.23,113.98,0
123,118.33,114.07,0
123,118.42,114.16,0
121,118.47,114.22,0
123,118.56,114.31,0
121,118.61,114.38,0
121,118.66,114.45,0
124,118.76,114.54,0
123,118.85,114.63,0
123,118.93,114.71,0
123,119.01,114.79,0
124,119.11,114.88,0
123,119.19,114.97,0
124,119.29,115.06,0
121,119.32,115.12,0
122,119.38,115.18,0
123,119.45,115.26,0
122,119.50,115.33,0
124,119.59,115.42,0
121,119.62,115.47,0
121,119.64,115.53,0
124,119.73,115.61,0
121,119.76,115.67,0
127,119.90,115.78,0
127,120.04,115.89,0
123,120.10,115.96,0
124,120.18,116.04,0
125,120.28,116.13,0
126,120.39,116.23,0
121,120.40,116.28,0
127,120.54,116.39,0
124,120.61,116.46,0
123,120.65,116.53,0
124,120.72,116.60,0
123,120.77,116.67,0
123,120.81,116.73,0
126,120.91,116.82,0
123,120.96,116.88,0
123,121.00,116.95,0
124,121.06,117.02,0
122,121.08,117.07,0
123,121.11,117.13,0
121,121.11,117.16,0
123,121.15,117.22,0
121,121.15,117.26,0
123,121.18,117.32,0
125,121.26,117.39,0
129,121.41,117.51,0
125,121.49,117.59,0
124,121.54,117.65,0
127,121.65,117.74,0
127,121.75,117.84,0
129,121.90,117.95,0
124,121.94,118.01,0
129,122.08,118.12,0
128,122.20,118.22,0
125,122.26,118.28,0
125,122.31,118.35,0
127,122.40,118.44,0
127,122.50,118.52,0
127,122.59,118.61,0
129,122.71,118.71,0
127,122.80,118.80,0
130,122.94,118.91,0
132,123.13,119.04,0
129,123.24,119.14,0
127,123.32,119.22,0
127,123.39,119.29,0
127,123.46,119.37,0
129,123.57,119.47,0
131,123.72,119.58,0
128,123.81,119.67,0
128,123.89,119.75,0
131,124.03,119.86,0
130,124.15,119.96,0
129,124.25,120.05,0
130,124.37,120.15,0
128,124.44,120.23,0
131,124.57,120.34,0
128,124.64,120.42,0
134,124.83,120.55,0
136,125.05,120.71,0
139,125.33,120.89,0
133,125.48,121.01,0
132,125.61,121.12,0
134,125.78,121.25,0
139,126.04,121.43,0
141,126.34,121.62,0
139,126.60,121.80,0
139,126.84,121.97,0
135,127.01,122.10,0
135,127.17,122.23,0
140,127.42,122.41,0
141,127.70,122.59,0
137,127.88,122.74,0
137,128.06,122.88,0
136,128.22,123.01,0
144,128.54,123.22,0
143,128.83,123.42,0
137,128.99,123.55,0
138,129.17,123.70,0
144,129.47,123.90,0
145,129.78,124.11,0
143,130.04,124.30,0
141,130.26,124.47,0
145,130.56,124.67,0
141,130.77,124.84,0
141,130.97,125.00,0
140,131.15,125.15,0
145,131.43,125.35,0
145,131.70,125.54,0
149,132.05,125.78,0
144,132.28,125.96,0
142,132.48,126.12,0
143,132.69,126.29,0
146,132.96,126.49,0
149,133.28,126.71,0
147,133.55,126.91,0
145,133.78,127.09,0
153,134.16,127.35,0
153,134.54,127.61,0
145,134.75,127.78,0
155,135.16,128.06,0
155,135.55,128.33,0
149,135.82,128.53,0
148,136.06,128.73,0
149,136.32,128.93,0
153,136.66,129.17,0
150,136.92,129.38,0
149,137.17,129.58,0
152,137.46,129.80,0
153,137.77,130.03,0
149,138.00,130.22,0
147,138.18,130.39,0
159,138.59,130.68,0
156,138.94,130.93,0
155,139.26,131.17,0
153,139.54,131.39,0
151,139.77,131.58,0
154,140.05,131.81,0
151,140.27,132.00,0
151,140.49,132.19,0
149,140.66,132.36,0
155,140.94,132.58,0
152,141.16,132.78,0
156,141.46,133.01,0
159,141.81,133.27,0
167,142.31,133.61,0
164,142.75,133.91,0
169,143.27,134.26,0
169,143.79,134.61,0
167,144.25,134.93,0
161,144.59,135.19,0
161,144.92,135.45,0
163,145.28,135.73,0
165,145.67,136.02,0
161,145.98,136.27,0
161,146.28,136.52,0
165,146.65,136.80,0
161,146.94,137.04,0
164,147.28,137.31,0
169,147.72,137.63,0
166,148.08,137.91,0
177,148.66,138.31,0
165,148.99,138.57,0
169,149.39,138.88,0
164,149.68,139.13,0
167,150.03,139.41,0
169,150.41,139.70,0
165,150.70,139.96,0
167,151.02,140.23,0
165,151.30,140.47,0
173,151.74,140.80,0
167,152.04,141.06,0
176,152.52,141.41,0
183,153.13,141.83,0
185,153.77,142.26,0
180,154.29,142.64,0
189,154.99,143.10,0
191,155.71,143.58,0
193,156.45,144.07,0
191,157.14,144.54,0
184,157.68,144.94,0
183,158.19,145.32,0
184,158.70,145.70,0
189,159.31,146.14,0
189,159.90,146.57,0
185,160.41,146.95,0
188,160.96,147.36,0
193,161.60,147.82,0
189,162.15,148.23,0
185,162.60,148.60,0
187,163.09,148.98,0
189,163.61,149.38,0
193,164.20,149.82,0
193,164.77,150.25,0
189,165.26,150.64,0
192,165.79,151.05,0
191,166.30,151.45,0
191,166.79,151.84,0
188,167.21,152.21,0
192,167.71,152.60,0
195,168.26,153.03,0
192,168.73,153.42,0
193,169.22,153.81,0
200,169.83,154.28,0
193,170.30,154.66,0
197,170.83,155.09,0
204,171.49,155.58,0
203,172.12,156.05,0
197,172.62,156.46,0
203,173.23,156.92,0
200,173.76,157.36,0
199,174.27,157.77,0
207,174.92,158.26,0
206,175.54,158.74,0
199,176.01,159.14,0
203,176.55,159.58,0
207,177.16,160.06,0
199,177.60,160.45,0
213,178.31,160.97,0
217,179.08,161.53,0
218,179.86,162.10,0
220,180.66,162.68,0
223,181.51,163.28,0
224,182.36,163.89,0
225,183.21,164.50,0
220,183.95,165.05,0
214,184.55,165.54,0
215,185.16,166.04,0
215,185.75,166.53,0
220,186.44,167.06,0
220,187.11,167.59,0
216,187.69,168.07,0
217,188.27,168.56,0
219,188.89,169.07,0
217,189.45,169.55,0
225,190.16,170.10,0
217,190.70,170.57,0
225,191.39,171.11,0
221,191.98,171.61,0
221,192.56,172.11,0
220,193.11,172.59,0
229,193.82,173.15,0
221,194.37,173.63,0
225,194.98,174.14,0
222,195.52,174.62,0
229,196.19,175.17,0
226,196.79,175.67,0
225,197.35,176.17,0
221,197.82,176.62,0
221,198.29,177.06,0
221,198.74,177.50,0
221,199.19,177.93,0
220,199.60,178.35,0
221,200.03,178.78,0
220,200.43,179.19,0
220,200.82,179.60,0
224,201.29,180.04,0
222,201.70,180.46,0
224,202.15,180.90,0
228,202.66,181.37,0
230,203.21,181.86,0
226,203.67,182.30,0
222,204.03,182.70,0
221,204.37,183.08,0
222,204.72,183.47,0
224,205.11,183.87,0
225,205.51,184.28,0
225,205.90,184.69,0
223,206.24,185.07,0
229,206.69,185.51,0
231,207.18,185.97,0
229,207.62,186.40,0
225,207.96,186.79,0
227,208.35,187.19,0
233,208.84,187.65,0
240,209.46,188.17,0
231,209.89,188.60,0
230,210.29,189.01,0
235,210.79,189.47,0
244,211.45,190.02,0
239,212.00,190.51,0
231,212.38,190.91,0
233,212.80,191.33,0
235,213.24,191.77,0
239,213.76,192.24,0
238,214.24,192.70,0
242,214.80,193.19,0
240,215.30,193.66,0
238,215.75,194.10,0
236,216.16,194.52,0
247,216.78,195.05,0
249,217.42,195.59,0
247,218.01,196.10,0
239,218.43,196.53,0
246,218.98,197.02,0
252,219.64,197.57,0
257,220.39,198.17,0
245,220.88,198.64,0
253,221.52,199.18,0
253,222.15,199.72,0
256,222.83,200.28,0
253,223.43,200.81,0
247,223.91,201.27,0
247,224.37,201.73,0
249,224.86,202.20,0
252,225.40,202.70,0
251,225.92,203.18,0
247,226.34,203.62,0
247,226.75,204.05,0
248,227.18,204.49,0
245,227.53,204.90,0
247,227.92,205.32,0
248,228.32,205.75,0
248,228.72,206.17,0
249,229.12,206.60,0
247,229.48,207.00,0
251,229.91,207.44,0
253,230.37,207.90,0
254,230.84,208.36,0
254,231.31,208.81,0
252,231.72,209.25,0
251,232.11,209.66,0
252,232.50,210.09,0
249,232.83,210.48,0
255,233.28,210.92,0
255,233.71,211.36,0
250,234.04,211.75,0
248,234.32,212.11,0
249,234.61,212.48,0
249,234.90,212.84,0
247,235.14,213.19,0
249,235.42,213.54,0
249,235.69,213.90,0
251,236.00,214.27,0
253,236.34,214.66,0
248,236.57,214.99,0
253,236.90,215.37,0
252,237.20,215.74,0
249,237.44,216.07,0
247,237.63,216.38,0
245,237.77,216.67,0
247,237.96,216.97,0
247,238.14,217.27,0
247,238.32,217.57,0
246,238.47,217.85,0
247,238.64,218.14,0
246,238.79,218.42,0
245,238.91,218.69,0
244,239.01,218.94,0
247,239.17,219.22,0
248,239.35,219.51,0
247,239.50,219.78,0
244,239.59,220.03,0
245,239.70,220.27,0
245,239.81,220.52,0
243,239.87,220.75,0
246,239.99,221.00,0
245,240.09,221.24,0
243,240.15,221.46,0
243,240.21,221.67,0
241,240.23,221.87,0
241,240.24,222.06,0
241,240.26,222.25,0
241,240.27,222.43,0
240,240.27,222.61,0
240,240.26,222.78,0
241,240.27,222.97,0
239,240.25,223.13,0
239,240.22,223.28,0
239,240.20,223.44,0
240,240.20,223.61,0
238,240.15,223.75,0
237,240.09,223.88,0
238,240.05,224.03,0
237,239.99,224.16,0
238,239.95,224.29,0
236,239.87,224.41,0
235,239.77,224.52,0
236,239.69,224.63,0
236,239.62,224.74,0
237,239.57,224.87,0
236,239.50,224.98,0
234,239.39,225.07,0
235,239.30,225.17,0
236,239.23,225.28,0
234,239.13,225.36,0
235,239.05,225.46,0
233,238.93,225.54,0
232,238.79,225.60,0
232,238.65,225.66,0
234,238.56,225.75,0
231,238.41,225.80,0
231,238.26,225.85,0
233,238.15,225.92,0
229,237.97,225.95,0
229,237.79,225.98,0
229,237.62,226.02,0
229,237.44,226.04,0
228,237.25,226.06,0
228,237.07,226.08,0
227,236.87,226.09,0
228,236.69,226.11,0
227,236.50,226.12,0
228,236.33,226.14,0
227,236.14,226.15,0
225,235.92,226.14,0
225,235.70,226.13,0
226,235.51,226.12,0
223,235.25,226.09,0
224,235.03,226.07,0
224,234.81,226.05,0
224,234.59,226.03,0
225,234.40,226.02,0
223,234.17,225.99,0
222,233.93,225.95,0
221,233.67,225.90,0
221,233.42,225.85,0
221,233.17,225.80,0
221,232.93,225.76,0
221,232.69,225.71,0
220,232.43,225.65,0
220,232.19,225.59,0
221,231.96,225.55,0
220,231.72,225.49,0
220,231.49,225.44,0
218,231.22,225.36,0
219,230.97,225.30,0
217,230.69,225.22,0
217,230.42,225.13,0
215,230.11,225.03,0
218,229.87,224.96,0
217,229.61,224.88,0
216,229.34,224.79,0
217,229.09,224.72,0
215,228.81,224.62,0
216,228.56,224.53,0
216,228.30,224.45,0
214,228.02,224.34,0
214,227.74,224.24,0
215,227.48,224.15,0
213,227.19,224.04,0
213,226.91,223.93,0
213,226.63,223.82,0
212,226.34,223.70,0
213,226.07,223.59,0
211,225.77,223.47,0
211,225.47,223.34,0
211,225.19,223.22,0
211,224.90,223.10,0
209,224.58,222.95,0
209,224.27,222.81,0
209,223.97,222.68,0
209,223.67,222.54,0
209,223.37,222.40,0
211,223.13,222.29,0
208,222.82,222.15,0
207,222.51,222.00,0
208,222.22,221.86,0
208,221.93,221.72,0
207,221.63,221.57,1
207,221.34,221.42,1
207,221.05,221.28,1
206,220.75,221.13,1
207,220.48,220.99,1
206,220.19,220.84,1
205,219.89,220.68,1
206,219.61,220.53,1
205,219.32,220.38,1
208,219.09,220.25,1
205,218.81,220.10,1
204,218.51,219.94,1
205,218.24,219.79,1
203,217.94,219.62,1
203,217.64,219.46,1
204,217.36,219.30,1
203,217.08,219.14,1
202,216.78,218.97,1
203,216.50,218.81,1
203,216.23,218.65,1
201,215.93,218.47,1
201,215.63,218.30,1
201,215.33,218.12,1
201,215.05,217.95,1
201,214.77,217.78,1
200,214.47,217.61,1
201,214.20,217.44,1
201,213.94,217.28,1
199,213.64,217.09,1
200,213.37,216.92,1
200,213.10,216.75,1
199,212.82,216.57,1
199,212.54,216.40,1
197,212.23,216.21,1
198,211.95,216.02,1
197,211.65,215.83,1
197,211.35,215.64,1
197,211.07,215.46,1
197,210.79,215.27,1
195,210.47,215.07,1
196,210.18,214.88,1
196,209.90,214.69,1
197,209.64,214.51,1
195,209.35,214.32,1
196,209.08,214.14,1
194,208.78,213.93,1
195,208.50,213.75,1
193,208.19,213.54,1
193,207.89,213.33,1
193,207.59,213.13,1
193,207.30,212.93,1
193,207.01,212.73,1
192,206.71,212.52,1
192,206.42,212.32,1
191,206.11,212.10,1
193,205.85,211.91,1
191,205.55,211.70,1
192,205.28,211.51,1
191,204.99,211.30,1
190,204.69,211.09,1
191,204.42,210.89,1
192,204.17,210.70,1
189,203.87,210.48,1
189,203.57,210.27,1
187,203.24,210.03,1
189,202.95,209.82,1
189,202.68,209.62,1
188,202.38,209.40,1
188,202.09,209.18,1
188,201.81,208.97,1
189,201.56,208.77,1
187,201.27,208.56,1
188,201.00,208.35,1
187,200.72,208.14,1
186,200.43,207.92,1
186,200.14,207.70,1
185,199.83,207.47,1
185,199.54,207.24,1
186,199.27,207.03,1
187,199.02,206.83,1
185,198.74,206.61,1
185,198.47,206.40,1
185,198.20,206.18,1
186,197.95,205.98,1
185,197.69,205.77,1
185,197.44,205.56,1
183,197.15,205.34,1
183,196.87,205.11,1
184,196.61,204.90,1
184,196.36,204.69,1
183,196.09,204.48,1
183,195.83,204.26,1
182,195.55,204.04,1
183,195.30,203.83,1
182,195.04,203.61,1
182,194.78,203.40,1
181,194.50,203.17,1
182,194.25,202.96,1
183,194.02,202.76,1
182,193.78,202.55,1
181,193.53,202.34,1
181,193.28,202.12,1
181,193.03,201.91,1
181,192.79,201.70,1
181,192.56,201.50,1
179,192.28,201.27,1
181,192.06,201.07,1
182,191.86,200.88,1
179,191.60,200.66,1
179,191.35,200.44,1
179,191.10,200.23,1
179,190.86,200.02,1
180,190.64,199.82,1
177,190.37,199.59,1
178,190.12,199.37,1
179,189.90,199.17,1
178,189.66,198.96,1
177,189.41,198.74,1
177,189.16,198.52,1
175,188.88,198.28,1
176,188.62,198.06,1
175,188.35,197.83,1
176,188.10,197.61,1
175,187.84,197.39,1
175,187.58,197.16,1
177,187.37,196.96,1
175,187.12,196.74,1
176,186.90,196.53,1
176,186.68,196.33,1
174,186.43,196.11,1
175,186.20,195.89,1
175,185.98,195.69,1
174,185.74,195.47,1
175,185.52,195.26,1
174,185.29,195.05,1
175,185.09,194.85,1
175,184.88,194.65,1
173,184.65,194.44,1
173,184.41,194.22,1
174,184.20,194.02,1
172,183.96,193.80,1
171,183.70,193.57,1
172,183.47,193.36,1
171,183.22,193.13,1
172,182.99,192.92,1
172,182.77,192.71,1
171,182.54,192.49,1
171,182.31,192.28,1
171,182.08,192.07,1
170,181.84,191.85,1
170,181.60,191.63,1
169,181.35,191.40,1
169,181.10,191.18,1
170,180.88,190.97,1
171,180.68,190.77,1
169,180.45,190.55,1
169,180.22,190.33,1
169,180.00,190.12,1
169,179.78,189.91,1
172,179.62,189.73,1
169,179.41,189.52,1
168,179.18,189.31,1
169,178.98,189.10,1
169,178.78,188.90,1
168,178.56,188.69,1
167,178.33,188.48,1
167,178.10,188.26,1
167,177.88,188.05,1
167,177.66,187.84,1
167,177.45,187.63,1
166,177.22,187.41,1
167,177.02,187.21,1
166,176.80,187.00,1
166,176.58,186.79,1
164,176.33,186.56,1
165,176.10,186.34,1
166,175.90,186.14,1
165,175.68,185.93,1
165,175.47,185.72,1
164,175.24,185.50,1
165,175.04,185.30,1
166,174.85,185.10,1
166,174.68,184.91,1
165,174.48,184.71,1
164,174.27,184.51,1
165,174.09,184.31,1
165,173.91,184.12,1
166,173.75,183.94,1
164,173.55,183.74,1
164,173.36,183.54,1
163,173.16,183.34,1
165,172.99,183.15,1
163,172.79,182.95,1
164,172.62,182.76,1
164,172.44,182.57,1
163,172.26,182.38,1
162,172.05,182.17,1
162,171.85,181.97,1
163,171.67,181.78,1
163,171.50,181.59,1
163,171.33,181.41,1
161,171.12,181.20,1
163,170.96,181.02,1
162,170.78,180.83,1
162,170.61,180.64,1
163,170.45,180.47,1
161,170.26,180.27,1
161,170.08,180.08,1
161,169.90,179.89,1
161,169.72,179.70,1
163,169.59,179.53,1
162,169.43,179.36,1
161,169.26,179.17,1
159,169.06,178.97,1
161,168.90,178.79,1
161,168.74,178.62,1
159,168.55,178.42,1
160,168.37,178.24,1
161,168.23,178.06,1
159,168.04,177.87,1
159,167.86,177.68,1
159,167.68,177.50,1
159,167.51,177.31,1
160,167.36,177.14,1
160,167.21,176.97,1
160,167.07,176.80,1
158,166.89,176.61,1
159,166.73,176.43,1
161,166.62,176.28,1
161,166.50,176.13,1
160,166.37,175.97,1
158,166.21,175.79,1
160,166.08,175.63,1
161,165.98,175.48,1
161,165.88,175.34,1
160,165.76,175.18,1
162,165.69,175.05,1
159,165.55,174.89,1
161,165.46,174.75,1
159,165.33,174.59,1
159,165.21,174.44,1
158,165.06,174.27,1
158,164.92,174.11,1
158,164.78,173.95,1
159,164.67,173.80,1
157,164.51,173.63,1
159,164.40,173.49,1
159,164.30,173.34,1
158,164.17,173.19,1
157,164.03,173.03,1
157,163.89,172.87,1
158,163.77,172.72,1
162,163.73,172.61,1
156,163.58,172.44,1
158,163.47,172.30,1
160,163.40,172.18,1
159,163.31,172.04,1
159,163.22,171.91,1
158,163.12,171.78,1
160,163.06,171.66,1
161,163.02,171.55,1
161,162.97,171.45,1
159,162.90,171.32,1
157,162.78,171.18,1
157,162.66,171.04,1
160,162.61,170.93,1
161,162.58,170.83,1
159,162.50,170.71,1
155,162.35,170.55,1
158,162.27,170.43,1
160,162.22,170.32,1
160,162.18,170.22,1
160,162.13,170.12,1
157,162.03,169.98,1
157,161.93,169.85,1
159,161.87,169.75,1
158,161.79,169.63,1
157,161.70,169.50,1
158,161.63,169.39,1
157,161.53,169.26,1
157,161.44,169.14,1
157,161.35,169.02,1
156,161.25,168.89,1
156,161.14,168.76,1
157,161.06,168.64,1
157,160.98,168.53,1
156,160.88,168.40,1
157,160.80,168.29,1
157,160.72,168.17,1
159,160.69,168.08,1
158,160.64,167.98,1
157,160.56,167.87,1
155,160.45,167.74,1
158,160.40,167.65,1
159,160.37,167.56,1
159,160.35,167.47,1
157,160.28,167.37,1
156,160.19,167.26,1
158,160.15,167.16,1
159,160.13,167.08,1
157,160.07,166.98,1
157,160.00,166.88,1
156,159.92,166.77,1
157,159.87,166.67,1
157,159.81,166.58,1
156,159.73,166.47,1
156,159.66,166.37,1
156,159.58,166.26,1
157,159.53,166.17,1
155,159.44,166.06,1
155,159.35,165.95,1
156,159.29,165.85,1
157,159.24,165.76,1
157,159.20,165.67,1
156,159.13,165.58,1
155,159.05,165.47,1
156,158.99,165.38,1
157,158.95,165.29,1
158,158.93,165.22,1
156,158.87,165.13,1
155,158.79,165.03,1
157,158.76,164.95,1
157,158.72,164.87,1
156,158.67,164.78,1
155,158.59,164.68,1
155,158.52,164.58,1
155,158.45,164.49,1
155,158.38,164.39,1
155,158.32,164.30,1
153,158.21,164.19,1
155,158.14,164.09,1
157,158.12,164.02,1
154,158.04,163.92,1
154,157.96,163.82,1
156,157.92,163.74,1
155,157.86,163.66,1
155,157.80,163.57,1
155,157.75,163.48,1
154,157.67,163.39,1
154,157.60,163.30,1
156,157.57,163.22,1
155,157.52,163.14,1
155,157.47,163.06,1
153,157.38,162.96,1
153,157.29,162.86,1
153,157.20,162.76,1
156,157.18,162.69,1
153,157.10,162.60,1
153,157.01,162.50,1
153,156.93,162.41,1
155,156.89,162.33,1
153,156.82,162.24,1
152,156.72,162.14,1
152,156.63,162.03,1
155,156.59,161.96,1
156,156.58,161.90,1
154,156.53,161.83,1
153,156.46,161.74,1
153,156.39,161.65,1
157,156.40,161.60,1
155,156.37,161.54,1
153,156.31,161.45,1
149,156.16,161.33,1
154,156.12,161.25,1
155,156.10,161.19,1
155,156.07,161.13,1
153,156.01,161.05,1
153,155.95,160.97,1
156,155.95,160.92,1
155,155.93,160.86,1
153,155.87,160.78,1
153,155.82,160.70,1
155,155.80,160.65,1
155,155.79,160.59,1
156,155.79,160.54,1
153,155.73,160.47,1
153,155.68,160.39,1
153,155.63,160.32,1
154,155.59,160.26,1
153,155.54,160.18,1
154,155.51,160.12,1
153,155.46,160.05,1
154,155.43,159.99,1
153,155.38,159.92,1
152,155.31,159.84,1
153,155.27,159.77,1
154,155.24,159.71,1
155,155.24,159.67,1
155,155.23,159.62,1
153,155.19,159.55,1
153,155.14,159.49,1
153,155.10,159.42,1
153,155.06,159.36,1
153,155.02,159.30,1
152,154.96,159.22,1
151,154.88,159.14,1
153,154.84,159.08,1
154,154.82,159.03,1
152,154.77,158.96,1
151,154.69,158.88,1
153,154.66,158.82,1
156,154.69,158.79,1
154,154.67,158.74,1
151,154.60,158.67,1
152,154.55,158.60,1
153,154.52,158.54,1
153,154.49,158.49,1
152,154.44,158.42,1
152,154.39,158.36,1
152,154.34,158.30,1
153,154.31,158.24,1
153,154.29,158.19,1
151,154.22,158.12,1
151,154.16,158.05,1
151,154.09,157.98,1
154,154.09,157.94,1
153,154.07,157.89,1
151,154.01,157.82,1
151,153.95,157.75,1
152,153.91,157.69,1
151,153.85,157.63,1
149,153.75,157.54,1
150,153.68,157.46,1
149,153.59,157.38,1
149,153.49,157.30,1
149,153.40,157.21,1
149,153.32,157.13,1
150,153.25,157.06,1
149,153.16,156.98,1
150,153.10,156.91,1
149,153.02,156.83,1
149,152.94,156.75,1
149,152.86,156.67,1
152,152.84,156.63,1
151,152.81,156.57,1
148,152.71,156.49,1
149,152.64,156.41,1
148,152.54,156.33,1
149,152.47,156.25,1
149,152.40,156.18,1
149,152.33,156.11,1
148,152.25,156.03,1
149,152.18,155.96,1
151,152.16,155.91,1
150,152.12,155.85,1
148,152.03,155.77,1
149,151.97,155.70,1
149,151.91,155.64,1
151,151.90,155.59,1
149,151.84,155.52,1
147,151.74,155.44,1
149,151.69,155.37,1
149,151.63,155.31,1
149,151.58,155.25,1
147,151.49,155.16,1
148,151.42,155.09,1
147,151.33,155.01,1
147,151.24,154.93,1
148,151.18,154.86,1
146,151.07,154.77,1
145,150.95,154.68,1
145,150.83,154.58,1
145,150.72,154.48,1
145,150.60,154.39,1
145,150.49,154.30,1
145,150.38,154.20,1
147,150.31,154.13,1
146,150.23,154.05,1
145,150.12,153.96,1
144,150.00,153.86,1
145,149.90,153.77,1
145,149.80,153.68,1
148,149.77,153.63,1
146,149.69,153.55,1
145,149.60,153.46,1
144,149.49,153.37,1
146,149.42,153.30,1
145,149.33,153.21,1
145,149.24,153.13,1
144,149.14,153.04,1
146,149.07,152.97,1
145,148.99,152.89,1
145,148.91,152.81,1
143,148.79,152.71,1
147,148.76,152.65,1
148,148.74,152.61,1
148,148.73,152.56,1
145,148.65,152.49,1
145,148.58,152.41,1
148,148.57,152.37,1
149,148.58,152.33,1
147,148.55,152.28,1
146,148.49,152.22,1
145,148.42,152.15,1
145,148.36,152.07,1
145,148.29,152.00,1
145,148.22,151.93,1
145,148.16,151.86,1
145,148.10,151.80,1
146,148.05,151.74,1
147,148.03,151.69,1
146,147.99,151.63,1
145,147.93,151.57,1
144,147.85,151.49,1
148,147.86,151.46,1
148,147.86,151.42,1
147,147.84,151.38,1
148,147.85,151.34,1
145,147.79,151.28,1
147,147.77,151.24,1
147,147.76,151.20,1
145,147.70,151.13,1
145,147.65,151.07,1
144,147.58,151.00,1
145,147.52,150.94,1
143,147.43,150.86,1
146,147.40,150.81,1
148,147.42,150.78,1
146,147.39,150.74,1
145,147.34,150.68,1
145,147.29,150.62,1
147,147.29,150.59,1
150,147.34,150.58,1
150,147.40,150.58,1
149,147.43,150.56,1
147,147.42,150.52,1
149,147.45,150.51,1
149,147.48,150.49,1
148,147.49,150.47,1
147,147.48,150.43,1
145,147.43,150.38,1
147,147.42,150.35,1
148,147.44,150.32,1
145,147.39,150.27,1
145,147.34,150.22,1
145,147.29,150.16,1
149,147.33,150.15,1
145,147.28,150.10,1
145,147.23,150.05,1
147,147.23,150.02,1
145,147.18,149.97,1
145,147.14,149.92,1
146,147.12,149.88,1
145,147.08,149.83,1
144,147.01,149.77,1
145,146.97,149.73,1
144,146.91,149.67,1
147,146.92,149.64,1
144,146.86,149.59,1
143,146.78,149.52,1
149,146.83,149.51,1
145,146.79,149.47,1
143,146.71,149.40,1
148,146.74,149.39,1
145,146.70,149.35,1
144,146.65,149.29,1
146,146.64,149.26,1
144,146.58,149.21,1
143,146.51,149.15,1
146,146.50,149.11,1
145,146.47,149.07,1
144,146.42,149.02,1
143,146.35,148.96,1
146,146.35,148.93,1
148,146.38,148.92,1
145,146.35,148.88,1
144,146.31,148.83,1
147,146.32,148.82,1
148,146.35,148.81,1
145,146.33,148.77,1
143,146.26,148.71,1
147,146.27,148.70,1
145,146.25,148.66,1
144,146.20,148.61,1
145,146.18,148.58,1
143,146.12,148.52,1
146,146.11,148.49,1
147,146.13,148.48,1
147,146.15,148.47,1
145,146.13,148.43,1
144,146.08,148.39,1
146,146.08,148.36,1
147,146.10,148.35,1
145,146.08,148.32,1
146,146.08,148.29,1
143,146.02,148.24,1
144,145.97,148.20,1
144,145.94,148.15,1
148,145.98,148.15,1
145,145.96,148.12,1
144,145.92,148.08,1
147,145.94,148.07,1
147,145.96,148.06,1
146,145.96,148.04,1
145,145.94,148.01,1
147,145.96,148.00,1
149,146.02,148.01,1
146,146.02,147.99,1
144,145.98,147.95,1
144,145.94,147.91,1
145,145.92,147.88,1
145,145.91,147.85,1
146,145.91,147.83,1
146,145.91,147.81,1
145,145.89,147.79,1
145,145.87,147.76,1
147,145.90,147.75,1
145,145.88,147.72,1
147,145.90,147.72,1
144,145.86,147.68,1
145,145.85,147.65,1
146,145.85,147.64,1
143,145.79,147.59,1
145,145.78,147.56,1
145,145.76,147.54,1
145,145.75,147.51,1
145,145.73,147.49,1
148,145.78,147.49,1
147,145.80,147.49,1
147,145.82,147.48,1
147,145.85,147.48,1
145,145.83,147.45,1
145,145.81,147.43,1
148,145.86,147.43,1
149,145.92,147.45,1
150,146.00,147.47,1
147,146.02,147.47,1
146,146.02,147.46,1
147,146.04,147.45,1
150,146.12,147.48,1
145,146.10,147.45,1
147,146.12,147.45,1
148,146.15,147.45,1
145,146.13,147.43,1
150,146.21,147.45,1
147,146.22,147.45,1
148,146.26,147.45,1
147,146.27,147.45,1
145,146.25,147.43,1
147,146.26,147.42,1
149,146.32,147.44,1
147,146.33,147.43,1
146,146.33,147.42,1
147,146.34,147.41,1
147,146.35,147.41,1
149,146.41,147.43,1
149,146.46,147.44,1
147,146.47,147.44,1
145,146.44,147.41,1
147,146.45,147.41,1
145,146.42,147.38,1
146,146.41,147.37,1
148,146.44,147.38,1
148,146.48,147.38,1
145,146.45,147.36,1
145,146.42,147.34,1
148,146.45,147.34,1
148,146.48,147.35,1
145,146.45,147.33,1
145,146.42,147.30,1
143,146.35,147.26,1
146,146.35,147.25,1
144,146.30,147.21,1
146,146.29,147.20,1
145,146.27,147.18,1
147,146.28,147.18,1
143,146.22,147.14,1
145,146.19,147.12,1
145,146.17,147.09,1
143,146.10,147.05,1
145,146.08,147.03,1
144,146.04,147.00,1
145,146.02,146.98,1
147,146.04,146.98,1
145,146.02,146.96,1
146,146.02,146.95,1
145,146.00,146.93,1
145,145.98,146.91,1
146,145.98,146.91,1
144,145.94,146.88,1
143,145.88,146.84,1
143,145.82,146.80,1
147,145.85,146.80,1
143,145.79,146.76,1
145,145.77,146.75,1
145,145.76,146.73,1
146,145.76,146.72,1
145,145.75,146.70,1
144,145.71,146.68,1
145,145.70,146.66,1
143,145.64,146.62,1
143,145.59,146.59,1
143,145.54,146.55,1
146,145.55,146.55,1
145,145.54,146.53,1
145,145.53,146.51,1
143,145.48,146.48,1
143,145.43,146.44,1
143,145.38,146.41,1
149,145.45,146.44,1
143,145.40,146.40,1
144,145.37,146.38,1
145,145.37,146.36,1
144,145.34,146.34,1
143,145.29,146.31,1
144,145.27,146.28,1
143,145.22,146.25,1
145,145.22,146.24,1
143,145.17,146.21,1
145,145.17,146.19,1
144,145.15,146.17,1
144,145.12,146.15,1
144,145.10,146.13,1
143,145.06,146.10,1
142,145.00,146.06,1
143,144.96,146.03,1
143,144.92,146.00,1
143,144.88,145.97,1
143,144.84,145.94,1
145,144.85,145.93,1
143,144.81,145.90,1
145,144.81,145.89,1
145,144.82,145.88,1
142,144.76,145.84,1
146,144.78,145.84,1
147,144.83,145.85,1
145,144.83,145.85,1
147,144.88,145.86,1
147,144.92,145.87,1
148,144.98,145.89,1
145,144.98,145.88,1
148,145.04,145.90,1
149,145.12,145.93,1
147,145.16,145.94,1
148,145.21,145.96,1
147,145.25,145.97,1
147,145.28,145.98,1
146,145.30,145.99,1
146,145.31,145.99,1
147,145.35,146.00,1
149,145.42,146.03,1
147,145.45,146.04,1
148,145.50,146.05,1
151,145.61,146.10,1
146,145.62,146.10,1
148,145.67,146.12,1
147,145.69,146.13,1
147,145.72,146.14,1
146,145.73,146.14,1
148,145.77,146.16,1
148,145.82,146.18,1
147,145.84,146.18,1
147,145.86,146.19,1
145,145.85,146.18,1
146,145.85,146.18,1
150,145.93,146.22,1
147,145.95,146.22,1
147,145.97,146.23,1
146,145.97,146.23,1
149,146.04,146.26,1
153,146.17,146.32,1
149,146.23,146.35,2
148,146.27,146.37,2
149,146.32,146.39,3
149,146.37,146.42,3
152,146.49,146.48,4
149,146.54,146.50,4
147,146.55,146.51,5
148,146.58,146.52,5
147,146.58,146.53,6
148,146.61,146.54,6
149,146.66,146.57,7
153,146.79,146.63,7
153,146.91,146.69,7
153,147.03,146.76,7
151,147.11,146.80,7
155,147.27,146.88,7
153,147.38,146.94,7
150,147.44,146.97,7
150,147.49,147.00,7
151,147.56,147.04,7
150,147.61,147.07,7
149,147.64,147.09,7
153,147.74,147.15,7
157,147.93,147.25,7
157,148.11,147.35,7
155,148.25,147.42,7
157,148.42,147.52,7
154,148.53,147.58,7
159,148.74,147.70,7
159,148.95,147.81,7
165,149.27,147.98,7
162,149.52,148.12,7
164,149.81,148.28,7
165,150.12,148.45,7
164,150.39,148.60,7
159,150.57,148.71,7
159,150.74,148.81,7
164,151.00,148.96,7
164,151.26,149.11,7
170,151.64,149.32,7
166,151.92,149.49,7
165,152.18,149.64,7
163,152.40,149.78,7
161,152.57,149.89,7
161,152.74,150.00,7
165,152.99,150.15,7
163,153.19,150.28,7
168,153.48,150.46,7
161,153.63,150.56,7
163,153.82,150.69,7
163,154.00,150.81,7
163,154.18,150.93,7
161,154.32,151.03,7
163,154.49,151.15,7
163,154.66,151.27,7
162,154.81,151.38,7
167,155.05,151.53,7
165,155.25,151.67,7
163,155.41,151.78,7
163,155.56,151.89,7
170,155.85,152.08,7
173,156.19,152.28,7
172,156.51,152.48,7
165,156.68,152.61,7
173,157.00,152.81,7
177,157.40,153.05,7
172,157.70,153.24,7
171,157.96,153.42,7
169,158.18,153.58,7
174,158.50,153.78,7
171,158.75,153.95,7
171,158.99,154.12,7
175,159.31,154.33,7
169,159.51,154.48,7
178,159.88,154.71,7
185,160.38,155.02,7
188,160.93,155.35,7
181,161.33,155.60,7
175,161.61,155.80,7
183,162.04,156.07,7
192,162.63,156.43,7
190,163.18,156.76,7
188,163.68,157.08,7
184,164.08,157.35,7
181,164.42,157.58,7
180,164.73,157.81,7
180,165.04,158.03,7
187,165.48,158.32,7
192,166.01,158.65,7
199,166.67,159.06,7
195,167.24,159.42,7
188,167.65,159.70,7
191,168.12,160.02,7
199,168.74,160.41,7
201,169.38,160.81,7
197,169.93,161.17,7
195,170.44,161.51,7
195,170.93,161.85,7
196,171.43,162.19,7
193,171.86,162.50,7
192,172.26,162.79,7
193,172.68,163.09,7
193,173.08,163.39,7
193,173.48,163.69,7
191,173.83,163.96,7
192,174.20,164.24,7
192,174.55,164.52,7
199,175.04,164.86,7
195,175.44,165.17,7
193,175.79,165.44,7
199,176.25,165.78,7
201,176.75,166.13,7
201,177.23,166.48,7
195,177.59,166.77,7
195,177.94,167.05,7
196,178.30,167.34,7
197,178.67,167.63,7
195,179.00,167.91,7
200,179.42,168.23,7
195,179.73,168.50,7
197,180.08,168.78,7
201,180.50,169.10,7
207,181.03,169.48,7
209,181.59,169.88,7
206,182.07,170.24,7
201,182.45,170.55,7
203,182.86,170.87,7
207,183.35,171.23,7
208,183.84,171.60,7
201,184.18,171.89,7
202,184.54,172.20,7
209,185.03,172.56,7
204,185.41,172.88,7
207,185.84,173.22,7
204,186.20,173.53,7
211,186.70,173.90,7
209,187.14,174.25,7
207,187.54,174.58,7
210,187.99,174.93,7
217,188.57,175.35,7
217,189.14,175.77,7
212,189.60,176.13,7
212,190.04,176.49,7
213,190.50,176.86,7
217,191.03,177.26,7
212,191.45,177.61,7
215,191.92,177.98,7
226,192.61,178.46,7
226,193.27,178.94,7
216,193.73,179.31,7
225,194.35,179.76,7
227,195.01,180.24,7
224,195.59,180.67,7
220,196.07,181.07,7
218,196.51,181.44,7
218,196.94,181.80,7
219,197.38,182.17,7
222,197.88,182.57,7
225,198.42,183.00,7
218,198.81,183.35,7
225,199.33,183.76,7
231,199.97,184.24,7
230,200.57,184.69,7
223,201.02,185.08,7
225,201.50,185.48,7
225,201.97,185.87,7
227,202.47,186.28,7
233,203.08,186.75,7
232,203.66,187.20,7
227,204.12,187.60,7
224,204.52,187.96,7
233,205.09,188.41,7
232,205.63,188.85,7
229,206.10,189.25,7
225,206.47,189.61,7
229,206.92,190.00,7
229,207.37,190.39,7
226,207.74,190.75,7
226,208.10,191.10,7
225,208.44,191.44,7
224,208.75,191.77,7
224,209.06,192.09,7
226,209.40,192.43,7
225,209.71,192.75,7
229,210.09,193.12,7
227,210.43,193.45,7
234,210.90,193.86,7
231,211.31,194.23,7
228,211.64,194.57,7
229,211.99,194.91,7
231,212.37,195.27,7
229,212.70,195.61,7
228,213.01,195.94,7
229,213.33,196.27,7
227,213.60,196.57,7
230,213.93,196.91,7
228,214.21,197.22,7
227,214.46,197.52,7
227,214.72,197.81,7
225,214.92,198.08,7
227,215.16,198.37,7
225,215.36,198.64,7
225,215.55,198.90,7
225,215.74,199.16,7
225,215.93,199.42,7
225,216.11,199.68,7
229,216.37,199.97,7
228,216.60,200.25,7
224,216.75,200.49,7
225,216.91,200.73,7
227,217.11,201.00,7
223,217.23,201.22,7
224,217.37,201.44,7
227,217.56,201.70,7
223,217.67,201.91,7
225,217.81,202.14,7
224,217.94,202.36,7
222,218.02,202.56,7
222,218.10,202.75,7
222,218.18,202.95,7
222,218.25,203.14,7
223,218.35,203.33,7
221,218.40,203.51,7
223,218.49,203.71,7
223,218.58,203.90,7
222,218.65,204.08,7
221,218.70,204.25,7
220,218.72,204.41,7
221,218.77,204.57,7
223,218.86,204.76,7
221,218.90,204.92,7
223,218.98,205.10,7
223,219.06,205.28,7
219,219.06,205.42,7
222,219.12,205.58,7
221,219.16,205.74,7
223,219.23,205.91,7
220,219.25,206.05,7
223,219.32,206.22,7
220,219.34,206.36,7
219,219.33,206.48,7
218,219.30,206.60,7
218,219.28,206.71,7
217,219.23,206.82,7
217,219.19,206.92,7
218,219.16,207.03,7
217,219.12,207.13,7
217,219.08,207.23,7
216,219.02,207.31,7
215,218.94,207.39,7
216,218.88,207.48,7
215,218.80,207.55,7
212,218.66,207.60,7
214,218.57,207.66,7
213,218.46,207.71,7
215,218.39,207.79,7
213,218.28,207.84,7
214,218.20,207.90,7
213,218.09,207.95,7
212,217.97,207.99,7
213,217.87,208.04,7
211,217.73,208.07,7
213,217.64,208.12,7
211,217.51,208.15,7
212,217.40,208.19,7
209,217.23,208.20,7
210,217.08,208.21,7
209,216.92,208.22,7
210,216.78,208.24,7
211,216.67,208.27,7
209,216.51,208.28,7
209,216.36,208.28,7
210,216.24,208.30,7
209,216.09,208.31,7
209,215.95,208.31,7
208,215.79,208.31,7
208,215.64,208.31,7
209,215.50,208.31,7
207,215.33,208.30,7
208,215.19,208.30,7
207,215.02,208.29,7
206,214.84,208.26,7
206,214.67,208.24,7
207,214.51,208.23,7
206,214.34,208.21,7
205,214.15,208.17,7
205,213.97,208.14,7
205,213.79,208.11,7
205,213.62,208.08,7
205,213.44,208.05,7
204,213.26,208.01,7
203,213.05,207.96,7
205,212.89,207.93,7
203,212.69,207.88,7
205,212.54,207.85,7
202,212.33,207.79,7
202,212.12,207.73,7
203,211.94,207.69,7
202,211.74,207.63,7
201,211.52,207.56,7
201,211.31,207.50,7
200,211.09,207.42,7
200,210.87,207.35,7
200,210.65,207.27,7
199,210.42,207.19,7
199,210.19,207.11,7
199,209.96,207.03,7
199,209.74,206.95,7
198,209.51,206.86,7
199,209.30,206.78,7
198,209.07,206.69,7
200,208.89,206.63,7
197,208.65,206.53,7
196,208.40,206.42,7
197,208.17,206.33,7
198,207.97,206.25,7
197,207.75,206.15,7
196,207.51,206.05,7
196,207.28,205.95,7
197,207.08,205.86,7
196,206.86,205.76,7
195,206.62,205.66,7
196,206.41,205.56,7
194,206.16,205.44,7
196,205.96,205.35,7
195,205.74,205.25,7
195,205.52,205.14,7
193,205.27,205.02,7
195,205.07,204.92,7
194,204.85,204.81,8
196,204.67,204.73,8
193,204.44,204.61,8
194,204.23,204.50,8
193,204.00,204.39,8
193,203.78,204.27,8
193,203.57,204.16,8
192,203.33,204.04,8
192,203.11,203.92,8
192,202.89,203.80,8
192,202.67,203.68,8
191,202.43,203.55,8
191,202.21,203.43,8
190,201.96,203.29,8
191,201.74,203.17,8
191,201.53,203.05,8
189,201.28,202.91,8
187,200.99,202.75,8
191,200.79,202.63,8
189,200.56,202.50,8
189,200.33,202.36,8
188,200.08,202.22,8
188,199.84,202.08,8
188,199.60,201.93,8
190,199.41,201.82,8
188,199.18,201.68,8
187,198.94,201.53,8
187,198.70,201.39,8
187,198.46,201.24,8
187,198.23,201.10,8
186,197.99,200.95,8
187,197.77,200.81,8
185,197.51,200.65,8
185,197.26,200.49,8
185,197.02,200.34,8
187,196.82,200.21,8
185,196.58,200.05,8
184,196.33,199.89,8
185,196.10,199.74,8
185,195.88,199.60,8
184,195.64,199.44,8
183,195.39,199.28,8
183,195.14,199.11,8
183,194.90,198.95,8
183,194.66,198.79,8
181,194.39,198.61,8
181,194.12,198.44,8
182,193.88,198.27,8
183,193.66,198.12,8
182,193.43,197.96,8
181,193.18,197.79,8
181,192.94,197.62,8
182,192.72,197.47,8
181,192.48,197.30,8
179,192.21,197.12,8
180,191.97,196.95,8
180,191.73,196.78,8
181,191.52,196.62,8
179,191.27,196.44,8
180,191.04,196.28,8
178,190.78,196.10,8
180,190.56,195.94,8
179,190.33,195.77,8
177,190.07,195.58,8
178,189.82,195.40,8
177,189.57,195.22,8
177,189.32,195.04,8
177,189.07,194.86,8
177,188.83,194.68,8
176,188.57,194.49,8
176,188.32,194.31,8
176,188.07,194.12,8
173,187.77,193.91,8
175,187.52,193.72,8
175,187.27,193.54,8
175,187.02,193.35,8
175,186.78,193.17,8
174,186.53,192.98,8
173,186.26,192.78,8
175,186.03,192.60,8
175,185.81,192.42,8
175,185.59,192.25,8
174,185.36,192.07,8
174,185.13,191.88,8
174,184.91,191.71,8
173,184.67,191.52,8
173,184.44,191.33,8
171,184.17,191.13,8
173,183.95,190.95,8
172,183.71,190.76,8
172,183.47,190.57,8
171,183.22,190.38,8
171,182.98,190.18,8
172,182.76,190.00,8
171,182.53,189.81,8
170,182.28,189.61,8
170,182.03,189.42,8
170,181.79,189.22,8
169,181.53,189.02,8
171,181.32,188.84,8
169,181.08,188.64,8
169,180.83,188.44,8
169,180.60,188.25,8
169,180.37,188.06,8
169,180.14,187.87,8
168,179.90,187.67,8
168,179.66,187.47,8
168,179.42,187.28,8
169,179.22,187.09,8
167,178.97,186.89,8
167,178.73,186.69,8
167,178.50,186.50,8
167,178.27,186.30,8
167,178.04,186.11,8
167,177.82,185.92,8
166,177.59,185.72,8
167,177.37,185.53,8
165,177.13,185.33,8
165,176.88,185.12,8
165,176.65,184.92,8
165,176.41,184.72,8
165,176.18,184.53,8
165,175.96,184.33,8
165,175.74,184.14,8
164,175.51,183.94,8
164,175.28,183.74,8
165,175.07,183.55,8
166,174.89,183.37,8
165,174.69,183.19,8
164,174.48,183.00,8
163,174.25,182.80,8
165,174.06,182.62,8
165,173.88,182.44,8
164,173.68,182.26,8
163,173.47,182.07,8
163,173.26,181.88,8
165,173.10,181.71,8
164,172.91,181.53,8
162,172.70,181.34,8
162,172.48,181.14,8
161,172.25,180.94,8
163,172.07,180.76,8
161,171.85,180.56,8
161,171.63,180.37,8
162,171.44,180.18,8
161,171.23,179.99,8
161,171.02,179.80,8
161,170.82,179.61,8
161,170.63,179.43,8
161,170.43,179.24,8
164,170.31,179.09,8
159,170.08,178.89,8
159,169.86,178.69,8
160,169.66,178.50,8
161,169.49,178.33,8
159,169.28,178.14,8
159,169.07,177.94,8
160,168.89,177.77,8
157,168.65,177.56,8
159,168.46,177.37,8
158,168.25,177.18,8
157,168.03,176.98,8
157,167.81,176.78,8
159,167.63,176.60,8
159,167.46,176.42,8
157,167.25,176.23,8
155,167.00,176.02,8
157,166.80,175.83,8
157,166.61,175.64,8
158,166.43,175.46,8
156,166.23,175.27,8
157,166.04,175.08,8
157,165.86,174.90,8
157,165.68,174.72,8
157,165.51,174.55,8
155,165.30,174.35,8
157,165.13,174.18,8
156,164.95,174.00,8
155,164.75,173.81,8
155,164.56,173.62,8
155,164.37,173.43,8
155,164.18,173.25,8
155,163.99,173.07,8
156,163.83,172.90,8
154,163.64,172.71,8
154,163.45,172.52,8
155,163.28,172.34,8
153,163.07,172.15,8
153,162.87,171.96,8
153,162.67,171.77,8
152,162.46,171.57,8
153,162.27,171.39,8
153,162.08,171.20,8
152,161.88,171.01,8
151,161.66,170.81,8
153,161.49,170.63,8
151,161.28,170.44,8
153,161.12,170.26,8
151,160.91,170.07,8
151,160.72,169.88,8
151,160.52,169.69,8
153,160.37,169.52,8
152,160.20,169.35,8
151,160.02,169.16,8
151,159.84,168.98,8
149,159.62,168.78,8
151,159.45,168.60,8
149,159.24,168.41,8
150,159.06,168.22,8
149,158.85,168.03,8
151,158.70,167.86,8
151,158.54,167.69,8
150,158.37,167.52,8
149,158.19,167.33,8
149,158.00,167.15,8
149,157.82,166.97,8
149,157.65,166.79,8
147,157.43,166.59,8
150,157.28,166.42,8
148,157.10,166.24,8
150,156.96,166.08,8
148,156.78,165.90,8
148,156.60,165.72,8
149,156.45,165.55,8
147,156.26,165.36,8
149,156.12,165.20,8
147,155.93,165.02,8
147,155.75,164.84,8
147,155.58,164.66,8
145,155.37,164.46,8
147,155.20,164.29,8
146,155.02,164.11,8
145,154.82,163.91,8
145,154.62,163.73,8
145,154.43,163.54,8
145,154.24,163.35,8
145,154.05,163.17,8
144,153.85,162.98,8
144,153.66,162.79,8
144,153.46,162.60,8
143,153.25,162.40,8
144,153.07,162.22,8
144,152.89,162.04,8
143,152.69,161.85,8
143,152.50,161.66,8
143,152.31,161.47,8
144,152.14,161.30,8
145,152.00,161.13,8
145,151.86,160.97,8
143,151.68,160.79,8
142,151.49,160.61,8
143,151.32,160.43,8
144,151.17,160.27,8
144,151.03,160.10,8
143,150.87,159.93,8
141,150.67,159.74,8
143,150.52,159.57,8
143,150.37,159.41,8
144,150.24,159.25,8
143,150.09,159.09,8
141,149.91,158.91,8
141,149.73,158.73,8
141,149.56,158.55,8
141,149.39,158.38,8
141,149.22,158.21,8
141,149.06,158.03,8
139,148.85,157.84,8
141,148.70,157.67,8
141,148.54,157.51,8
141,148.39,157.34,8
139,148.20,157.16,8
140,148.04,156.99,8
141,147.90,156.83,8
139,147.72,156.65,8
140,147.57,156.48,8
141,147.44,156.33,8
141,147.31,156.18,8
141,147.18,156.02,8
140,147.04,155.86,8
140,146.90,155.70,8
139,146.74,155.54,8
141,146.62,155.39,8
141,146.51,155.25,8
140,146.38,155.10,8
140,146.25,154.94,8
140,146.13,154.80,8
139,145.99,154.64,8
137,145.81,154.46,8
139,145.67,154.31,8
138,145.52,154.14,8
137,145.35,153.97,8
137,145.18,153.80,8
137,145.02,153.63,8
138,144.88,153.48,8
137,144.72,153.31,8
137,144.56,153.15,8
138,144.43,153.00,8
137,144.28,152.84,8
138,144.16,152.69,8
141,144.09,152.57,8
139,143.99,152.44,8
137,143.85,152.28,8
137,143.72,152.13,8
137,143.58,151.98,8
137,143.45,151.83,8
138,143.34,151.69,8
135,143.17,151.52,8
136,143.03,151.37,8
136,142.89,151.21,8
137,142.77,151.07,8
137,142.66,150.93,8
135,142.50,150.77,8
135,142.35,150.62,8
136,142.23,150.47,8
137,142.12,150.33,8
131,141.90,150.14,8
135,141.76,149.99,8
136,141.65,149.85,8
136,141.53,149.71,8
135,141.40,149.56,8
135,141.27,149.42,8
137,141.19,149.29,8
137,141.11,149.17,8
137,141.02,149.05,8
135,140.90,148.91,8
137,140.82,148.79,8
137,140.75,148.67,8
139,140.71,148.58,8
137,140.64,148.46,8
136,140.55,148.33,8
136,140.46,148.21,8
137,140.39,148.10,8
138,140.34,148.00,8
137,140.27,147.89,8
136,140.19,147.77,8
135,140.08,147.64,8
137,140.02,147.54,8
137,139.96,147.43,8
136,139.88,147.32,8
135,139.78,147.19,8
135,139.69,147.07,8
137,139.63,146.97,8
137,139.58,146.87,8
135,139.49,146.75,8
136,139.42,146.64,8
135,139.33,146.53,8
136,139.27,146.42,8
135,139.18,146.31,8
135,139.10,146.20,8
135,139.01,146.08,8
137,138.97,145.99,8
137,138.93,145.90,8
137,138.90,145.81,8
136,138.84,145.72,8
138,138.82,145.64,8
139,138.82,145.57,8
138,138.81,145.50,8
137,138.77,145.41,8
135,138.70,145.31,8
137,138.66,145.22,8
139,138.67,145.16,8
138,138.66,145.09,8
136,138.60,145.00,8
136,138.55,144.91,8
139,138.56,144.85,8
140,138.59,144.80,8
137,138.56,144.72,8
136,138.51,144.64,8
137,138.48,144.56,8
138,138.47,144.49,8
137,138.44,144.42,8
136,138.39,144.34,8
136,138.34,144.25,8
136,138.29,144.17,8
137,138.27,144.10,8
137,138.24,144.03,8
136,138.20,143.95,8
136,138.15,143.87,8
137,138.13,143.80,8
136,138.09,143.72,8
136,138.05,143.64,8
135,137.99,143.56,8
135,137.93,143.47,8
137,137.91,143.41,8
136,137.87,143.33,8
136,137.83,143.26,8
136,137.80,143.19,8
135,137.74,143.10,8
137,137.72,143.04,8
136,137.69,142.97,8
135,137.64,142.89,8
134,137.56,142.80,8
136,137.53,142.74,8
137,137.52,142.68,8
134,137.45,142.59,8
137,137.44,142.54,8
136,137.41,142.47,8
137,137.40,142.42,8
136,137.38,142.35,8
134,137.31,142.27,8
136,137.28,142.21,8
136,137.26,142.14,8
137,137.25,142.09,8
137,137.25,142.04,8
135,137.20,141.97,8
135,137.16,141.90,8
137,137.16,141.85,8
137,137.15,141.80,8
135,137.11,141.74,8
135,137.07,141.67,8
137,137.07,141.62,8
138,137.08,141.59,8
137,137.08,141.54,8
135,137.04,141.47,8
134,136.98,141.40,8
135,136.94,141.34,8
137,136.94,141.29,8
136,136.92,141.24,8
135,136.88,141.18,8
135,136.85,141.12,8
135,136.81,141.05,8
135,136.77,140.99,8
135,136.74,140.93,8
133,136.66,140.85,8
135,136.63,140.80,8
136,136.62,140.75,8
135,136.59,140.69,8
133,136.51,140.61,8
133,136.44,140.54,8
135,136.41,140.48,8
134,136.37,140.42,8
133,136.30,140.34,8
133,136.23,140.27,8
133,136.17,140.20,8
135,136.14,140.14,8
137,136.16,140.11,8
133,136.10,140.04,8
133,136.04,139.97,8
132,135.96,139.89,8
133,135.90,139.82,8
134,135.86,139.76,8
132,135.78,139.69,8
132,135.71,139.61,8
132,135.63,139.53,8
133,135.58,139.47,8
131,135.49,139.38,8
133,135.44,139.32,8
133,135.39,139.26,8
135,135.38,139.21,8
131,135.29,139.13,8
133,135.25,139.07,8
131,135.16,138.99,8
131,135.08,138.91,8
131,135.00,138.83,8
131,134.92,138.75,8
131,134.84,138.68,8
131,134.76,138.60,8
131,134.69,138.52,8
131,134.61,138.45,8
131,134.54,138.37,8
129,134.43,138.28,8
132,134.38,138.22,8
132,134.33,138.15,8
133,134.31,138.10,8
129,134.20,138.01,8
131,134.14,137.94,8
129,134.03,137.85,8
131,133.97,137.78,8
130,133.89,137.71,8
129,133.80,137.62,8
129,133.70,137.53,8
130,133.63,137.46,8
131,133.57,137.39,8
128,133.46,137.30,8
129,133.37,137.22,8
129,133.29,137.13,8
128,133.18,137.04,8
130,133.12,136.97,8
129,133.03,136.89,8
129,132.95,136.81,8
131,132.91,136.76,8
129,132.84,136.68,8
130,132.78,136.61,8
129,132.70,136.53,8
129,132.63,136.46,8
129,132.56,136.38,8
129,132.49,136.31,8
128,132.40,136.23,8
130,132.35,136.17,8
129,132.28,136.09,8
132,132.28,136.05,8
131,132.25,136.00,8
129,132.19,135.93,8
129,132.12,135.86,8
131,132.10,135.81,8
133,132.12,135.79,8
130,132.08,135.73,8
130,132.03,135.67,8
131,132.01,135.62,8
131,131.99,135.58,8
129,131.93,135.51,8
129,131.87,135.45,8
129,131.82,135.38,8
132,131.82,135.35,8
132,131.82,135.32,8
132,131.83,135.28,8
129,131.77,135.22,8
130,131.74,135.17,8
129,131.68,135.11,8
131,131.67,135.06,8
131,131.65,135.02,8
129,131.60,134.96,8
129,131.55,134.90,8
129,131.50,134.85,8
131,131.49,134.81,8
129,131.44,134.75,8
129,131.39,134.69,8
129,131.34,134.63,8
131,131.33,134.60,8
132,131.35,134.57,8
129,131.30,134.52,8
129,131.26,134.46,8
130,131.23,134.42,8
130,131.21,134.37,8
132,131.22,134.35,8
129,131.18,134.29,8
129,131.13,134.24,8
129,131.09,134.19,8
130,131.07,134.15,8
128,131.01,134.09,8
128,130.95,134.03,8
129,130.91,133.98,8
129,130.87,133.93,8
128,130.81,133.87,8
128,130.76,133.81,8
129,130.72,133.76,8
129,130.69,133.71,8
129,130.65,133.66,8
128,130.60,133.61,8
127,130.53,133.54,8
127,130.46,133.48,8
127,130.39,133.41,8
129,130.36,133.37,8
128,130.31,133.31,8
127,130.25,133.25,8
127,130.18,133.19,8
127,130.12,133.13,8
127,130.06,133.07,8
127,130.00,133.00,8
127,129.94,132.94,8
127,129.88,132.89,8
129,129.86,132.85,8
128,129.82,132.80,8
128,129.79,132.75,8
127,129.73,132.69,8
128,129.70,132.65,8
129,129.68,132.61,8
129,129.67,132.57,8
127,129.61,132.52,8
127,129.56,132.46,8
127,129.51,132.41,8
128,129.48,132.36,8
127,129.43,132.31,8
127,129.38,132.26,8
128,129.35,132.21,8
129,129.35,132.18,8
129,129.34,132.15,8
127,129.29,132.10,8
129,129.29,132.07,8
130,129.30,132.05,8
129,129.30,132.02,8
129,129.29,131.99,8
128,129.26,131.95,8
128,129.24,131.91,8
129,129.23,131.88,8
129,129.23,131.85,8
127,129.19,131.80,8
127,129.14,131.75,8
128,129.12,131.72,8
129,129.12,131.69,8
129,129.11,131.66,8
129,129.11,131.63,8
129,129.11,131.61,8
129,129.11,131.58,8
129,129.11,131.56,8
128,129.08,131.52,8
129,129.08,131.50,8
127,129.04,131.45,8
127,129.00,131.41,8
128,128.98,131.37,8
127,128.94,131.33,8
127,128.90,131.28,8
127,128.86,131.24,8
127,128.83,131.20,8
126,128.77,131.15,8
125,128.69,131.09,8
125,128.62,131.03,8
127,128.59,130.98,8
125,128.52,130.93,8
125,128.45,130.87,8
125,128.38,130.81,8
126,128.33,130.76,8
126,128.28,130.71,8
127,128.26,130.67,8
125,128.19,130.62,8
125,128.13,130.56,8
125,128.06,130.51,8
126,128.02,130.46,8
125,127.96,130.41,8
127,127.94,130.37,8
127,127.93,130.34,8
125,127.87,130.29,8
127,127.85,130.25,8
122,127.73,130.17,8
125,127.68,130.12,8
125,127.62,130.07,8
127,127.61,130.04,8
127,127.60,130.01,8
126,127.57,129.97,8
125,127.52,129.92,8
125,127.47,129.87,8
128,127.48,129.85,8
125,127.43,129.80,8
126,127.40,129.76,8
125,127.35,129.71,8
125,127.30,129.67,8
126,127.28,129.63,8
125,127.23,129.58,8
125,127.19,129.54,8
125,127.14,129.49,8
127,127.14,129.47,8
127,127.14,129.44,8
125,127.09,129.40,8
125,127.05,129.35,8
127,127.05,129.33,8
126,127.03,129.30,8
126,127.01,129.26,8
125,126.97,129.22,8
125,126.93,129.18,8
125,126.89,129.14,8
126,126.87,129.11,8
125,126.84,129.07,8
125,126.80,129.03,8
125,126.76,128.98,8
124,126.71,128.94,8
123,126.63,128.88,8
124,126.58,128.83,8
125,126.55,128.79,8
125,126.52,128.75,8
126,126.51,128.72,8
125,126.48,128.69,8
125,126.45,128.65,8
127,126.46,128.63,8
128,126.49,128.63,8
127,126.50,128.61,8
125,126.47,128.57,8
127,126.48,128.56,8
126,126.47,128.53,8
126,126.46,128.51,8
125,126.43,128.47,8
127,126.44,128.46,8
127,126.46,128.44,8
125,126.43,128.41,8
125,126.40,128.37,8
127,126.41,128.36,8
125,126.38,128.33,8
126,126.37,128.30,8
127,126.39,128.29,8
125,126.36,128.26,8
126,126.35,128.24,8
125,126.32,128.20,8
124,126.28,128.16,8
125,126.25,128.13,8
125,126.23,128.10,8
127,126.24,128.09,8
125,126.22,128.06,8
125,126.19,128.03,8
127,126.21,128.02,8
125,126.19,127.99,8
127,126.20,127.98,8
125,126.18,127.95,8
123,126.11,127.90,8
125,126.09,127.87,8
127,126.11,127.86,8
129,126.17,127.87,8
125,126.14,127.84,8
125,126.12,127.81,8
128,126.16,127.81,8
127,126.18,127.81,8
125,126.15,127.78,8
127,126.17,127.77,8
132,126.29,127.81,8
127,126.30,127.80,8
125,126.27,127.78,8
125,126.25,127.75,8
125,126.22,127.72,8
127,126.24,127.71,8
127,126.25,127.71,8
125,126.23,127.68,8
127,126.25,127.67,8
127,126.26,127.67,8
125,126.24,127.64,8
125,126.21,127.61,8
125,126.19,127.59,8
126,126.18,127.57,8
125,126.16,127.55,8
125,126.14,127.52,8
123,126.07,127.48,8
125,126.05,127.45,8
125,126.03,127.43,8
124,125.99,127.39,8
123,125.93,127.35,8
124,125.89,127.31,8
123,125.83,127.27,8
124,125.80,127.24,8
124,125.76,127.21,8
123,125.71,127.16,8
125,125.69,127.14,8
124,125.66,127.11,8
121,125.56,127.05,8
123,125.51,127.01,8
123,125.46,126.97,8
123,125.41,126.93,8
125,125.41,126.91,8
125,125.40,126.89,8
125,125.39,126.87,8
123,125.34,126.83,8
123,125.29,126.80,8
124,125.27,126.77,8
122,125.20,126.72,8
125,125.20,126.70,8
126,125.22,126.70,8
125,125.21,126.68,8
123,125.17,126.64,8
124,125.14,126.62,8
123,125.10,126.58,8
123,125.06,126.54,8
125,125.06,126.53,8
123,125.02,126.49,8
124,125.00,126.47,8
125,125.00,126.45,8
123,124.96,126.42,8
124,124.94,126.39,8
123,124.90,126.36,8
123,124.86,126.33,8
124,124.84,126.30,8
127,124.89,126.31,8
127,124.93,126.32,8
125,124.93,126.30,8
124,124.91,126.28,8
124,124.89,126.26,8
124,124.88,126.24,8
123,124.84,126.20,8
123,124.80,126.17,8
123,124.77,126.14,8
125,124.77,126.13,8
123,124.73,126.10,8
123,124.70,126.07,8
125,124.71,126.06,8
127,124.75,126.06,8
128,124.82,126.08,8
125,124.82,126.07,8
122,124.76,126.03,8
129,124.85,126.06,8
125,124.85,126.05,8
128,124.91,126.07,8
129,125.00,126.10,8
125,125.00,126.09,8
125,125.00,126.08,8
125,125.00,126.07,8
125,125.00,126.06,8
125,125.00,126.05,8
125,125.00,126.04,8
125,125.00,126.03,8
125,125.00,126.02,8
125,125.00,126.01,8
125,125.00,126.00,8
125,125.00,125.99,8
125,125.00,125.98,8
125,125.00,125.97,8
124,124.98,125.95,8
124,124.96,125.93,8
124,124.94,125.91,8
123,124.90,125.88,8
123,124.86,125.85,8
125,124.86,125.84,8
124,124.85,125.82,8
123,124.81,125.79,8
123,124.77,125.77,8
124,124.76,125.75,8
124,124.74,125.73,8
127,124.79,125.74,8
123,124.75,125.72,8
124,124.74,125.70,8
123,124.70,125.67,8
125,124.71,125.67,8
123,124.67,125.64,8
123,124.64,125.61,8
121,124.57,125.57,8
125,124.58,125.56,8
121,124.51,125.52,8
127,124.56,125.53,8
127,124.60,125.54,8
125,124.61,125.54,8
124,124.60,125.52,8
123,124.57,125.50,8
125,124.58,125.49,8
123,124.55,125.47,8
126,124.57,125.47,8
124,124.56,125.46,8
125,124.57,125.45,8
123,124.54,125.43,8
124,124.53,125.42,8
125,124.54,125.41,8
123,124.51,125.39,8
127,124.56,125.40,8
123,124.53,125.38,8
123,124.50,125.36,8
125,124.51,125.35,8
123,124.48,125.33,8
123,124.45,125.31,8
123,124.42,125.28,8
123,124.39,125.26,8
125,124.40,125.26,8
127,124.45,125.27,8
123,124.42,125.25,8
129,124.52,125.29,8
125,124.53,125.29,8
123,124.50,125.26,8
125,124.51,125.26,8
125,124.52,125.26,8
123,124.48,125.24,8
125,124.50,125.23,8
124,124.49,125.22,8
124,124.48,125.21,8
127,124.53,125.23,8
124,124.52,125.21,8
123,124.49,125.19,8
125,124.50,125.19,8
127,124.55,125.21,8
127,124.59,125.23,8
127,124.64,125.24,8
124,124.63,125.23,8
127,124.68,125.25,8
125,124.68,125.25,8
123,124.65,125.22,8
125,124.66,125.22,8
128,124.72,125.25,8
124,124.71,125.24,8
127,124.76,125.26,8
126,124.78,125.26,8
124,124.76,125.25,8
125,124.77,125.25,8
129,124.85,125.28,8
127,124.90,125.30,8
125,124.90,125.30,8
123,124.86,125.28,8
126,124.88,125.28,8
125,124.89,125.28,8
127,124.93,125.30,8
125,124.93,125.29,8
125,124.93,125.29,8
127,124.97,125.31,8
126,124.99,125.32,8
125,124.99,125.31,8
126,125.01,125.32,8
127,125.05,125.34,8
128,125.11,125.36,8
127,125.15,125.38,8
126,125.17,125.39,8
137,125.40,125.50,8
131,125.52,125.56,8
134,125.69,125.64,8
129,125.75,125.67,8
129,125.82,125.71,8
128,125.86,125.73,8
129,125.92,125.76,8
129,125.98,125.80,8
127,126.00,125.81,8
129,126.06,125.84,8
128,126.10,125.86,8
129,126.16,125.89,8
129,126.22,125.92,8
128,126.25,125.94,8
128,126.29,125.97,8
132,126.40,126.03,8
127,126.41,126.04,8
129,126.47,126.06,8
128,126.50,126.08,8
128,126.53,126.10,8
128,126.56,126.12,8
129,126.61,126.15,8
129,126.65,126.18,8
129,126.70,126.21,8
131,126.79,126.26,8
134,126.93,126.33,8
129,126.97,126.36,8
128,126.99,126.38,8
129,127.03,126.40,8
135,127.19,126.49,8
134,127.33,126.56,8
129,127.36,126.59,8
133,127.47,126.65,8
131,127.54,126.70,8
134,127.67,126.77,8
134,127.80,126.84,8
135,127.94,126.92,8
136,128.11,127.01,8
133,128.20,127.07,8
132,128.28,127.12,8
141,128.53,127.26,8
143,128.82,127.42,8
137,128.99,127.51,8
139,129.19,127.63,8
138,129.36,127.73,8
138,129.54,127.84,8
137,129.69,127.93,8
140,129.89,128.05,8
142,130.13,128.19,8
137,130.27,128.28,8
141,130.49,128.40,8
138,130.64,128.50,8
147,130.96,128.68,8
146,131.26,128.86,8
146,131.56,129.03,8
141,131.75,129.15,8
146,132.03,129.32,8
143,132.25,129.45,8
142,132.45,129.58,8
145,132.70,129.73,8
146,132.96,129.90,8
143,133.16,130.03,8
145,133.40,130.18,8
143,133.59,130.30,8
153,133.98,130.53,8
146,134.22,130.69,8
148,134.50,130.86,8
144,134.69,130.99,8
147,134.93,131.15,8
146,135.16,131.30,8
152,135.49,131.51,8
149,135.76,131.68,8
149,136.03,131.85,8
145,136.21,131.99,8
145,136.38,132.12,8
148,136.61,132.28,8
151,136.90,132.46,8
149,137.14,132.63,8
149,137.38,132.79,8
153,137.69,132.99,8
153,138.00,133.19,8
157,138.38,133.43,8
150,138.61,133.60,8
151,138.86,133.77,8
148,139.04,133.91,8
156,139.38,134.13,8
154,139.67,134.33,8
153,139.94,134.52,8
155,140.24,134.72,8
151,140.46,134.89,8
159,140.83,135.13,8
155,141.11,135.33,8
165,141.59,135.62,8
163,142.02,135.90,8
157,142.32,136.11,8
157,142.61,136.32,8
161,142.98,136.56,8
156,143.24,136.76,8
161,143.59,137.00,8
163,143.98,137.26,8
164,144.38,137.53,8
162,144.74,137.77,8
167,145.18,138.07,8
164,145.56,138.33,8
161,145.87,138.55,8
161,146.17,138.78,8
161,146.46,139.00,8
161,146.76,139.22,8
162,147.06,139.45,8
161,147.34,139.66,8
161,147.61,139.88,8
162,147.90,140.10,8
160,148.14,140.30,8
161,148.40,140.50,8
163,148.69,140.73,8
159,148.90,140.91,8
160,149.12,141.10,8
161,149.36,141.30,8
162,149.61,141.51,8
170,150.02,141.79,8
163,150.28,142.00,8
164,150.55,142.22,8
172,150.98,142.52,8
175,151.46,142.85,8
180,152.03,143.22,8
180,152.59,143.59,8
169,152.92,143.84,8
178,153.42,144.18,8
185,154.05,144.59,8
188,154.73,145.02,8
185,155.34,145.42,8
180,155.83,145.77,8
177,156.25,146.08,8
179,156.71,146.41,8
177,157.11,146.72,8
176,157.49,147.01,8
184,158.02,147.38,8
193,158.72,147.84,8
192,159.39,148.28,8
184,159.88,148.63,8
189,160.46,149.04,8
190,161.05,149.45,8
187,161.57,149.82,8
183,162.00,150.16,8
183,162.42,150.48,8
185,162.87,150.83,8
187,163.35,151.19,8
197,164.03,151.65,8
196,164.67,152.09,8
191,165.19,152.48,8
189,165.67,152.85,8
192,166.20,153.24,8
195,166.77,153.66,8
199,167.42,154.11,8
199,168.05,154.56,8
192,168.53,154.93,8
195,169.06,155.33,8
192,169.52,155.70,8
190,169.93,156.04,8
198,170.49,156.46,8
205,171.18,156.95,8
197,171.69,157.35,8
200,172.26,157.77,8
199,172.79,158.19,8
201,173.36,158.62,8
207,174.03,159.10,8
206,174.67,159.57,8
208,175.34,160.05,8
215,176.13,160.60,8
217,176.95,161.17,8
214,177.69,161.69,8
207,178.28,162.15,8
207,178.85,162.60,8
215,179.57,163.12,8
227,180.52,163.76,8
224,181.39,164.36,8
225,182.26,164.97,8
217,182.96,165.49,8
228,183.86,166.11,8
231,184.80,166.76,8
234,185.79,167.43,8
232,186.71,168.08,8
226,187.50,168.66,8
223,188.21,169.20,8
225,188.94,169.76,8
224,189.64,170.30,8
223,190.31,170.83,8
225,191.00,171.37,8
223,191.64,171.89,8
225,192.31,172.42,8
224,192.94,172.93,8
224,193.57,173.45,8
223,194.15,173.94,8
223,194.73,174.43,8
221,195.26,174.90,8
225,195.85,175.40,8
222,196.37,175.86,8
223,196.91,176.34,8
231,197.59,176.88,8
238,198.40,177.49,8
241,199.25,178.13,8
232,199.90,178.67,8
243,200.77,179.31,8
245,201.65,179.97,8
241,202.44,180.58,8
235,203.09,181.12,8
239,203.81,181.70,8
246,204.65,182.34,8
249,205.54,183.01,8
239,206.21,183.57,8
239,206.86,184.12,8
247,207.67,184.75,8
253,208.57,185.44,8
251,209.42,186.09,8
246,210.15,186.69,8
253,211.01,187.35,8
251,211.81,187.99,8
253,212.63,188.64,8
245,213.28,189.20,8
251,214.04,189.82,8
252,214.79,190.44,8
249,215.48,191.03,8
249,216.15,191.61,8
245,216.73,192.14,8
254,217.47,192.76,8
256,218.24,193.39,8
264,219.16,194.10,8
254,219.85,194.70,8
264,220.74,195.39,8
269,221.70,196.13,8
266,222.59,196.83,8
261,223.36,197.47,8
257,224.03,198.06,8
259,224.73,198.67,8
271,225.65,199.40,8
273,226.60,200.13,8
276,227.59,200.89,8
262,228.28,201.50,8
276,229.23,202.25,8
279,230.23,203.01,8
281,231.24,203.79,8
278,232.18,204.54,8
269,232.91,205.18,8
275,233.76,205.88,8
286,234.80,206.68,8
287,235.84,207.48,8
281,236.75,208.22,8
276,237.53,208.90,8
281,238.40,209.62,8
284,239.31,210.36,8
288,240.29,211.14,8
285,241.18,211.88,8
282,242.00,212.58,8
288,242.92,213.33,8
293,243.92,214.13,8
284,244.72,214.83,8
286,245.55,215.54,8
289,246.42,216.27,8
287,247.23,216.98,8
282,247.92,217.63,8
286,248.69,218.31,8
291,249.53,219.04,8
291,250.36,219.76,8
290,251.15,220.46,8
288,251.89,221.14,8
294,252.73,221.87,8
302,253.72,222.67,8
301,254.66,223.45,8
297,255.51,224.19,8
292,256.24,224.87,8
289,256.90,225.51,8
294,257.64,226.19,8
297,258.42,226.90,8
300,259.26,227.63,8
296,259.99,228.32,8
291,260.61,228.94,8
297,261.34,229.62,8
298,262.07,230.31,8
293,262.69,230.93,8
298,263.40,231.60,8
302,264.17,232.31,8
305,264.99,233.03,8
299,265.67,233.69,8
308,266.51,234.44,8
306,267.30,235.15,8
301,267.98,235.81,8
300,268.62,236.45,8
308,269.40,237.17,8
307,270.16,237.87,8
303,270.81,238.52,8
301,271.42,239.14,8
307,272.13,239.82,8
312,272.93,240.54,8
303,273.53,241.17,8
302,274.10,241.78,8
304,274.70,242.40,8
303,275.26,243.00,8
306,275.88,243.63,8
301,276.38,244.21,8
303,276.91,244.80,8
303,277.43,245.38,8
305,277.98,245.97,8
300,278.42,246.51,8
303,278.92,247.08,8
303,279.40,247.64,8
303,279.87,248.19,8
300,280.27,248.71,8
302,280.71,249.24,8
307,281.23,249.82,8
308,281.77,250.40,8
306,282.25,250.96,8
301,282.63,251.46,8
308,283.14,252.02,8
309,283.65,252.59,8
303,284.04,253.10,8
302,284.40,253.59,8
302,284.75,254.07,8
302,285.10,254.55,8
301,285.41,255.02,8
303,285.77,255.50,8
303,286.11,255.97,8
301,286.41,256.42,8
300,286.68,256.86,8
299,286.93,257.28,8
298,287.15,257.69,8
299,287.38,258.10,8
299,287.62,258.51,8
298,287.82,258.90,8
296,287.99,259.27,8
297,288.17,259.65,8
296,288.33,260.01,8
297,288.50,260.38,8
297,288.67,260.75,8
298,288.86,261.12,8
296,289.00,261.47,8
297,289.16,261.83,8
299,289.36,262.20,8
295,289.47,262.53,8
294,289.56,262.84,8
294,289.65,263.15,8
293,289.71,263.45,8
292,289.76,263.74,8
295,289.86,264.05,8
293,289.93,264.34,8
291,289.95,264.61,8
291,289.97,264.87,8
290,289.97,265.12,8
293,290.03,265.40,8
290,290.03,265.65,8
289,290.01,265.88,8
288,289.97,266.10,8
289,289.95,266.33,8
288,289.91,266.55,8
289,289.89,266.77,8
287,289.84,266.97,8
286,289.76,267.16,8
286,289.68,267.35,8
288,289.65,267.56,8
287,289.60,267.75,8
286,289.52,267.93,8
285,289.43,268.11,8
284,289.33,268.26,8
284,289.22,268.42,8
284,289.11,268.58,8
282,288.97,268.71,8
282,288.83,268.84,8
281,288.68,268.97,8
281,288.52,269.09,8
281,288.37,269.21,8
281,288.23,269.32,8
281,288.08,269.44,8
281,287.94,269.56,8
280,287.78,269.66,8
279,287.60,269.75,8
281,287.47,269.87,8
279,287.30,269.96,8
278,287.12,270.04,8
277,286.91,270.11,8
277,286.72,270.18,8
275,286.48,270.22,8
277,286.29,270.29,8
278,286.13,270.37,8
275,285.90,270.42,8
275,285.69,270.46,8
274,285.45,270.50,8
274,285.22,270.53,8
274,285.00,270.57,8
274,284.78,270.60,8
272,284.52,270.62,8
272,284.27,270.63,8
272,284.03,270.64,8
271,283.77,270.65,8
271,283.51,270.65,8
271,283.26,270.65,8
269,282.98,270.64,8
271,282.74,270.64,8
269,282.46,270.62,8
270,282.21,270.62,8
268,281.93,270.59,8
269,281.67,270.58,8
269,281.42,270.56,8
267,281.13,270.52,8
268,280.87,270.50,8
268,280.61,270.47,8
267,280.34,270.44,8
266,280.05,270.40,8
267,279.79,270.36,8
265,279.49,270.31,8
264,279.18,270.24,8
265,278.90,270.19,8
263,278.58,270.12,8
264,278.29,270.06,8
262,277.96,269.98,8
263,277.66,269.91,8
263,277.37,269.84,8
261,277.04,269.75,8
261,276.72,269.66,8
263,276.45,269.60,8
261,276.14,269.51,8
260,275.82,269.42,8
259,275.48,269.31,8
260,275.17,269.22,8
259,274.85,269.12,8
259,274.53,269.02,8
257,274.18,268.90,8
257,273.84,268.78,8
257,273.50,268.66,8
257,273.17,268.54,8
257,272.85,268.43,8
257,272.53,268.31,8
255,272.18,268.18,8
255,271.84,268.05,8
256,271.52,267.93,8
253,271.15,267.78,8
255,270.83,267.65,8
254,270.49,267.51,8
253,270.14,267.37,8
254,269.82,267.23,8
253,269.48,267.09,8
253,269.15,266.95,8
253,268.83,266.81,8
252,268.49,266.66,8
251,268.14,266.51,8
251,267.80,266.35,8
251,267.46,266.20,8
250,267.11,266.04,8
251,266.79,265.89,8
249,266.43,265.72,8
249,266.09,265.55,8
249,265.74,265.38,8
249,265.41,265.22,8
248,265.06,265.05,9
248,264.72,264.88,9
247,264.37,264.70,9
246,264.00,264.51,9
247,263.66,264.34,9
245,263.29,264.14,9
245,262.92,263.95,9
245,262.56,263.76,9
245,262.21,263.58,9
246,261.89,263.40,9
245,261.55,263.22,9
243,261.18,263.01,9
243,260.81,262.81,9
244,260.48,262.62,9
243,260.13,262.43,9
243,259.79,262.23,9
242,259.43,262.03,9
241,259.06,261.82,9
241,258.70,261.61,9
241,258.35,261.41,9
240,257.98,261.19,9
244,257.70,261.02,9
240,257.35,260.81,9
240,257.00,260.60,9
238,256.62,260.38,9
239,256.27,260.16,9
238,255.90,259.94,9
239,255.56,259.73,9
238,255.21,259.51,9
237,254.85,259.29,9
237,254.49,259.07,9
236,254.12,258.84,9
238,253.80,258.63,9
237,253.46,258.41,9
235,253.09,258.18,9
235,252.73,257.95,9
235,252.38,257.72,9
235,252.03,257.49,9
234,251.67,257.25,9
234,251.31,257.02,9
233,250.95,256.78,9
233,250.59,256.54,9
233,250.24,256.31,9
233,249.89,256.08,9
232,249.54,255.83,9
231,249.16,255.59,9
232,248.82,255.35,9
231,248.46,255.11,9
230,248.10,254.86,9
229,247.71,254.60,9
229,247.34,254.34,9
230,246.99,254.10,9
229,246.63,253.85,9
229,246.28,253.60,9
227,245.89,253.33,9
228,245.54,253.08,9
228,245.19,252.83,9
228,244.84,252.58,9
227,244.49,252.32,9
227,244.14,252.07,9
228,243.81,251.83,9
225,243.44,251.56,9
225,243.07,251.30,9
225,242.71,251.03,9
226,242.37,250.78,9
225,242.03,250.53,9
225,241.68,250.27,9
225,241.35,250.02,9
225,241.02,249.77,9
224,240.68,249.51,9
223,240.33,249.24,9
223,239.98,248.98,9
223,239.64,248.72,9
222,239.29,248.45,9
223,238.96,248.20,9
221,238.61,247.93,9
221,238.25,247.66,9
221,237.91,247.39,9
221,237.57,247.13,9
221,237.24,246.87,9
220,236.89,246.60,9
220,236.56,246.33,9
220,236.22,246.07,9
220,235.90,245.81,9
219,235.56,245.54,9
219,235.23,245.27,9
219,234.91,245.01,9
219,234.59,244.75,9
220,234.30,244.50,9
217,233.95,244.23,9
219,233.65,243.98,9
219,233.36,243.73,9
217,233.03,243.46,9
217,232.71,243.20,9
217,232.40,242.93,9
216,232.07,242.66,9
216,231.75,242.40,9
215,231.41,242.12,9
215,231.08,241.85,9
216,230.78,241.59,9
215,230.47,241.33,9
213,230.12,241.04,9
215,229.82,240.78,9
213,229.48,240.51,9
212,229.13,240.22,9
213,228.81,239.95,9
213,228.49,239.68,9
211,228.14,239.39,9
212,227.82,239.12,9
211,227.48,238.84,9
212,227.17,238.57,9
211,226.85,238.29,9
210,226.51,238.01,9
210,226.18,237.73,9
210,225.86,237.45,9
213,225.60,237.21,9
210,225.29,236.94,9
209,224.96,236.66,9
209,224.64,236.38,9
207,224.29,236.09,9
210,224.00,235.83,9
209,223.70,235.56,9
208,223.39,235.28,9
207,223.06,235.00,9
207,222.74,234.72,9
208,222.45,234.45,9
207,222.14,234.18,9
205,221.80,233.89,9
205,221.46,233.60,9
206,221.15,233.32,9
206,220.85,233.05,9
203,220.49,232.75,9
205,220.18,232.47,9
204,219.86,232.19,9
205,219.56,231.91,9
203,219.23,231.62,9
204,218.92,231.35,9
203,218.61,231.06,9
203,218.29,230.78,9
203,217.99,230.51,9
203,217.69,230.23,9
203,217.39,229.96,9
202,217.09,229.68,9
201,216.76,229.39,9
202,216.47,229.12,9
202,216.18,228.85,9
201,215.88,228.57,9
201,215.58,228.29,9
201,215.29,228.02,9
202,215.02,227.76,9
200,214.72,227.48,9
200,214.43,227.21,9
199,214.12,226.93,9
200,213.84,226.66,9
200,213.56,226.39,9
199,213.27,226.12,9
198,212.96,225.83,9
198,212.66,225.56,9
197,212.35,225.27,9
197,212.04,224.99,9
197,211.74,224.71,9
197,211.45,224.43,9
197,211.16,224.16,9
197,210.88,223.89,9
196,210.58,223.61,9
195,210.27,223.32,9
197,210.00,223.06,9
196,209.72,222.79,9
197,209.47,222.53,9
195,209.18,222.25,9
198,208.95,222.01,9
194,208.65,221.73,9
196,208.40,221.47,9
197,208.17,221.23,9
196,207.93,220.98,9
195,207.67,220.72,9
194,207.40,220.45,9
196,207.17,220.21,9
195,206.93,219.95,9
193,206.65,219.68,9
193,206.37,219.42,9
195,206.15,219.17,9
193,205.88,218.91,9
192,205.61,218.64,9
192,205.33,218.38,9
193,205.09,218.12,9
196,204.91,217.90,9
193,204.67,217.65,9
192,204.41,217.39,9
193,204.19,217.15,9
194,203.98,216.92,9
194,203.78,216.69,9
193,203.57,216.45,9
192,203.34,216.21,9
191,203.09,215.96,9
193,202.89,215.73,9
193,202.69,215.50,9
191,202.46,215.25,9
192,202.25,215.02,9
192,202.04,214.79,9
192,201.84,214.56,9
191,201.62,214.33,9
191,201.41,214.10,9
190,201.18,213.85,9
189,200.94,213.61,9
191,200.74,213.38,9
189,200.51,213.14,9
189,200.28,212.89,9
190,200.07,212.67,9
190,199.87,212.44,9
191,199.69,212.22,9
188,199.46,211.98,9
188,199.23,211.74,9
188,199.00,211.50,9
188,198.78,211.27,9
188,198.57,211.04,9
188,198.36,210.81,9
187,198.13,210.57,9
187,197.91,210.33,9
185,197.65,210.08,9
187,197.44,209.85,9
188,197.25,209.63,9
187,197.04,209.40,9
188,196.86,209.19,9
186,196.64,208.96,9
187,196.45,208.74,9
186,196.24,208.51,9
187,196.06,208.30,9
186,195.86,208.07,9
186,195.66,207.85,9
185,195.45,207.62,9
185,195.24,207.40,9
187,195.07,207.19,9
184,194.85,206.96,9
184,194.63,206.73,9
183,194.40,206.49,9
183,194.17,206.26,9
183,193.95,206.03,9
182,193.71,205.79,9
182,193.48,205.55,9
183,193.27,205.32,9
181,193.02,205.08,9
183,192.82,204.86,9
181,192.59,204.62,9
181,192.35,204.38,9
181,192.13,204.15,9
180,191.88,203.91,9
181,191.67,203.68,9
180,191.43,203.44,9
179,191.18,203.20,9
179,190.94,202.96,9
181,190.74,202.74,9
180,190.53,202.51,9
179,190.30,202.28,9
179,190.07,202.04,9
179,189.85,201.81,9
179,189.63,201.58,9
180,189.44,201.37,9
177,189.19,201.12,9
179,188.99,200.90,9
179,188.79,200.68,9
179,188.59,200.47,9
177,188.36,200.23,9
178,188.15,200.01,9
181,188.01,199.82,9
177,187.79,199.59,9
177,187.57,199.37,9
177,187.36,199.14,9
177,187.15,198.92,9
177,186.95,198.70,9
177,186.75,198.48,9
177,186.56,198.27,9
175,186.33,198.04,9
177,186.14,197.83,9
179,186.00,197.64,9
179,185.86,197.45,9
177,185.68,197.25,9
176,185.49,197.04,9
176,185.30,196.82,9
177,185.13,196.63,9
176,184.95,196.42,9
175,184.75,196.21,9
175,184.55,195.99,9
175,184.36,195.78,9
176,184.20,195.59,9
175,184.01,195.38,9
175,183.83,195.18,9
175,183.65,194.97,9
176,183.50,194.79,9
177,183.37,194.61,9
174,183.18,194.40,9
175,183.02,194.21,9
175,182.86,194.02,9
176,182.72,193.83,9
173,182.53,193.63,9
173,182.34,193.42,9
174,182.17,193.23,9
174,182.01,193.03,9
175,181.87,192.85,9
174,181.71,192.66,9
173,181.54,192.47,9
173,181.37,192.27,9
173,181.20,192.08,9
174,181.05,191.90,9
173,180.89,191.71,9
171,180.70,191.50,9
173,180.54,191.32,9
173,180.39,191.14,9
172,180.22,190.94,9
171,180.04,190.74,9
171,179.86,190.55,9
169,179.64,190.33,9
172,179.49,190.15,9
170,179.30,189.95,9
170,179.11,189.75,9
172,178.97,189.57,9
171,178.81,189.38,9
172,178.67,189.21,9
169,178.48,189.01,9
175,178.41,188.87,9
173,178.30,188.71,9
174,178.22,188.56,9
172,178.09,188.40,9
171,177.95,188.22,9
171,177.81,188.05,9
172,177.70,187.89,9
173,177.60,187.74,9
172,177.49,187.58,9
171,177.36,187.42,9
172,177.25,187.26,9
172,177.15,187.11,9
172,177.04,186.96,9
170,176.90,186.79,9
169,176.75,186.61,9
171,176.63,186.46,9
171,176.52,186.30,9
171,176.41,186.15,9
169,176.26,185.98,9
169,176.11,185.81,9
168,175.95,185.63,9
171,175.85,185.48,9
169,175.72,185.32,9
168,175.56,185.15,9
169,175.43,184.98,9
171,175.34,184.84,9
171,175.25,184.71,9
169,175.13,184.55,9
169,175.01,184.39,9
168,174.87,184.23,9
170,174.77,184.09,9
169,174.65,183.94,9
168,174.52,183.78,9
168,174.39,183.62,9
169,174.28,183.47,9
171,174.22,183.35,9
169,174.11,183.20,9
169,174.01,183.06,9
167,173.87,182.90,9
170,173.79,182.77,9
170,173.72,182.65,9
171,173.66,182.53,9
170,173.59,182.40,9
168,173.48,182.26,9
168,173.37,182.12,9
168,173.26,181.98,9
167,173.14,181.83,9
168,173.03,181.69,9
167,172.91,181.54,9
167,172.79,181.40,9
166,172.66,181.24,9
167,172.55,181.10,9
167,172.43,180.96,9
167,172.33,180.82,9
168,172.24,180.69,9
167,172.13,180.55,9
165,171.99,180.40,9
167,171.89,180.26,9
167,171.79,180.13,9
167,171.70,180.00,9
165,171.56,179.85,9
165,171.43,179.70,9
167,171.34,179.57,9
167,171.26,179.45,9
167,171.17,179.32,9
165,171.05,179.18,9
165,170.93,179.04,9
165,170.81,178.90,9
165,170.69,178.76,9
165,170.58,178.62,9
165,170.47,178.49,9
164,170.34,178.34,9
165,170.23,178.21,9
166,170.15,178.09,9
163,170.00,177.93,9
164,169.88,177.80,9
165,169.79,177.67,9
165,169.69,177.54,9
165,169.60,177.42,9
163,169.46,177.27,9
163,169.34,177.13,9
165,169.25,177.01,9
165,169.16,176.89,9
164,169.06,176.76,9
163,168.94,176.62,9
161,168.78,176.46,9
163,168.66,176.33,9
164,168.57,176.21,9
163,168.46,176.07,9
163,168.35,175.94,9
163,168.24,175.81,9
165,168.18,175.71,9
163,168.08,175.58,9
161,167.93,175.43,9
165,167.88,175.33,9
161,167.74,175.19,9
164,167.66,175.07,9
163,167.57,174.95,9
161,167.44,174.81,9
162,167.33,174.69,9
165,167.28,174.59,9
164,167.22,174.48,9
161,167.09,174.35,9
161,166.97,174.21,9
162,166.87,174.09,9
164,166.81,173.99,9
162,166.72,173.87,9
161,166.60,173.74,9
161,166.49,173.62,9
163,166.42,173.51,9
161,166.31,173.38,9
160,166.19,173.25,9
161,166.08,173.13,9
162,166.00,173.02,9
162,165.92,172.91,9
163,165.86,172.81,9
160,165.75,172.68,9
161,165.65,172.56,9
161,165.56,172.45,9
161,165.47,172.33,9
159,165.34,172.20,9
160,165.23,172.08,9
161,165.15,171.97,9
163,165.10,171.88,9
161,165.02,171.77,9
159,164.90,171.64,9
159,164.78,171.51,9
161,164.71,171.41,9
163,164.67,171.32,9
160,164.58,171.21,9
159,164.47,171.09,9
159,164.36,170.97,9
160,164.27,170.86,9
159,164.17,170.74,9
160,164.08,170.63,9
157,163.94,170.50,9
159,163.84,170.38,9
159,163.75,170.27,9
159,163.65,170.15,9
157,163.52,170.02,9
158,163.41,169.90,9
157,163.28,169.77,9
159,163.19,169.67,9
157,163.07,169.54,9
157,162.95,169.41,9
158,162.85,169.30,9
160,162.79,169.21,9
159,162.72,169.10,9
157,162.60,168.98,9
161,162.57,168.90,9
157,162.46,168.79,9
157,162.35,168.67,9
158,162.26,168.56,9
158,162.18,168.45,9
157,162.07,168.34,9
157,161.97,168.23,9
157,161.87,168.11,9
156,161.76,167.99,9
156,161.64,167.87,9
157,161.55,167.76,9
157,161.46,167.66,9
156,161.35,167.54,9
155,161.22,167.42,9
155,161.10,167.29,9
155,160.97,167.17,9
155,160.85,167.05,9
156,160.76,166.94,9
155,160.64,166.82,9
155,160.53,166.70,9
155,160.42,166.58,9
155,160.31,166.47,9
155,160.20,166.35,9
153,160.06,166.22,9
155,159.96,166.11,9
156,159.88,166.00,9
157,159.82,165.91,9
155,159.73,165.81,9
156,159.65,165.71,9
155,159.56,165.60,9
155,159.47,165.49,9
154,159.36,165.38,9
153,159.23,165.26,9
153,159.11,165.13,9
153,158.98,165.01,9
155,158.90,164.91,9
153,158.79,164.79,9
153,158.67,164.67,9
155,158.60,164.58,9
154,158.51,164.47,9
154,158.41,164.37,9
153,158.31,164.25,9
153,158.20,164.14,9
153,158.10,164.03,9
155,158.03,163.94,9
154,157.95,163.84,9
153,157.85,163.73,9
153,157.76,163.62,9
153,157.66,163.52,9
155,157.61,163.43,9
153,157.52,163.33,9
152,157.41,163.22,9
152,157.30,163.10,9
154,157.23,163.01,9
151,157.11,162.89,9
150,156.97,162.76,9
151,156.85,162.65,9
151,156.73,162.53,9
152,156.64,162.42,9
152,156.54,162.32,9
152,156.45,162.22,9
151,156.34,162.10,9
150,156.22,161.98,9
151,156.11,161.87,9
151,156.01,161.76,9
150,155.89,161.65,9
149,155.75,161.52,9
150,155.64,161.40,9
153,155.58,161.32,9
151,155.49,161.22,9
149,155.36,161.10,9
151,155.27,160.99,9
154,155.25,160.92,9
153,155.20,160.85,9
151,155.12,160.75,9
152,155.06,160.66,9
153,155.02,160.58,9
153,154.98,160.51,9
153,154.94,160.43,9
151,154.86,160.34,9
150,154.76,160.23,9
152,154.71,160.15,9
153,154.67,160.08,9
152,154.62,160.00,9
151,154.55,159.91,9
150,154.45,159.81,9
151,154.39,159.72,9
151,154.32,159.64,9
149,154.21,159.53,9
150,154.13,159.43,9
149,154.02,159.33,9
151,153.96,159.25,9
152,153.93,159.17,9
151,153.87,159.09,9
150,153.79,159.00,9
149,153.69,158.90,9
149,153.60,158.80,9
151,153.55,158.72,9
150,153.48,158.64,9
149,153.39,158.54,9
148,153.28,158.43,9
149,153.19,158.34,9
149,153.11,158.25,9
148,153.01,158.14,9
149,152.93,158.05,9
149,152.85,157.96,9
148,152.75,157.86,9
148,152.66,157.76,9
148,152.56,157.67,9
148,152.47,157.57,9
150,152.42,157.49,9
151,152.39,157.43,9
151,152.37,157.37,9
148,152.28,157.27,9
149,152.21,157.19,9
153,152.23,157.15,9
151,152.21,157.09,9
149,152.14,157.00,9
148,152.06,156.91,9
149,152.00,156.84,9
150,151.96,156.77,9
149,151.90,156.69,9
150,151.86,156.62,9
148,151.78,156.54,9
148,151.71,156.45,9
149,151.65,156.38,9
151,151.64,156.32,9
147,151.55,156.23,9
149,151.50,156.16,9
149,151.45,156.09,9
149,151.40,156.01,9
150,151.37,155.95,9
148,151.30,155.87,9
149,151.26,155.81,9
149,151.21,155.74,9
147,151.13,155.65,9
147,151.04,155.56,9
147,150.96,155.48,9
148,150.90,155.40,9
149,150.87,155.34,9
149,150.83,155.28,9
147,150.75,155.19,9
148,150.70,155.12,9
148,150.64,155.05,9
147,150.57,154.97,9
149,150.54,154.91,9
148,150.49,154.84,9
149,150.46,154.78,9
147,150.39,154.71,9
146,150.30,154.62,9
146,150.22,154.53,9
148,150.17,154.47,9
146,150.09,154.38,9
147,150.03,154.31,9
145,149.93,154.21,9
145,149.83,154.12,9
148,149.79,154.06,9
149,149.77,154.01,9
148,149.74,153.95,9
148,149.70,153.89,9
145,149.61,153.80,9
145,149.52,153.71,9
147,149.47,153.65,9
147,149.42,153.58,9
147,149.37,153.51,9
145,149.28,153.43,9
148,149.26,153.38,9
148,149.23,153.32,9
149,149.23,153.28,9
149,149.22,153.24,9
149,149.22,153.19,9
147,149.17,153.13,9
148,149.15,153.08,9
147,149.11,153.02,9
148,149.09,152.97,9
149,149.08,152.93,9
149,149.08,152.89,9
147,149.04,152.83,9
145,148.96,152.75,9
147,148.92,152.70,9
146,148.86,152.63,9
147,148.82,152.57,9
145,148.75,152.50,9
145,148.67,152.42,9
145,148.60,152.35,9
145,148.53,152.27,9
145,148.46,152.20,9
145,148.39,152.13,9
146,148.34,152.07,9
145,148.27,152.00,9
145,148.21,151.93,9
147,148.18,151.88,9
147,148.16,151.83,9
146,148.12,151.77,9
145,148.05,151.70,9
145,147.99,151.64,9
146,147.95,151.58,9
147,147.93,151.53,9
148,147.94,151.50,9
147,147.92,151.45,9
145,147.86,151.39,9
147,147.84,151.35,9
146,147.80,151.29,9
149,147.83,151.27,9
146,147.79,151.22,9
145,147.74,151.15,9
146,147.70,151.10,9
144,147.63,151.03,9
145,147.57,150.97,9
145,147.52,150.91,9
147,147.51,150.87,9
147,147.50,150.83,9
145,147.45,150.78,9
144,147.38,150.71,9
144,147.32,150.64,9
145,147.27,150.58,9
145,147.22,150.53,9
143,147.14,150.45,9
143,147.06,150.38,9
143,146.98,150.30,9
146,146.96,150.26,9
145,146.92,150.21,9
143,146.84,150.14,9
144,146.78,150.08,9
143,146.71,150.00,9
145,146.67,149.95,9
145,146.64,149.91,9
143,146.57,149.84,9
143,146.49,149.77,9
143,146.42,149.70,9
144,146.38,149.64,9
143,146.31,149.58,9
143,146.24,149.51,9
143,146.18,149.45,9
141,146.07,149.36,9
144,146.03,149.31,9
144,145.99,149.25,9
144,145.95,149.20,9
145,145.93,149.16,9
143,145.87,149.10,9
143,145.82,149.04,9
143,145.76,148.98,9
142,145.69,148.91,9
145,145.67,148.87,9
143,145.62,148.81,9
142,145.55,148.74,9
141,145.46,148.66,9
141,145.37,148.59,9
142,145.30,148.52,9
141,145.21,148.45,9
143,145.17,148.39,9
146,145.19,148.37,9
145,145.18,148.33,9
144,145.16,148.29,9
149,145.23,148.30,9
149,145.31,148.30,9
143,145.26,148.25,9
144,145.24,148.21,9
143,145.19,148.16,9
141,145.11,148.09,9
143,145.07,148.03,9
143,145.03,147.98,9
143,144.99,147.93,9
144,144.97,147.90,9
143,144.93,147.85,9
143,144.89,147.80,9
144,144.87,147.76,9
142,144.81,147.70,9
142,144.76,147.65,9
144,144.74,147.61,9
145,144.75,147.58,9
146,144.77,147.57,9
146,144.80,147.55,9
144,144.78,147.52,9
144,144.76,147.48,9
141,144.69,147.42,9
148,144.76,147.42,9
143,144.72,147.38,9
143,144.69,147.33,9
145,144.69,147.31,9
143,144.66,147.27,9
145,144.67,147.24,9
143,144.63,147.20,9
143,144.60,147.16,9
145,144.61,147.14,9
145,144.62,147.12,9
146,144.64,147.11,9
143,144.61,147.06,9
143,144.58,147.02,9
143,144.55,146.98,9
141,144.48,146.92,9
143,144.45,146.88,9
145,144.46,146.87,9
143,144.43,146.83,9
143,144.40,146.79,9
142,144.35,146.74,9
141,144.28,146.68,9
143,144.26,146.65,9
143,144.23,146.61,9
142,144.19,146.56,9
145,144.21,146.55,9
143,144.18,146.51,9
145,144.20,146.50,9
142,144.15,146.45,9
143,144.13,146.42,9
142,144.09,146.37,9
146,144.13,146.37,9
142,144.08,146.33,9
144,144.08,146.30,9
143,144.06,146.27,9
143,144.04,146.24,9
145,144.06,146.23,9
141,144.00,146.17,9
145,144.02,146.16,9
145,144.04,146.15,9
146,144.08,146.15,9
143,144.05,146.12,9
147,144.11,146.13,9
143,144.09,146.09,9
144,144.09,146.07,9
147,144.15,146.08,9
145,144.16,146.07,9
144,144.16,146.05,9
144,144.16,146.03,9
143,144.14,146.00,9
147,144.19,146.01,9
144,144.19,145.99,9
143,144.16,145.96,9
143,144.14,145.93,9
145,144.16,145.92,9
146,144.20,145.92,9
146,144.23,145.92,9
147,144.29,145.93,9
144,144.28,145.91,9
145,144.30,145.91,9
145,144.31,145.90,9
143,144.28,145.87,9
143,144.26,145.84,9
144,144.25,145.82,9
144,144.25,145.80,9
149,144.34,145.83,9
150,144.46,145.88,9
148,144.53,145.90,9
147,144.58,145.91,9
146,144.60,145.91,9
151,144.73,145.96,9
148,144.80,145.98,9
148,144.86,146.00,9
146,144.88,146.00,9
146,144.91,146.00,9
145,144.91,145.99,9
149,144.99,146.02,9
147,145.03,146.03,9
147,145.07,146.04,9
147,145.11,146.05,9
149,145.19,146.08,9
150,145.28,146.12,9
150,145.38,146.16,9
149,145.45,146.19,9
148,145.50,146.20,9
146,145.51,146.20,9
149,145.58,146.23,9
148,145.63,146.25,9
146,145.64,146.24,9
151,145.74,146.29,9
156,145.95,146.39,9
149,146.01,146.42,9
155,146.19,146.50,9
152,146.31,146.56,9
158,146.54,146.67,9
157,146.75,146.77,10
151,146.83,146.82,10
151,146.92,146.86,11
153,147.04,146.92,11
152,147.14,146.97,11
153,147.26,147.03,11
156,147.43,147.12,11
157,147.62,147.22,11
160,147.87,147.35,11
160,148.11,147.47,11
155,148.25,147.55,11
154,148.36,147.61,11
163,148.66,147.77,11
162,148.92,147.91,11
160,149.15,148.03,11
162,149.40,148.17,11
160,149.61,148.29,11
158,149.78,148.39,11
162,150.03,148.52,11
158,150.19,148.62,11
159,150.36,148.72,11
167,150.70,148.90,11
164,150.96,149.05,11
166,151.26,149.22,11
160,151.44,149.33,11
162,151.65,149.46,11
161,151.84,149.57,11
162,152.04,149.70,11
160,152.20,149.80,11
159,152.33,149.89,11
160,152.49,149.99,11
162,152.68,150.11,11
162,152.86,150.23,11
166,153.13,150.39,11
171,153.48,150.60,11
173,153.87,150.82,11
177,154.34,151.08,11
167,154.59,151.24,11
179,155.08,151.52,11
184,155.66,151.84,11
178,156.10,152.11,11
178,156.54,152.36,11
174,156.89,152.58,11
175,157.25,152.81,11
172,157.55,153.00,11
188,158.16,153.35,11
190,158.79,153.71,11
182,159.26,154.00,11
186,159.79,154.32,11
195,160.50,154.72,11
193,161.15,155.11,11
183,161.58,155.39,11
182,161.99,155.65,11
184,162.43,155.93,11
188,162.94,156.26,11
186,163.41,156.55,11
186,163.86,156.85,11
188,164.34,157.16,11
186,164.77,157.45,11
187,165.22,157.74,11
189,165.69,158.06,11
189,166.16,158.36,11
188,166.60,158.66,11
186,166.98,158.93,11
187,167.38,159.22,11
189,167.82,159.51,11
190,168.26,159.82,11
186,168.62,160.08,11
190,169.04,160.38,11
190,169.46,160.68,11
189,169.85,160.96,11
192,170.30,161.27,11
192,170.73,161.58,11
194,171.20,161.90,11
191,171.59,162.19,11
198,172.12,162.55,11
192,172.52,162.84,11
192,172.91,163.14,11
198,173.41,163.48,11
199,173.92,163.84,11
195,174.34,164.15,11
193,174.72,164.44,11
195,175.12,164.74,11
192,175.46,165.02,11
196,175.87,165.33,11
208,176.51,165.75,11
204,177.06,166.14,11
194,177.40,166.42,11
196,177.77,166.71,11
210,178.42,167.14,11
203,178.91,167.50,11
199,179.31,167.82,11
197,179.66,168.11,11
197,180.01,168.40,11
199,180.39,168.70,11
197,180.72,168.99,11
199,181.09,169.29,11
209,181.65,169.68,11
206,182.13,170.05,11
209,182.67,170.44,11
208,183.18,170.81,11
205,183.61,171.15,11
204,184.02,171.48,11
211,184.56,171.88,11
219,185.25,172.35,11
221,185.97,172.84,11
219,186.63,173.30,11
215,187.19,173.71,11
212,187.69,174.10,11
225,188.44,174.61,11
229,189.25,175.15,11
228,190.02,175.68,11
225,190.72,176.17,11
227,191.45,176.68,11
225,192.12,177.16,11
219,192.66,177.58,11
219,193.18,178.00,11
222,193.76,178.44,11
220,194.28,178.85,11
222,194.84,179.28,11
221,195.36,179.70,11
222,195.89,180.12,11
223,196.44,180.55,11
219,196.89,180.94,11
226,197.47,181.39,11
225,198.02,181.82,11
225,198.56,182.26,11
220,198.99,182.63,11
221,199.43,183.02,11
222,199.88,183.41,11
225,200.38,183.82,11
229,200.96,184.27,11
228,201.50,184.71,11
226,201.99,185.12,11
224,202.43,185.51,11
230,202.98,185.96,11
237,203.66,186.47,11
232,204.23,186.92,11
226,204.66,187.31,11
228,205.13,187.72,11
241,205.85,188.25,11
234,206.41,188.71,11
231,206.90,189.13,11
233,207.42,189.57,11
239,208.05,190.07,11
238,208.65,190.55,11
233,209.14,190.97,11
241,209.78,191.47,11
241,210.40,191.97,11
240,210.99,192.45,11
234,211.45,192.86,11
237,211.96,193.30,11
234,212.41,193.71,11
234,212.84,194.11,11
243,213.44,194.60,11
235,213.87,195.01,11
234,214.27,195.40,11
238,214.75,195.82,11
252,215.49,196.38,11
253,216.24,196.95,11
247,216.86,197.45,11
244,217.40,197.92,11
256,218.17,198.50,11
253,218.87,199.04,11
256,219.61,199.61,11
257,220.36,200.19,11
247,220.89,200.65,11
254,221.56,201.19,11
253,222.18,201.71,11
248,222.70,202.17,11
248,223.21,202.63,11
247,223.68,203.07,11
248,224.17,203.52,11
248,224.65,203.96,11
259,225.33,204.51,11
260,226.03,205.07,11
251,226.53,205.53,11
266,227.31,206.13,11
268,228.13,206.75,11
257,228.71,207.26,11
260,229.33,207.78,11
259,229.93,208.29,11
256,230.45,208.77,11
255,230.94,209.23,11
257,231.46,209.71,11
255,231.93,210.16,11
257,232.43,210.63,11
254,232.86,211.07,11
254,233.29,211.50,11
256,233.74,211.94,11
254,234.14,212.36,11
259,234.64,212.83,11
255,235.05,213.25,11
256,235.47,213.68,11
254,235.84,214.08,11
257,236.26,214.51,11
257,236.68,214.93,11
254,237.02,215.33,11
258,237.44,215.75,11
263,237.95,216.22,11
258,238.35,216.64,11
257,238.73,217.05,11
267,239.29,217.55,11
261,239.73,217.98,11
259,240.11,218.39,11
257,240.45,218.78,11
264,240.92,219.23,11
269,241.48,219.73,11
259,241.83,220.12,11
264,242.28,220.56,11
267,242.77,221.02,11
260,243.12,221.41,11
264,243.53,221.84,11
264,243.94,222.26,11
262,244.30,222.66,11
261,244.64,223.04,11
260,244.95,223.41,11
261,245.27,223.79,11
259,245.54,224.14,11
264,245.91,224.54,11
266,246.31,224.95,11
262,246.63,225.32,11
259,246.87,225.66,11
260,247.14,226.00,11
259,247.37,226.33,11
259,247.61,226.66,11
259,247.83,226.98,11
259,248.06,227.30,11
261,248.32,227.64,11
258,248.51,227.94,11
258,248.70,228.24,11
257,248.87,228.53,11
258,249.05,228.83,11
258,249.23,229.12,11
257,249.38,229.40,11
257,249.53,229.67,11
257,249.68,229.95,11
257,249.83,230.22,11
256,249.95,230.47,11
254,250.03,230.71,11
254,250.11,230.94,11
254,250.19,231.17,11
258,250.35,231.44,11
254,250.42,231.67,11
254,250.49,231.89,11
253,250.54,232.10,11
252,250.57,232.30,11
252,250.60,232.50,11
251,250.61,232.68,11
251,250.62,232.87,11
252,250.64,233.06,11
250,250.63,233.23,11
251,250.64,233.40,11
249,250.61,233.56,11
248,250.55,233.70,11
249,250.52,233.86,11
248,250.47,234.00,11
248,250.42,234.14,11
247,250.35,234.27,11
246,250.27,234.38,11
246,250.18,234.50,11
246,250.10,234.62,11
245,250.00,234.72,11
245,249.90,234.82,11
244,249.78,234.91,11
245,249.68,235.01,11
244,249.57,235.10,11
243,249.44,235.18,11
244,249.33,235.27,11
242,249.18,235.34,11
242,249.04,235.41,11
242,248.90,235.47,11
241,248.74,235.53,11
241,248.59,235.58,11
241,248.43,235.64,11
241,248.28,235.69,11
240,248.12,235.73,11
240,247.96,235.78,11
239,247.78,235.81,11
238,247.58,235.83,11
239,247.41,235.86,11
239,247.24,235.89,11
238,247.06,235.91,11
238,246.88,235.93,11
238,246.70,235.96,11
236,246.48,235.96,11
238,246.32,235.98,11
236,246.11,235.98,11
236,245.91,235.98,11
236,245.71,235.98,11
236,245.51,235.98,11
234,245.28,235.96,11
234,245.06,235.94,11
233,244.82,235.91,11
234,244.60,235.89,11
234,244.39,235.87,11
232,244.14,235.83,11
232,243.90,235.79,11
233,243.68,235.77,11
231,243.43,235.72,11
232,243.20,235.68,11
230,242.93,235.62,11
230,242.68,235.57,11
231,242.44,235.52,11
229,242.17,235.46,11
229,241.91,235.39,11
229,241.65,235.33,11
230,241.42,235.27,11
229,241.17,235.21,11
227,240.89,235.13,11
227,240.61,235.05,11
226,240.32,234.96,11
225,240.01,234.86,11
227,239.75,234.78,11
226,239.48,234.69,11
226,239.21,234.61,11
225,238.92,234.51,11
225,238.64,234.41,11
224,238.35,234.31,11
223,238.04,234.20,11
224,237.76,234.10,11
224,237.49,233.99,11
224,237.22,233.89,11
223,236.93,233.79,11
222,236.63,233.67,11
222,236.34,233.55,11
222,236.06,233.44,11
221,235.75,233.31,11
221,235.46,233.19,11
221,235.17,233.07,11
221,234.89,232.95,11
221,234.61,232.83,11
220,234.32,232.70,11
219,234.01,232.56,11
220,233.73,232.43,11
220,233.46,232.31,11
219,233.17,232.18,11
219,232.88,232.05,11
220,232.63,231.93,11
218,232.33,231.79,11
218,232.05,231.65,11
216,231.73,231.49,11
217,231.43,231.35,12
217,231.14,231.20,12
217,230.86,231.06,12
216,230.56,230.91,12
217,230.29,230.77,12
214,229.97,230.60,12
216,229.69,230.46,12
215,229.39,230.30,12
214,229.08,230.14,12
214,228.78,229.98,12
214,228.49,229.82,12
215,228.22,229.67,12
214,227.93,229.51,12
213,227.63,229.35,12
214,227.36,229.20,12
214,227.09,229.04,12
212,226.79,228.87,12
212,226.50,228.70,12
212,226.21,228.54,12
213,225.94,228.38,12
212,225.66,228.22,12
211,225.37,228.05,12
210,225.06,227.87,12
211,224.78,227.70,12
210,224.49,227.52,12
210,224.20,227.34,12
209,223.89,227.16,12
211,223.63,227.00,12
209,223.34,226.82,12
208,223.04,226.63,12
207,222.71,226.44,12
210,222.46,226.27,12
207,222.15,226.08,12
207,221.85,225.89,12
207,221.55,225.70,12
207,221.26,225.51,12
207,220.97,225.33,12
206,220.68,225.13,12
205,220.36,224.93,12
205,220.05,224.73,12
202,219.69,224.51,12
205,219.40,224.31,12
206,219.13,224.13,12
204,218.83,223.93,12
203,218.51,223.72,12
203,218.20,223.51,12
202,217.88,223.29,12
203,217.58,223.09,12
202,217.27,222.88,12
203,216.98,222.68,12
202,216.68,222.47,12
201,216.37,222.26,12
201,216.06,222.05,12
200,215.74,221.83,12
202,215.47,221.63,12
201,215.18,221.42,12
200,214.87,221.21,12
200,214.58,221.00,12
199,214.26,220.78,12
200,213.98,220.57,12
199,213.68,220.35,12
199,213.39,220.14,12
198,213.08,219.92,12
198,212.78,219.70,12
199,212.50,219.49,12
197,212.19,219.27,12
197,211.89,219.04,12
199,211.63,218.84,12
200,211.40,218.66,12
195,211.07,218.42,12
195,210.75,218.18,12
195,210.43,217.95,12
196,210.14,217.73,12
197,209.88,217.53,12
194,209.56,217.29,12
196,209.29,217.08,12
199,209.09,216.90,12
197,208.85,216.70,12
195,208.57,216.48,12
195,208.30,216.27,12
197,208.07,216.07,12
196,207.83,215.87,12
194,207.55,215.65,12
193,207.26,215.43,12
196,207.04,215.23,12
192,206.74,215.00,12
197,206.54,214.82,12
192,206.25,214.59,12
193,205.99,214.38,12
192,205.71,214.15,12
192,205.43,213.93,12
193,205.18,213.72,12
193,204.94,213.51,12
190,204.64,213.28,12
190,204.35,213.05,12
190,204.06,212.82,12
190,203.78,212.59,12
189,203.48,212.35,12
189,203.19,212.12,12
191,202.95,211.91,12
188,202.65,211.67,12
190,202.40,211.45,12
187,202.09,211.21,12
188,201.81,210.98,12
191,201.59,210.78,12
187,201.30,210.54,12
187,201.01,210.30,12
188,200.75,210.08,12
188,200.50,209.86,12
186,200.21,209.62,12
185,199.91,209.37,12
186,199.63,209.14,12
185,199.33,208.90,12
185,199.05,208.66,12
185,198.77,208.42,12
186,198.51,208.20,12
186,198.26,207.98,12
183,197.96,207.73,12
183,197.66,207.48,12
183,197.36,207.24,12
183,197.08,206.99,12
187,196.87,206.79,12
184,196.62,206.56,12
183,196.35,206.33,12
184,196.10,206.11,12
183,195.84,205.87,12
183,195.58,205.65,12
181,195.29,205.40,12
181,195.00,205.16,12
181,194.72,204.91,12
182,194.47,204.69,12
183,194.24,204.47,12
182,193.99,204.24,12
179,193.69,203.99,12
179,193.40,203.74,12
181,193.15,203.51,12
179,192.87,203.27,12
179,192.59,203.03,12
180,192.34,202.80,12
179,192.07,202.56,12
178,191.79,202.31,12
179,191.54,202.08,12
177,191.24,201.83,12
177,190.96,201.58,12
177,190.68,201.33,12
176,190.39,201.08,12
176,190.10,200.83,12
176,189.82,200.58,12
176,189.54,200.34,12
176,189.27,200.09,12
175,188.98,199.84,12
175,188.71,199.59,12
175,188.43,199.35,12
175,188.16,199.10,12
176,187.92,198.87,12
174,187.64,198.62,12
175,187.39,198.39,12
176,187.16,198.16,12
175,186.92,197.93,12
174,186.66,197.69,12
174,186.41,197.46,12
172,186.12,197.20,12
174,185.88,196.97,12
175,185.66,196.75,12
173,185.40,196.51,12
172,185.14,196.27,12
173,184.89,196.03,12
173,184.66,195.80,12
172,184.40,195.57,12
172,184.15,195.33,12
172,183.91,195.10,12
171,183.65,194.86,12
172,183.42,194.63,12
172,183.19,194.40,12
171,182.95,194.17,12
171,182.71,193.94,12
170,182.45,193.70,12
170,182.21,193.46,12
171,181.98,193.23,12
172,181.78,193.02,12
170,181.55,192.79,12
169,181.30,192.55,12
169,181.05,192.32,12
169,180.81,192.09,12
170,180.59,191.86,12
170,180.38,191.65,12
169,180.15,191.42,12
170,179.95,191.21,12
170,179.75,190.99,12
170,179.56,190.78,12
169,179.34,190.57,12
167,179.10,190.33,12
170,178.92,190.13,12
170,178.74,189.93,12
168,178.52,189.71,12
166,178.27,189.47,12
166,178.03,189.23,12
167,177.81,189.01,12
167,177.59,188.79,12
166,177.36,188.56,12
166,177.13,188.34,12
166,176.91,188.11,12
168,176.73,187.91,12
166,176.52,187.69,12
164,176.27,187.46,12
164,176.02,187.22,12
167,175.84,187.02,12
166,175.64,186.81,12
164,175.41,186.58,12
164,175.18,186.36,12
165,174.98,186.14,12
166,174.80,185.94,12
164,174.58,185.72,12
164,174.37,185.51,12
164,174.16,185.29,12
163,173.94,185.07,12
163,173.72,184.85,12
163,173.51,184.63,12
162,173.28,184.40,12
162,173.05,184.18,12
162,172.83,183.96,12
164,172.65,183.76,12
163,172.46,183.55,12
161,172.23,183.32,12
162,172.03,183.11,12
162,171.83,182.90,12
160,171.59,182.67,12
161,171.38,182.45,12
162,171.19,182.25,12
160,170.97,182.03,12
159,170.73,181.80,12
159,170.49,181.57,12
159,170.26,181.34,12
159,170.04,181.12,12
160,169.84,180.91,12
160,169.64,180.70,12
160,169.45,180.49,12
159,169.24,180.28,12
160,169.05,180.07,12
159,168.85,179.86,12
159,168.66,179.65,12
160,168.48,179.46,12
161,168.33,179.27,12
160,168.17,179.08,12
160,168.00,178.89,12
159,167.82,178.69,12
161,167.69,178.51,12
159,167.51,178.32,12
160,167.36,178.14,12
159,167.20,177.94,12
159,167.03,177.76,12
160,166.89,177.58,12
158,166.71,177.38,12
158,166.54,177.19,12
158,166.37,177.00,12
158,166.20,176.81,12
157,166.02,176.61,12
157,165.84,176.41,12
156,165.64,176.21,12
157,165.47,176.02,12
156,165.28,175.82,12
154,165.05,175.60,12
156,164.87,175.40,12
157,164.71,175.22,12
156,164.54,175.03,12
155,164.35,174.83,12
155,164.16,174.63,12
155,163.98,174.43,12
155,163.80,174.24,12
156,163.64,174.05,12
155,163.47,173.86,12
154,163.28,173.66,12
154,163.09,173.47,12
154,162.91,173.27,12
154,162.73,173.08,12
153,162.54,172.88,12
154,162.37,172.69,12
155,162.22,172.51,12
153,162.04,172.32,12
152,161.84,172.12,12
153,161.66,171.92,12
153,161.49,171.74,12
153,161.32,171.55,12
152,161.13,171.35,12
152,160.95,171.16,12
153,160.79,170.98,12
153,160.63,170.80,12
153,160.48,170.62,12
152,160.31,170.43,12
153,160.16,170.26,12
155,160.06,170.11,12
155,159.96,169.96,12
155,159.86,169.81,12
152,159.70,169.63,12
154,159.59,169.47,12
156,159.52,169.34,12
157,159.47,169.21,12
153,159.34,169.05,12
154,159.23,168.90,12
153,159.11,168.74,12
154,159.00,168.59,12
153,158.88,168.44,12
153,158.77,168.28,12
152,158.63,168.12,12
153,158.52,167.97,12
152,158.39,167.81,12
152,158.26,167.65,12
155,158.20,167.53,12
153,158.09,167.38,12
154,158.01,167.25,12
152,157.89,167.09,12
152,157.77,166.94,12
152,157.66,166.79,12
152,157.54,166.65,12
153,157.45,166.51,12
151,157.32,166.35,12
151,157.20,166.20,12
152,157.09,166.06,12
152,156.99,165.92,12
151,156.87,165.77,12
149,156.71,165.60,12
150,156.58,165.45,12
152,156.49,165.31,12
150,156.36,165.16,12
149,156.21,165.00,12
150,156.09,164.85,12
152,156.01,164.72,12
152,155.92,164.59,12
151,155.83,164.45,12
151,155.73,164.32,12
153,155.68,164.21,12
153,155.62,164.09,12
151,155.53,163.96,12
150,155.42,163.82,12
152,155.35,163.71,12
154,155.32,163.61,12
153,155.28,163.50,12
151,155.19,163.38,12
152,155.13,163.26,12
153,155.09,163.16,12
155,155.08,163.08,12
153,155.04,162.98,12
154,155.02,162.89,12
152,154.96,162.78,12
153,154.92,162.68,12
154,154.90,162.60,12
152,154.84,162.49,12
151,154.77,162.37,12
152,154.71,162.27,12
153,154.68,162.18,12
152,154.62,162.08,12
150,154.53,161.96,12
151,154.46,161.85,12
153,154.43,161.76,12
153,154.40,161.67,12
151,154.34,161.56,12
150,154.25,161.45,12
152,154.20,161.35,12
154,154.20,161.28,12
153,154.18,161.20,12
151,154.11,161.10,12
151,154.05,160.99,12
153,154.03,160.91,12
154,154.03,160.85,12
152,153.99,160.76,12
151,153.93,160.66,12
154,153.93,160.59,12
153,153.91,160.52,12
151,153.85,160.42,12
150,153.78,160.32,12
150,153.70,160.21,12
152,153.67,160.13,12
151,153.61,160.04,12
149,153.52,159.93,12
151,153.47,159.84,12
151,153.42,159.75,12
151,153.37,159.66,12
150,153.31,159.57,12
150,153.24,159.47,12
151,153.19,159.39,12
152,153.17,159.31,12
152,153.15,159.24,12
151,153.10,159.16,12
149,153.02,159.06,12
151,152.98,158.98,12
150,152.92,158.89,12
148,152.82,158.78,12
150,152.77,158.69,12
151,152.73,158.61,12
151,152.70,158.54,12
150,152.64,158.45,12
150,152.59,158.37,12
151,152.56,158.29,12
151,152.53,158.22,12
149,152.46,158.13,12
149,152.39,158.04,12
150,152.34,157.96,12
152,152.33,157.90,12
150,152.29,157.82,12
149,152.22,157.73,12
151,152.20,157.66,12
150,152.15,157.59,12
150,152.11,157.51,12
147,152.01,157.40,12
149,151.95,157.32,12
150,151.91,157.25,12
150,151.87,157.18,12
148,151.79,157.08,12
148,151.72,156.99,12
148,151.64,156.90,12
148,151.57,156.81,12
150,151.54,156.75,12
147,151.45,156.65,12
148,151.38,156.56,12
148,151.31,156.48,12
149,151.26,156.40,12
148,151.20,156.32,12
147,151.12,156.22,12
147,151.03,156.13,12
147,150.95,156.04,12
147,150.87,155.95,12
147,150.80,155.86,12
147,150.72,155.77,12
147,150.65,155.68,12
148,150.59,155.61,12
147,150.52,155.52,12
147,150.45,155.44,12
146,150.36,155.34,12
146,150.27,155.25,12
147,150.21,155.17,12
147,150.14,155.08,12
145,150.04,154.98,12
145,149.94,154.88,12
149,149.92,154.82,12
150,149.92,154.78,12
146,149.85,154.69,12
146,149.77,154.60,12
147,149.71,154.53,12
149,149.70,154.47,12
149,149.68,154.42,12
147,149.63,154.34,12
147,149.58,154.27,12
147,149.53,154.20,12
148,149.50,154.13,12
146,149.43,154.05,12
147,149.38,153.98,12
148,149.35,153.92,12
146,149.28,153.84,12
146,149.22,153.76,12
147,149.17,153.70,12
147,149.13,153.63,12
150,149.15,153.59,12
149,149.14,153.55,12
146,149.08,153.47,12
148,149.06,153.42,12
150,149.08,153.38,12
152,149.14,153.37,12
150,149.15,153.34,12
149,149.15,153.29,12
147,149.11,153.23,12
149,149.11,153.19,12
149,149.10,153.15,12
149,149.10,153.10,12
147,149.06,153.04,12
148,149.04,152.99,12
147,149.00,152.93,12
147,148.96,152.87,12
147,148.92,152.81,12
148,148.90,152.77,12
149,148.90,152.73,12
149,148.90,152.69,12
146,148.85,152.62,12
147,148.81,152.57,12
147,148.77,152.51,12
149,148.78,152.48,12
147,148.74,152.42,12
145,148.67,152.35,12
147,148.63,152.29,12
148,148.62,152.25,12
146,148.57,152.19,12
146,148.52,152.13,12
146,148.47,152.07,12
147,148.44,152.02,12
148,148.43,151.98,12
145,148.36,151.91,12
146,148.31,151.85,12
148,148.31,151.81,12
147,148.28,151.76,12
145,148.22,151.69,12
145,148.15,151.63,12
145,148.09,151.56,12
147,148.07,151.51,12
144,147.98,151.44,12
147,147.97,151.39,12
144,147.89,151.32,12
144,147.81,151.25,12
143,147.71,151.16,12
145,147.66,151.10,12
144,147.58,151.03,12
144,147.51,150.96,12
144,147.44,150.89,12
145,147.39,150.83,12
142,147.29,150.74,12
146,147.26,150.70,12
145,147.21,150.64,12
144,147.15,150.57,12
143,147.07,150.50,12
142,146.97,150.41,12
142,146.87,150.33,12
143,146.79,150.26,12
143,146.71,150.18,12
143,146.64,150.11,12
142,146.55,150.03,12
143,146.48,149.96,12
141,146.37,149.87,12
142,146.28,149.79,12
143,146.21,149.72,12
141,146.11,149.64,12
141,146.01,149.55,12
142,145.93,149.47,12
143,145.87,149.41,12
143,145.81,149.35,12
143,145.75,149.28,12
141,145.66,149.20,12
141,145.57,149.12,12
141,145.48,149.04,12
140,145.37,148.95,12
141,145.28,148.87,12
145,145.27,148.83,12
143,145.23,148.77,12
141,145.14,148.69,12
140,145.04,148.60,12
143,145.00,148.55,12
143,144.96,148.49,12
144,144.94,148.45,12
145,144.94,148.41,12
143,144.90,148.36,12
141,144.82,148.29,12
144,144.81,148.24,12
146,144.83,148.22,12
144,144.82,148.18,12
144,144.80,148.14,12
141,144.72,148.07,12
141,144.65,147.99,12
142,144.60,147.93,12
141,144.52,147.87,12
141,144.45,147.80,12
143,144.42,147.75,12
142,144.38,147.69,12
142,144.33,147.63,12
141,144.26,147.57,12
143,144.24,147.52,12
144,144.23,147.49,12
144,144.23,147.45,12
143,144.20,147.41,12
141,144.14,147.34,12
141,144.08,147.28,12
143,144.05,147.24,12
143,144.03,147.20,12
142,143.99,147.14,12
141,143.93,147.08,12
142,143.89,147.03,12
141,143.84,146.97,12
137,143.70,146.87,12
140,143.63,146.80,12
140,143.55,146.73,12
140,143.48,146.67,12
138,143.37,146.58,12
139,143.28,146.50,12
141,143.24,146.45,12
141,143.19,146.39,12
140,143.13,146.33,12
138,143.03,146.25,12
139,142.95,146.18,12
140,142.89,146.11,12
140,142.83,146.05,12
141,142.79,146.00,12
141,142.76,145.95,12
141,142.72,145.90,12
139,142.65,145.83,12
140,142.60,145.77,12
142,142.58,145.74,12
143,142.59,145.71,12
139,142.52,145.64,12
140,142.47,145.59,12
139,142.40,145.52,12
139,142.33,145.46,12
139,142.27,145.39,12
139,142.20,145.33,12
140,142.16,145.27,12
139,142.09,145.21,12
141,142.07,145.17,12
138,141.99,145.10,12
138,141.91,145.03,12
142,141.91,145.00,12
141,141.89,144.96,12
140,141.86,144.91,12
139,141.80,144.85,12
139,141.74,144.79,12
142,141.75,144.76,12
141,141.73,144.72,12
140,141.70,144.68,12
140,141.66,144.63,12
138,141.59,144.56,12
139,141.54,144.51,12
138,141.47,144.44,12
138,141.40,144.38,12
139,141.35,144.32,12
138,141.28,144.26,12
140,141.26,144.22,12
139,141.21,144.17,12
141,141.21,144.13,12
139,141.16,144.08,12
139,141.12,144.03,12
139,141.08,143.98,12
138,141.02,143.92,12
139,140.98,143.87,12
139,140.94,143.82,12
140,140.92,143.79,12
138,140.86,143.73,12
140,140.84,143.69,12
137,140.77,143.62,12
139,140.73,143.58,12
138,140.68,143.52,12
137,140.60,143.46,12
138,140.55,143.40,12
140,140.54,143.37,12
138,140.49,143.31,12
137,140.42,143.25,12
137,140.35,143.19,12
138,140.30,143.14,12
137,140.24,143.08,12
136,140.15,143.00,12
139,140.13,142.96,12
140,140.13,142.93,12
138,140.08,142.89,12
138,140.04,142.84,12
137,139.98,142.78,12
139,139.96,142.74,12
137,139.90,142.68,12
138,139.87,142.64,12
139,139.85,142.60,12
138,139.81,142.55,12
137,139.75,142.50,12
138,139.72,142.45,12
141,139.75,142.44,12
139,139.73,142.40,12
138,139.70,142.36,12
137,139.64,142.31,12
141,139.67,142.29,12
138,139.64,142.25,12
138,139.60,142.21,12
142,139.65,142.21,12
138,139.62,142.16,12
139,139.61,142.13,12
139,139.59,142.10,12
137,139.54,142.05,12
138,139.51,142.01,12
137,139.46,141.96,12
137,139.41,141.91,12
139,139.40,141.88,12
139,139.40,141.85,12
137,139.35,141.80,12
137,139.30,141.76,12
138,139.27,141.72,12
138,139.25,141.68,12
137,139.20,141.63,12
137,139.16,141.59,12
136,139.10,141.53,12
138,139.07,141.50,12
138,139.05,141.46,12
137,139.01,141.42,12
138,138.99,141.38,12
137,138.95,141.34,12
135,138.87,141.28,12
137,138.84,141.23,12
138,138.82,141.20,12
139,138.82,141.18,12
137,138.79,141.14,12
139,138.79,141.12,12
137,138.75,141.07,12
137,138.72,141.03,12
138,138.70,141.00,12
139,138.71,140.98,12
138,138.70,140.95,12
139,138.70,140.93,12
135,138.63,140.87,12
136,138.58,140.83,12
136,138.52,140.78,12
135,138.45,140.72,12
135,138.39,140.66,12
139,138.40,140.65,12
136,138.35,140.60,12
135,138.28,140.54,12
136,138.24,140.50,12
134,138.15,140.43,12
140,138.19,140.43,12
136,138.15,140.38,12
138,138.14,140.36,12
139,138.16,140.35,12
138,138.16,140.32,12
136,138.11,140.28,12
139,138.13,140.27,12
137,138.11,140.23,12
139,138.13,140.22,12
138,138.12,140.20,12
136,138.08,140.16,12
137,138.06,140.13,12
136,138.02,140.09,12
