Teste de posicionamento 3(EMG tendao-inervacao (Vermelho A, Verde C) + Ref no pulso) - 19/10/2024 - teste10 - 5 contrações
long frequencia = 1000;                 //frequência de aquisição do sinal, neste caso, 1000 sinais por segundo
float fator1 = 0.02, fator2 = 0.01;
float incerteza = 0.13;
float pico_basal = 130; // Mínimo para ser considerado um pico de contração
int filtro_horizontal=200000; //intervalo de 200ms valores não pode ter mais de 1 contração

Biceps_D,mediaMovel_1,mediaMovel_2,Contracao
96,1.92,0.96,0
97,3.82,1.92,0
96,5.67,2.86,0
96,7.47,3.79,0
96,9.24,4.71,0
95,10.96,5.62,0
96,12.66,6.52,0
95,14.31,7.41,0
95,15.92,8.28,0
96,17.52,9.16,0
97,19.11,10.04,0
96,20.65,10.90,0
95,22.14,11.74,0
94,23.57,12.56,0
96,25.02,13.40,0
96,26.44,14.22,0
96,27.83,15.04,0
95,29.18,15.84,0
96,30.51,16.64,0
96,31.82,17.43,0
95,33.09,18.21,0
96,34.34,18.99,0
95,35.56,19.75,0
95,36.75,20.50,0
96,37.93,21.26,0
95,39.07,21.99,0
96,40.21,22.73,0
95,41.31,23.46,0
95,42.38,24.17,0
96,43.45,24.89,0
96,44.50,25.60,0
96,45.53,26.30,0
95,46.52,26.99,0
95,47.49,27.67,0
94,48.42,28.33,0
95,49.35,29.00,0
95,50.27,29.66,0
97,51.20,30.33,0
95,52.08,30.98,0
95,52.94,31.62,0
95,53.78,32.26,0
95,54.60,32.88,0
96,55.43,33.51,0
95,56.22,34.13,0
96,57.02,34.75,0
95,57.78,35.35,0
95,58.52,35.95,0
94,59.23,36.53,0
94,59.93,37.10,0
95,60.63,37.68,0
94,61.29,38.24,0
95,61.97,38.81,0
94,62.61,39.36,0
95,63.26,39.92,0
94,63.87,40.46,0
94,64.47,41.00,0
95,65.09,41.54,0
95,65.68,42.07,0
94,66.25,42.59,0
94,66.80,43.10,0
94,67.35,43.61,0
94,67.88,44.12,0
94,68.40,44.62,0
94,68.92,45.11,0
95,69.44,45.61,0
95,69.95,46.10,0
94,70.43,46.58,0
94,70.90,47.06,0
94,71.36,47.52,0
94,71.82,47.99,0
95,72.28,48.46,0
94,72.71,48.92,0
95,73.16,49.38,0
94,73.58,49.82,0
94,73.99,50.26,0
94,74.39,50.70,0
94,74.78,51.13,0
94,75.16,51.56,0
95,75.56,52.00,0
94,75.93,52.42,0
95,76.31,52.84,0
94,76.66,53.25,0
94,77.01,53.66,0
94,77.35,54.07,0
94,77.68,54.46,0
94,78.01,54.86,0
94,78.33,55.25,0
94,78.64,55.64,0
95,78.97,56.03,0
94,79.27,56.41,0
94,79.56,56.79,0
94,79.85,57.16,0
94,80.14,57.53,0
94,80.41,57.89,0
94,80.69,58.25,0
94,80.95,58.61,0
93,81.19,58.96,0
94,81.45,59.31,0
94,81.70,59.65,0
94,81.95,60.00,0
94,82.19,60.34,0
94,82.42,60.67,0
96,82.69,61.03,0
94,82.92,61.36,0
94,83.14,61.68,0
94,83.36,62.01,0
94,83.57,62.33,0
94,83.78,62.64,0
94,83.99,62.96,0
94,84.19,63.27,0
94,84.38,63.57,0
94,84.57,63.88,0
91,84.70,64.15,0
96,84.93,64.47,0
93,85.09,64.75,0
94,85.27,65.05,0
94,85.44,65.34,0
94,85.61,65.62,0
94,85.78,65.91,0
93,85.93,66.18,0
93,86.07,66.45,0
95,86.25,66.73,0
94,86.40,67.00,0
94,86.55,67.27,0
94,86.70,67.54,0
94,86.85,67.81,0
95,87.01,68.08,0
94,87.15,68.34,0
91,87.23,68.56,0
93,87.34,68.81,0
94,87.48,69.06,0
93,87.59,69.30,0
93,87.70,69.54,0
93,87.80,69.77,0
94,87.93,70.01,0
94,88.05,70.25,0
95,88.19,70.50,0
93,88.28,70.72,0
94,88.40,70.96,0
94,88.51,71.19,0
92,88.58,71.40,0
93,88.67,71.61,0
94,88.77,71.84,0
93,88.86,72.05,0
93,88.94,72.26,0
93,89.02,72.46,0
94,89.12,72.68,0
92,89.18,72.87,0
94,89.28,73.08,0
93,89.35,73.28,0
92,89.40,73.47,0
92,89.45,73.66,0
92,89.51,73.84,0
92,89.56,74.02,0
92,89.60,74.20,0
92,89.65,74.38,0
93,89.72,74.57,0
92,89.77,74.74,0
94,89.85,74.93,0
92,89.89,75.10,0
93,89.95,75.28,0
93,90.02,75.46,0
92,90.06,75.62,0
92,90.09,75.79,0
92,90.13,75.95,0
92,90.17,76.11,0
92,90.21,76.27,0
92,90.24,76.43,0
92,90.28,76.58,0
92,90.31,76.74,0
92,90.35,76.89,0
92,90.38,77.04,0
93,90.43,77.20,0
92,90.46,77.35,0
92,90.49,77.49,0
93,90.54,77.65,0
92,90.57,77.79,0
91,90.58,77.93,0
92,90.61,78.07,0
92,90.64,78.21,0
93,90.68,78.35,0
92,90.71,78.49,0
92,90.74,78.62,0
92,90.76,78.76,0
92,90.79,78.89,0
91,90.79,79.01,0
90,90.78,79.12,0
92,90.80,79.25,0
93,90.84,79.39,0
93,90.89,79.52,0
93,90.93,79.66,0
92,90.95,79.78,0
91,90.95,79.89,0
94,91.01,80.04,0
91,91.01,80.15,0
92,91.03,80.26,0
93,91.07,80.39,0
92,91.09,80.51,0
92,91.11,80.62,0
92,91.13,80.74,0
93,91.16,80.86,0
94,91.22,80.99,0
93,91.26,81.11,0
93,91.29,81.23,0
93,91.32,81.35,0
95,91.40,81.48,0
93,91.43,81.60,0
93,91.46,81.71,0
93,91.49,81.83,0
94,91.54,81.95,0
94,91.59,82.07,0
94,91.64,82.19,0
94,91.69,82.31,0
93,91.71,82.41,0
94,91.76,82.53,0
94,91.80,82.64,0
96,91.89,82.78,0
94,91.93,82.89,0
94,91.97,83.00,0
96,92.05,83.13,0
97,92.15,83.27,0
96,92.23,83.40,0
96,92.30,83.52,0
95,92.36,83.64,0
96,92.43,83.76,0
97,92.52,83.89,0
97,92.61,84.02,0
101,92.78,84.19,0
97,92.86,84.32,0
97,92.95,84.45,0
97,93.03,84.57,0
100,93.17,84.73,0
98,93.26,84.86,0
97,93.34,84.98,0
97,93.41,85.10,0
98,93.50,85.23,0
96,93.55,85.34,0
97,93.62,85.46,0
96,93.67,85.56,0
97,93.74,85.68,0
96,93.78,85.78,0
98,93.87,85.90,0
97,93.93,86.01,0
97,93.99,86.12,0
100,94.11,86.26,0
98,94.19,86.38,0
98,94.26,86.49,0
97,94.32,86.60,0
97,94.37,86.70,0
98,94.45,86.82,0
96,94.48,86.91,0
96,94.51,87.00,0
97,94.56,87.10,0
97,94.61,87.20,0
98,94.67,87.31,0
97,94.72,87.40,0
97,94.77,87.50,0
98,94.83,87.60,0
98,94.89,87.71,0
98,94.96,87.81,0
98,95.02,87.91,0
98,95.08,88.01,0
98,95.13,88.11,0
100,95.23,88.23,0
102,95.37,88.37,0
101,95.48,88.50,0
103,95.63,88.64,0
104,95.80,88.80,0
103,95.94,88.94,0
105,96.12,89.10,0
104,96.28,89.25,0
103,96.41,89.38,0
104,96.57,89.53,0
104,96.72,89.68,0
105,96.88,89.83,0
105,97.04,89.98,0
106,97.22,90.14,0
103,97.34,90.27,0
104,97.47,90.41,0
103,97.58,90.53,0
103,97.69,90.66,0
103,97.80,90.78,0
104,97.92,90.91,0
104,98.04,91.04,0
105,98.18,91.18,0
104,98.30,91.31,0
103,98.39,91.43,0
109,98.60,91.60,0
104,98.71,91.73,0
104,98.82,91.85,0
105,98.94,91.98,0
104,99.04,92.10,0
103,99.12,92.21,0
103,99.20,92.32,0
103,99.28,92.43,0
104,99.37,92.54,0
104,99.46,92.66,0
103,99.53,92.76,0
103,99.60,92.86,0
103,99.67,92.96,0
102,99.72,93.05,0
102,99.76,93.14,0
103,99.83,93.24,0
103,99.89,93.34,0
103,99.95,93.44,0
102,99.99,93.52,0
104,100.07,93.63,0
103,100.13,93.72,0
103,100.19,93.81,0
102,100.23,93.89,0
103,100.28,93.99,0
102,100.32,94.07,0
101,100.33,94.14,0
102,100.36,94.21,0
103,100.42,94.30,0
104,100.49,94.40,0
102,100.52,94.47,0
102,100.55,94.55,0
102,100.58,94.62,0
102,100.60,94.70,0
102,100.63,94.77,0
102,100.66,94.84,0
102,100.69,94.92,0
102,100.71,94.99,0
104,100.78,95.08,0
104,100.84,95.17,0
104,100.91,95.25,0
104,100.97,95.34,0
104,101.03,95.43,0
103,101.07,95.50,0
104,101.13,95.59,0
104,101.18,95.67,0
103,101.22,95.75,0
104,101.28,95.83,0
105,101.35,95.92,0
104,101.40,96.00,0
104,101.46,96.08,0
104,101.51,96.16,0
105,101.58,96.25,0
106,101.67,96.35,0
105,101.73,96.43,0
104,101.78,96.51,0
105,101.84,96.59,0
104,101.88,96.67,0
105,101.95,96.75,0
106,102.03,96.84,0
106,102.11,96.93,0
105,102.17,97.02,0
105,102.22,97.10,0
106,102.30,97.18,0
106,102.37,97.27,0
105,102.42,97.35,0
107,102.52,97.45,0
106,102.59,97.53,0
105,102.63,97.61,0
106,102.70,97.69,0
105,102.75,97.76,0
106,102.81,97.85,0
106,102.88,97.93,0
108,102.98,98.03,0
106,103.04,98.11,0
106,103.10,98.19,0
107,103.18,98.27,0
108,103.27,98.37,0
107,103.35,98.46,0
108,103.44,98.55,0
107,103.51,98.64,0
109,103.62,98.74,0
108,103.71,98.83,0
108,103.79,98.93,0
108,103.88,99.02,0
108,103.96,99.11,0
108,104.04,99.20,0
108,104.12,99.28,0
107,104.18,99.36,0
108,104.26,99.45,0
107,104.31,99.52,0
108,104.38,99.61,0
106,104.42,99.67,0
106,104.45,99.73,0
106,104.48,99.80,0
106,104.51,99.86,0
108,104.58,99.94,0
108,104.65,100.02,0
109,104.73,100.11,0
109,104.82,100.20,0
107,104.86,100.27,0
110,104.97,100.37,0
110,105.07,100.46,0
109,105.15,100.55,0
109,105.22,100.63,0
109,105.30,100.72,0
109,105.37,100.80,0
109,105.44,100.88,0
109,105.52,100.96,0
109,105.59,101.04,0
109,105.65,101.12,0
109,105.72,101.20,0
110,105.81,101.29,0
109,105.87,101.37,0
109,105.93,101.44,0
109,105.99,101.52,0
111,106.09,101.61,0
111,106.19,101.71,0
111,106.29,101.80,0
111,106.38,101.89,0
110,106.46,101.97,0
111,106.55,102.06,0
110,106.62,102.14,0
111,106.70,102.23,0
111,106.79,102.32,0
111,106.87,102.40,0
111,106.96,102.49,0
111,107.04,102.58,0
112,107.14,102.67,0
111,107.21,102.75,0
112,107.31,102.85,0
111,107.38,102.93,0
111,107.45,103.01,0
112,107.55,103.10,0
112,107.63,103.19,0
111,107.70,103.27,0
111,107.77,103.34,0
113,107.87,103.44,0
113,107.98,103.53,0
114,108.10,103.64,0
115,108.23,103.75,0
113,108.33,103.85,0
113,108.42,103.94,0
113,108.51,104.03,0
113,108.60,104.12,0
113,108.69,104.21,0
113,108.78,104.29,0
113,108.86,104.38,0
113,108.95,104.47,0
114,109.05,104.56,0
115,109.17,104.67,0
113,109.24,104.75,0
116,109.38,104.86,0
116,109.51,104.97,0
115,109.62,105.07,0
116,109.75,105.18,0
115,109.85,105.28,0
115,109.96,105.38,0
115,110.06,105.48,0
115,110.15,105.57,0
115,110.25,105.66,0
116,110.37,105.77,0
115,110.46,105.86,0
115,110.55,105.95,0
114,110.62,106.03,0
114,110.69,106.11,0
115,110.77,106.20,0
116,110.88,106.30,0
115,110.96,106.39,0
116,111.06,106.48,0
116,111.16,106.58,0
117,111.28,106.68,0
115,111.35,106.76,0
117,111.46,106.87,0
115,111.53,106.95,0
116,111.62,107.04,0
116,111.71,107.13,0
116,111.80,107.22,0
118,111.92,107.33,0
117,112.02,107.42,0
117,112.12,107.52,0
119,112.26,107.63,0
120,112.41,107.76,0
120,112.57,107.88,0
121,112.74,108.01,0
123,112.94,108.16,0
121,113.10,108.29,0
121,113.26,108.42,0
121,113.41,108.54,0
123,113.61,108.69,0
121,113.75,108.81,0
121,113.90,108.93,0
121,114.04,109.05,0
121,114.18,109.17,0
121,114.32,109.29,0
121,114.45,109.41,0
121,114.58,109.52,0
123,114.75,109.66,0
121,114.87,109.77,0
121,115.00,109.88,0
122,115.14,110.00,0
124,115.31,110.14,0
123,115.47,110.27,0
125,115.66,110.42,0
123,115.81,110.55,0
124,115.97,110.68,0
125,116.15,110.82,0
123,116.29,110.95,0
124,116.44,111.08,0
123,116.57,111.19,0
125,116.74,111.33,0
125,116.91,111.47,0
124,117.05,111.59,0
125,117.21,111.73,0
127,117.40,111.88,0
127,117.60,112.03,0
127,117.78,112.18,0
127,117.97,112.33,0
128,118.17,112.49,0
131,118.42,112.67,0
131,118.68,112.86,0
129,118.88,113.02,0
130,119.11,113.19,0
131,119.34,113.37,0
132,119.60,113.55,0
133,119.86,113.75,0
132,120.11,113.93,0
133,120.36,114.12,0
132,120.60,114.30,0
132,120.83,114.48,0
133,121.07,114.66,0
133,121.31,114.84,0
133,121.54,115.03,0
133,121.77,115.21,0
134,122.02,115.39,0
134,122.25,115.58,0
134,122.49,115.76,0
135,122.74,115.96,0
131,122.91,116.11,0
135,123.15,116.29,0
133,123.34,116.46,0
134,123.56,116.64,0
133,123.75,116.80,0
135,123.97,116.98,0
135,124.19,117.16,0
134,124.39,117.33,0
135,124.60,117.51,0
135,124.81,117.68,0
133,124.97,117.84,0
133,125.13,117.99,0
136,125.35,118.17,0
135,125.54,118.34,0
135,125.73,118.50,0
135,125.92,118.67,0
136,126.12,118.84,0
135,126.30,119.00,0
136,126.49,119.17,0
135,126.66,119.33,0
135,126.83,119.49,0
137,127.03,119.66,0
136,127.21,119.83,0
137,127.41,120.00,0
137,127.60,120.17,0
140,127.85,120.37,0
137,128.03,120.53,0
141,128.29,120.74,0
143,128.58,120.96,0
143,128.87,121.18,0
144,129.17,121.41,0
145,129.49,121.64,0
145,129.80,121.88,0
149,130.18,122.15,0
145,130.48,122.38,0
147,130.81,122.62,0
145,131.10,122.85,0
146,131.39,123.08,0
146,131.69,123.31,0
146,131.97,123.54,0
145,132.23,123.75,0
147,132.53,123.98,0
145,132.78,124.19,0
147,133.06,124.42,0
149,133.38,124.67,0
148,133.67,124.90,0
149,133.98,125.14,0
147,134.24,125.36,0
149,134.53,125.60,0
151,134.86,125.85,0
153,135.23,126.12,0
151,135.54,126.37,0
151,135.85,126.62,0
150,136.13,126.85,0
151,136.43,127.09,0
149,136.68,127.31,0
150,136.95,127.54,0
149,137.19,127.75,0
151,137.47,127.99,0
151,137.74,128.22,0
150,137.98,128.43,0
151,138.24,128.66,0
152,138.52,128.89,0
152,138.79,129.12,0
151,139.03,129.34,0
152,139.29,129.57,0
151,139.53,129.78,0
152,139.78,130.01,0
151,140.00,130.21,0
153,140.26,130.44,0
152,140.49,130.66,0
154,140.76,130.89,0
152,140.99,131.10,0
153,141.23,131.32,0
152,141.44,131.53,0
153,141.68,131.74,0
152,141.88,131.95,0
154,142.12,132.17,0
155,142.38,132.39,0
157,142.67,132.64,0
156,142.94,132.87,0
157,143.22,133.12,0
157,143.50,133.35,0
159,143.81,133.61,0
160,144.13,133.87,0
163,144.51,134.17,0
161,144.84,134.43,0
160,145.14,134.69,0
163,145.50,134.97,0
164,145.87,135.26,0
163,146.21,135.54,0
161,146.51,135.80,0
163,146.84,136.07,0
164,147.18,136.35,0
164,147.52,136.62,0
164,147.85,136.90,0
163,148.15,137.16,0
164,148.47,137.43,0
165,148.80,137.70,0
167,149.16,138.00,0
165,149.48,138.27,0
166,149.81,138.54,0
165,150.11,138.81,0
167,150.45,139.09,0
167,150.78,139.37,0
168,151.13,139.65,0
167,151.44,139.93,0
167,151.75,140.20,0
165,152.02,140.45,0
167,152.32,140.71,0
167,152.61,140.98,0
167,152.90,141.24,0
168,153.20,141.50,0
167,153.48,141.76,0
167,153.75,142.01,0
165,153.97,142.24,0
167,154.23,142.49,0
167,154.49,142.73,0
168,154.76,142.99,0
167,155.00,143.23,0
172,155.34,143.51,0
173,155.70,143.81,0
172,156.02,144.09,0
172,156.34,144.37,0
177,156.76,144.70,0
180,157.22,145.05,0
181,157.70,145.41,0
181,158.16,145.76,0
179,158.58,146.10,0
180,159.01,146.44,0
180,159.43,146.77,0
181,159.86,147.11,0
181,160.28,147.45,0
181,160.70,147.79,0
181,161.10,148.12,0
181,161.50,148.45,0
181,161.89,148.77,0
185,162.35,149.14,0
181,162.73,149.46,0
183,163.13,149.79,0
185,163.57,150.14,0
183,163.96,150.47,0
185,164.38,150.82,0
186,164.81,151.17,0
184,165.19,151.50,0
186,165.61,151.84,0
187,166.04,152.19,0
187,166.46,152.54,0
186,166.85,152.88,0
189,167.29,153.24,0
185,167.65,153.55,0
187,168.03,153.89,0
189,168.45,154.24,0
186,168.80,154.56,0
188,169.19,154.89,0
188,169.56,155.22,0
188,169.93,155.55,0
187,170.27,155.87,0
188,170.63,156.19,0
186,170.94,156.49,0
187,171.26,156.79,0
186,171.55,157.08,0
187,171.86,157.38,0
187,172.16,157.68,0
187,172.46,157.97,0
184,172.69,158.23,0
187,172.98,158.52,0
188,173.28,158.81,0
187,173.55,159.10,0
189,173.86,159.39,0
187,174.12,159.67,0
188,174.40,159.95,0
188,174.67,160.23,0
188,174.94,160.51,0
187,175.18,160.78,0
191,175.50,161.08,0
192,175.83,161.39,0
191,176.13,161.68,0
189,176.39,161.96,0
189,176.64,162.23,0
192,176.95,162.53,0
191,177.23,162.81,0
190,177.48,163.08,0
190,177.73,163.35,0
192,178.02,163.64,0
191,178.28,163.91,0
191,178.53,164.18,0
192,178.80,164.46,0
193,179.09,164.75,0
193,179.37,165.03,0
193,179.64,165.31,0
192,179.89,165.58,0
195,180.19,165.87,0
193,180.44,166.14,0
194,180.71,166.42,0
193,180.96,166.69,0
195,181.24,166.97,0
193,181.48,167.23,0
193,181.71,167.49,0
192,181.91,167.73,0
193,182.13,167.98,0
193,182.35,168.23,0
192,182.54,168.47,0
193,182.75,168.72,0
191,182.92,168.94,0
194,183.14,169.19,0
193,183.34,169.43,0
193,183.53,169.66,0
193,183.72,169.90,0
193,183.91,170.13,0
192,184.07,170.35,0
192,184.23,170.56,0
192,184.38,170.78,0
191,184.51,170.98,0
192,184.66,171.19,0
191,184.79,171.39,0
192,184.93,171.60,0
191,185.06,171.79,0
192,185.20,171.99,0
192,185.33,172.19,0
192,185.46,172.39,0
192,185.60,172.59,0
191,185.70,172.77,0
191,185.81,172.95,0
192,185.93,173.14,0
189,185.99,173.30,0
191,186.09,173.48,0
189,186.15,173.63,0
189,186.21,173.79,0
189,186.27,173.94,0
190,186.34,174.10,0
189,186.39,174.25,0
189,186.45,174.40,0
188,186.48,174.53,0
187,186.49,174.66,0
188,186.52,174.79,0
187,186.53,174.91,0
187,186.54,175.03,0
187,186.55,175.15,0
187,186.55,175.27,0
186,186.54,175.38,0
185,186.51,175.48,0
185,186.48,175.57,0
186,186.47,175.67,0
185,186.44,175.77,0
185,186.41,175.86,0
184,186.37,175.94,0
185,186.34,176.03,0
184,186.29,176.11,0
183,186.23,176.18,0
183,186.16,176.25,0
183,186.10,176.32,0
183,186.04,176.38,0
183,185.98,176.45,0
183,185.92,176.51,0
183,185.86,176.58,0
181,185.76,176.62,0
183,185.71,176.69,0
181,185.61,176.73,0
179,185.48,176.75,0
181,185.39,176.80,0
181,185.30,176.84,0
181,185.22,176.88,0
180,185.11,176.91,0
180,185.01,176.94,0
179,184.89,176.96,0
180,184.79,176.99,0
180,184.70,177.02,0
179,184.58,177.04,0
180,184.49,177.07,0
179,184.38,177.09,0
179,184.27,177.11,0
178,184.15,177.12,0
177,184.00,177.12,0
178,183.88,177.13,0
177,183.75,177.13,0
177,183.61,177.12,0
177,183.48,177.12,0
177,183.35,177.12,0
179,183.26,177.14,0
177,183.14,177.14,0
177,183.01,177.14,0
176,182.87,177.13,0
175,182.72,177.11,0
175,182.56,177.08,0
175,182.41,177.06,0
175,182.26,177.04,0
175,182.12,177.02,0
175,181.98,177.00,0
175,181.84,176.98,0
175,181.70,176.96,0
174,181.55,176.93,0
175,181.41,176.91,0
174,181.27,176.88,0
173,181.10,176.85,0
173,180.94,176.81,0
173,180.78,176.77,0
173,180.62,176.73,0
173,180.47,176.69,0
173,180.32,176.66,0
173,180.18,176.62,0
174,180.05,176.59,0
172,179.89,176.55,0
172,179.73,176.50,0
171,179.56,176.45,0
171,179.39,176.39,0
171,179.22,176.34,0
172,179.08,176.30,0
171,178.91,176.24,0
171,178.76,176.19,0
170,178.58,176.13,0
171,178.43,176.08,0
170,178.26,176.02,0
171,178.12,175.97,0
168,177.91,175.89,0
169,177.73,175.82,0
169,177.56,175.75,0
169,177.39,175.68,0
169,177.22,175.62,0
169,177.06,175.55,0
169,176.90,175.48,0
169,176.74,175.42,0
169,176.58,175.35,0
168,176.41,175.28,0
168,176.24,175.21,0
168,176.08,175.14,0
168,175.92,175.07,0
167,175.74,174.98,0
168,175.58,174.91,0
167,175.41,174.84,0
168,175.26,174.77,0
167,175.10,174.69,0
167,174.94,174.61,0
165,174.74,174.52,0
167,174.58,174.44,0
167,174.43,174.37,1
166,174.26,174.28,1
166,174.10,174.20,2
165,173.92,174.11,2
167,173.78,174.04,2
166,173.62,173.96,2
165,173.45,173.87,2
165,173.28,173.78,2
165,173.11,173.69,2
164,172.93,173.59,2
165,172.77,173.51,2
163,172.58,173.40,2
164,172.41,173.31,2
164,172.24,173.22,2
164,172.07,173.12,2
163,171.89,173.02,2
164,171.73,172.93,2
163,171.56,172.83,2
163,171.39,172.73,2
163,171.22,172.64,2
163,171.06,172.54,2
164,170.92,172.46,2
163,170.76,172.36,2
163,170.60,172.27,2
161,170.41,172.15,2
161,170.22,172.04,2
161,170.04,171.93,2
163,169.90,171.84,2
161,169.72,171.73,2
161,169.54,171.63,2
161,169.37,171.52,2
161,169.21,171.42,2
161,169.04,171.31,2
161,168.88,171.21,2
159,168.68,171.09,2
161,168.53,170.99,2
161,168.38,170.89,2
160,168.21,170.78,2
161,168.07,170.68,2
160,167.91,170.57,2
160,167.75,170.47,2
160,167.59,170.36,2
160,167.44,170.26,2
159,167.27,170.15,2
159,167.11,170.03,2
159,166.94,169.92,2
159,166.79,169.81,2
159,166.63,169.71,2
159,166.48,169.60,2
158,166.31,169.48,2
158,166.14,169.37,2
157,165.96,169.25,2
157,165.78,169.12,2
157,165.60,169.00,2
158,165.45,168.89,2
157,165.28,168.77,2
157,165.12,168.65,2
160,165.01,168.57,2
155,164.81,168.43,2
156,164.64,168.31,2
157,164.49,168.20,2
156,164.32,168.07,2
156,164.15,167.95,2
156,163.99,167.83,2
155,163.81,167.70,2
157,163.67,167.60,2
156,163.52,167.48,2
155,163.35,167.36,2
156,163.20,167.24,2
156,163.06,167.13,2
155,162.89,167.01,2
155,162.74,166.89,2
155,162.58,166.77,2
151,162.35,166.61,2
155,162.20,166.50,2
154,162.04,166.37,2
155,161.90,166.26,2
154,161.74,166.14,2
154,161.59,166.01,2
153,161.41,165.88,2
153,161.25,165.76,2
153,161.08,165.63,2
153,160.92,165.50,2
153,160.76,165.38,2
152,160.59,165.24,2
152,160.41,165.11,2
152,160.25,164.98,2
151,160.06,164.84,2
151,159.88,164.70,2
151,159.70,164.56,2
151,159.53,164.43,2
151,159.36,164.29,2
151,159.19,164.16,2
151,159.03,164.03,2
151,158.87,163.90,2
149,158.67,163.75,2
150,158.50,163.61,2
151,158.35,163.49,2
150,158.18,163.35,2
149,157.99,163.21,2
149,157.82,163.07,2
150,157.66,162.94,2
149,157.49,162.80,2
149,157.32,162.66,2
149,157.15,162.52,2
149,156.99,162.39,2
149,156.83,162.25,2
149,156.67,162.12,2
149,156.52,161.99,2
149,156.37,161.86,2
150,156.24,161.74,2
148,156.07,161.60,2
151,155.97,161.50,2
147,155.79,161.35,2
149,155.66,161.23,2
147,155.48,161.09,2
148,155.33,160.96,2
148,155.19,160.83,2
147,155.02,160.69,2
146,154.84,160.54,2
146,154.67,160.40,2
147,154.51,160.26,2
146,154.34,160.12,2
145,154.16,159.97,2
146,153.99,159.83,2
147,153.85,159.70,2
145,153.68,159.55,2
145,153.50,159.41,2
145,153.33,159.26,2
145,153.17,159.12,2
145,153.00,158.98,2
145,152.84,158.84,2
144,152.67,158.69,2
144,152.49,158.54,2
145,152.34,158.41,2
144,152.18,158.26,2
144,152.01,158.12,2
145,151.87,157.99,2
144,151.71,157.85,2
143,151.54,157.70,2
143,151.37,157.56,2
143,151.20,157.41,2
143,151.04,157.27,2
143,150.88,157.12,2
143,150.72,156.98,2
143,150.57,156.84,2
143,150.41,156.70,2
142,150.25,156.56,2
141,150.06,156.40,2
141,149.88,156.25,2
142,149.72,156.10,2
141,149.55,155.95,2
143,149.42,155.82,2
140,149.23,155.67,2
141,149.06,155.52,2
141,148.90,155.37,2
141,148.74,155.23,2
141,148.59,155.09,2
141,148.44,154.95,2
140,148.27,154.80,2
140,148.10,154.65,2
140,147.94,154.50,2
139,147.76,154.35,2
140,147.61,154.20,2
139,147.44,154.05,2
139,147.27,153.90,2
140,147.12,153.76,2
140,146.98,153.62,2
139,146.82,153.48,2
140,146.68,153.34,2
139,146.53,153.20,2
139,146.38,153.06,2
139,146.23,152.92,2
138,146.07,152.77,2
139,145.93,152.63,2
138,145.77,152.48,2
138,145.61,152.34,2
139,145.48,152.21,2
139,145.35,152.07,2
137,145.18,151.92,2
138,145.04,151.78,2
137,144.88,151.64,2
138,144.74,151.50,2
137,144.59,151.36,2
137,144.43,151.21,2
137,144.29,151.07,2
139,144.18,150.95,2
137,144.04,150.81,2
137,143.90,150.67,2
138,143.78,150.54,2
137,143.64,150.41,2
137,143.51,150.28,2
136,143.36,150.13,2
136,143.21,149.99,2
136,143.07,149.85,2
135,142.91,149.70,2
136,142.77,149.57,2
136,142.63,149.43,2
135,142.48,149.29,2
136,142.35,149.15,2
135,142.20,149.01,2
136,142.08,148.88,2
135,141.94,148.74,2
135,141.80,148.60,2
133,141.62,148.45,2
135,141.49,148.31,2
136,141.38,148.19,2
135,141.25,148.06,2
134,141.11,147.92,2
134,140.97,147.78,2
133,140.81,147.63,2
133,140.65,147.49,2
134,140.52,147.35,2
133,140.37,147.21,2
133,140.22,147.06,2
133,140.08,146.92,2
133,139.93,146.79,2
133,139.80,146.65,2
133,139.66,146.51,2
133,139.53,146.38,2
133,139.40,146.24,2
133,139.27,146.11,2
131,139.10,145.96,2
133,138.98,145.83,2
134,138.88,145.71,2
133,138.76,145.58,2
133,138.65,145.46,2
131,138.49,145.31,2
133,138.39,145.19,2
132,138.26,145.06,2
133,138.15,144.94,2
133,138.05,144.82,2
132,137.93,144.69,2
133,137.83,144.57,2
131,137.69,144.44,2
133,137.60,144.32,2
132,137.49,144.20,2
132,137.38,144.08,2
132,137.27,143.96,2
132,137.16,143.84,2
131,137.04,143.71,2
132,136.94,143.59,2
131,136.82,143.47,2
131,136.71,143.34,2
131,136.59,143.22,2
130,136.46,143.09,2
131,136.35,142.96,2
130,136.22,142.84,2
129,136.08,142.70,2
129,135.94,142.56,2
129,135.80,142.42,2
129,135.66,142.29,2
129,135.53,142.16,2
129,135.40,142.03,2
129,135.27,141.90,2
129,135.15,141.77,2
129,135.02,141.64,2
128,134.88,141.50,2
129,134.76,141.38,2
129,134.65,141.25,2
128,134.52,141.12,2
132,134.47,141.03,2
128,134.34,140.90,2
128,134.21,140.77,2
128,134.09,140.64,2
129,133.98,140.53,2
128,133.86,140.40,2
129,133.77,140.29,2
128,133.65,140.16,2
129,133.56,140.05,2
128,133.45,139.93,2
127,133.32,139.80,2
128,133.21,139.68,2
127,133.09,139.56,2
127,132.97,139.43,2
128,132.87,139.32,2
127,132.75,139.19,2
127,132.63,139.07,2
127,132.52,138.95,2
127,132.41,138.83,2
127,132.30,138.71,2
127,132.20,138.60,2
127,132.09,138.48,2
127,131.99,138.37,2
127,131.89,138.25,2
127,131.79,138.14,2
127,131.70,138.03,2
127,131.60,137.92,2
127,131.51,137.81,2
127,131.42,137.70,2
127,131.33,137.59,2
126,131.23,137.48,2
125,131.10,137.35,2
125,130.98,137.23,2
126,130.88,137.12,2
125,130.76,137.00,2
125,130.65,136.88,2
125,130.53,136.76,2
125,130.42,136.64,2
125,130.32,136.52,2
125,130.21,136.41,2
125,130.10,136.29,2
125,130.00,136.18,2
125,129.90,136.07,2
125,129.80,135.96,2
125,129.71,135.85,2
125,129.61,135.74,2
127,129.56,135.65,2
125,129.47,135.55,2
124,129.36,135.43,2
123,129.23,135.31,2
125,129.15,135.20,2
124,129.05,135.09,2
124,128.95,134.98,2
125,128.87,134.88,2
123,128.75,134.76,2
125,128.67,134.66,2
124,128.58,134.56,2
124,128.49,134.45,2
123,128.38,134.34,2
124,128.29,134.23,2
123,128.19,134.12,2
125,128.12,134.03,2
123,128.02,133.92,2
124,127.94,133.82,2
123,127.84,133.71,2
124,127.76,133.62,2
123,127.67,133.51,2
124,127.60,133.42,2
123,127.50,133.31,2
123,127.41,133.21,2
121,127.28,133.09,2
122,127.18,132.97,2
123,127.10,132.88,2
122,126.99,132.77,2
123,126.91,132.67,2
122,126.82,132.56,2
121,126.70,132.45,2
121,126.59,132.33,2
121,126.47,132.22,2
121,126.36,132.11,2
121,126.26,132.00,2
121,126.15,131.89,2
122,126.07,131.79,2
121,125.97,131.68,2
121,125.87,131.57,2
121,125.77,131.47,2
121,125.68,131.36,2
121,125.58,131.26,2
121,125.49,131.16,2
121,125.40,131.05,2
120,125.29,130.94,2
120,125.19,130.83,2
120,125.08,130.73,2
121,125.00,130.63,2
121,124.92,130.53,2
121,124.84,130.44,2
120,124.75,130.33,2
120,124.65,130.23,2
120,124.56,130.13,2
121,124.49,130.04,2
119,124.38,129.93,2
119,124.27,129.82,2
120,124.18,129.72,2
120,124.10,129.62,2
120,124.02,129.52,2
120,123.94,129.43,2
119,123.84,129.32,2
119,123.74,129.22,2
119,123.65,129.12,2
119,123.55,129.02,2
117,123.42,128.90,2
119,123.34,128.80,2
121,123.29,128.72,2
119,123.20,128.62,2
119,123.12,128.53,2
119,123.04,128.43,2
120,122.98,128.35,2
119,122.90,128.25,2
119,122.82,128.16,2
117,122.70,128.05,2
119,122.63,127.96,2
119,122.56,127.87,2
119,122.48,127.78,2
117,122.37,127.67,2
118,122.29,127.58,2
120,122.24,127.50,2
117,122.14,127.40,2
119,122.07,127.31,2
118,121.99,127.22,2
118,121.91,127.13,2
117,121.81,127.03,2
117,121.72,126.93,2
117,121.62,126.83,2
117,121.53,126.73,2
117,121.44,126.63,2
117,121.35,126.53,2
117,121.26,126.44,2
117,121.18,126.34,2
116,121.08,126.24,2
117,120.99,126.15,2
116,120.89,126.05,2
116,120.80,125.95,2
117,120.72,125.86,2
116,120.63,125.76,2
116,120.53,125.66,2
115,120.42,125.55,2
116,120.33,125.46,2
115,120.23,125.35,2
116,120.14,125.26,2
119,120.12,125.20,2
116,120.04,125.11,2
115,119.94,125.01,2
115,119.84,124.91,2
115,119.74,124.81,2
116,119.67,124.72,2
115,119.57,124.62,2
115,119.48,124.52,2
115,119.39,124.43,2
115,119.30,124.34,2
115,119.22,124.24,2
115,119.13,124.15,2
115,119.05,124.06,2
115,118.97,123.97,2
115,118.89,123.88,2
114,118.79,123.78,2
116,118.74,123.70,2
113,118.62,123.59,2
115,118.55,123.51,2
113,118.44,123.40,2
114,118.35,123.31,2
114,118.26,123.22,2
115,118.20,123.13,2
113,118.09,123.03,2
113,117.99,122.93,2
113,117.89,122.83,2
113,117.79,122.73,2
114,117.72,122.65,2
114,117.64,122.56,2
113,117.55,122.47,2
113,117.46,122.37,2
113,117.37,122.28,2
113,117.28,122.18,2
113,117.20,122.09,2
112,117.09,121.99,2
112,116.99,121.89,2
112,116.89,121.79,2
112,116.79,121.69,2
112,116.70,121.60,2
112,116.60,121.50,2
112,116.51,121.41,2
111,116.40,121.30,2
111,116.29,121.20,2
111,116.19,121.10,2
112,116.10,121.01,2
112,116.02,120.92,2
111,115.92,120.82,2
112,115.84,120.73,2
113,115.79,120.65,2
111,115.69,120.56,2
111,115.60,120.46,2
112,115.53,120.38,2
111,115.43,120.28,2
111,115.35,120.19,2
113,115.30,120.12,2
111,115.21,120.03,2
112,115.15,119.95,2
112,115.09,119.87,2
112,115.02,119.79,2
111,114.94,119.70,2
113,114.90,119.63,2
113,114.87,119.57,2
113,114.83,119.50,2
113,114.79,119.44,2
112,114.74,119.36,2
113,114.70,119.30,2
112,114.65,119.22,2
112,114.60,119.15,2
113,114.56,119.09,2
113,114.53,119.03,2
112,114.48,118.96,2
111,114.41,118.88,2
112,114.36,118.81,2
113,114.34,118.75,2
112,114.29,118.69,2
111,114.22,118.61,2
111,114.16,118.53,2
112,114.12,118.47,2
112,114.07,118.40,2
112,114.03,118.34,2
112,113.99,118.28,2
111,113.93,118.20,2
111,113.87,118.13,2
112,113.84,118.07,2
111,113.78,118.00,2
112,113.74,117.94,2
113,113.73,117.89,2
112,113.69,117.83,2
113,113.68,117.78,2
112,113.65,117.72,2
112,113.61,117.67,2
113,113.60,117.62,2
112,113.57,117.56,2
112,113.54,117.51,2
112,113.51,117.45,2
112,113.48,117.40,2
111,113.43,117.33,2
111,113.38,117.27,2
111,113.33,117.21,2
111,113.28,117.15,2
112,113.26,117.10,2
111,113.21,117.03,2
111,113.17,116.97,2
111,113.13,116.91,2
111,113.08,116.85,2
112,113.06,116.81,2
112,113.04,116.76,2
111,113.00,116.70,2
111,112.96,116.64,2
113,112.96,116.61,2
111,112.92,116.55,2
113,112.92,116.52,2
112,112.90,116.47,2
113,112.91,116.44,2
113,112.91,116.40,2
113,112.91,116.37,2
113,112.91,116.33,2
113,112.91,116.30,2
112,112.90,116.26,2
112,112.88,116.21,2
113,112.88,116.18,2
113,112.88,116.15,2
113,112.88,116.12,2
113,112.89,116.09,2
114,112.91,116.07,2
112,112.89,116.03,2
114,112.91,116.01,2
112,112.90,115.97,2
112,112.88,115.93,2
112,112.86,115.89,2
112,112.84,115.85,2
111,112.81,115.80,2
112,112.79,115.76,2
111,112.75,115.71,2
113,112.76,115.69,2
113,112.76,115.66,2
112,112.75,115.62,2
114,112.77,115.61,2
113,112.78,115.58,2
113,112.78,115.56,2
113,112.79,115.53,2
114,112.81,115.51,2
113,112.81,115.49,2
114,112.84,115.47,2
113,112.84,115.45,2
113,112.84,115.43,2
113,112.85,115.40,2
113,112.85,115.38,2
111,112.81,115.33,2
116,112.88,115.34,2
113,112.88,115.32,2
113,112.88,115.29,2
113,112.88,115.27,2
113,112.89,115.25,2
113,112.89,115.23,2
113,112.89,115.20,2
114,112.91,115.19,2
113,112.92,115.17,2
115,112.96,115.17,2
115,113.00,115.17,2
115,113.04,115.16,2
115,113.08,115.16,2
115,113.12,115.16,2
115,113.15,115.16,2
114,113.17,115.15,2
112,113.15,115.12,2
114,113.16,115.11,2
115,113.20,115.10,2
117,113.28,115.12,2
117,113.35,115.14,2
117,113.42,115.16,2
116,113.48,115.17,2
116,113.53,115.18,2
117,113.60,115.20,2
117,113.66,115.21,2
117,113.73,115.23,2
117,113.80,115.25,2
117,113.86,115.27,2
117,113.92,115.28,2
117,113.98,115.30,2
117,114.04,115.32,2
118,114.12,115.34,2
117,114.18,115.36,2
118,114.26,115.39,2
117,114.31,115.40,2
117,114.37,115.42,2
117,114.42,115.44,2
117,114.47,115.45,2
120,114.58,115.50,2
117,114.63,115.51,2
117,114.68,115.53,2
117,114.72,115.54,2
119,114.81,115.58,2
117,114.85,115.59,2
117,114.90,115.60,2
117,114.94,115.62,2
117,114.98,115.63,2
117,115.02,115.65,2
118,115.08,115.67,2
117,115.12,115.68,2
117,115.16,115.70,2
117,115.19,115.71,2
117,115.23,115.72,2
118,115.28,115.74,2
118,115.34,115.77,2
119,115.41,115.80,2
118,115.46,115.82,2
117,115.49,115.83,2
118,115.54,115.85,2
120,115.63,115.90,2
121,115.74,115.95,2
119,115.81,115.98,2
120,115.89,116.02,2
121,115.99,116.07,2
120,116.07,116.11,2
121,116.17,116.16,2
121,116.27,116.20,2
121,116.36,116.25,2
121,116.45,116.30,2
121,116.55,116.35,2
123,116.67,116.41,2
123,116.80,116.48,2
121,116.88,116.52,2
123,117.01,116.59,2
125,117.17,116.67,2
125,117.32,116.76,2
125,117.48,116.84,2
124,117.61,116.91,2
125,117.76,116.99,2
123,117.86,117.05,2
125,118.00,117.13,2
124,118.12,117.20,2
123,118.22,117.26,2
124,118.34,117.33,2
124,118.45,117.39,2
124,118.56,117.46,2
123,118.65,117.51,2
123,118.74,117.57,2
125,118.86,117.64,2
125,118.98,117.72,2
123,119.06,117.77,2
125,119.18,117.84,2
124,119.28,117.90,2
124,119.37,117.96,2
125,119.49,118.03,2
125,119.60,118.10,2
127,119.75,118.19,2
129,119.93,118.30,2
127,120.07,118.39,2
128,120.23,118.48,2
128,120.39,118.58,2
129,120.56,118.68,2
128,120.71,118.78,2
128,120.85,118.87,2
128,121.00,118.96,2
129,121.16,119.06,2
129,121.31,119.16,2
129,121.47,119.26,2
129,121.62,119.36,2
131,121.80,119.47,2
130,121.97,119.58,2
131,122.15,119.69,2
132,122.35,119.81,2
131,122.52,119.93,2
132,122.71,120.05,2
133,122.91,120.18,2
133,123.12,120.31,2
133,123.31,120.43,2
132,123.49,120.55,2
132,123.66,120.66,2
133,123.84,120.79,2
133,124.03,120.91,2
133,124.21,121.03,2
134,124.40,121.16,2
135,124.62,121.30,2
134,124.80,121.42,2
134,124.99,121.55,2
133,125.15,121.66,2
133,125.30,121.78,2
135,125.50,121.91,2
133,125.65,122.02,2
134,125.82,122.14,2
134,125.98,122.26,2
135,126.16,122.39,2
135,126.34,122.51,2
135,126.51,122.64,2
135,126.68,122.76,2
136,126.87,122.89,2
136,127.05,123.02,2
137,127.25,123.16,2
137,127.44,123.30,2
136,127.61,123.43,2
138,127.82,123.58,2
141,128.08,123.75,2
141,128.34,123.92,2
139,128.56,124.07,2
140,128.79,124.23,2
141,129.03,124.40,2
143,129.31,124.59,2
141,129.54,124.75,2
142,129.79,124.92,2
144,130.08,125.11,2
147,130.41,125.33,2
144,130.69,125.52,2
149,131.05,125.75,2
150,131.43,126.00,2
147,131.74,126.21,2
152,132.15,126.46,2
152,132.55,126.72,2
151,132.91,126.96,2
150,133.26,127.19,2
151,133.61,127.43,2
152,133.98,127.68,2
153,134.36,127.93,2
152,134.71,128.17,2
152,135.06,128.41,2
152,135.40,128.64,2
153,135.75,128.89,2
152,136.07,129.12,2
153,136.41,129.36,2
152,136.72,129.58,2
153,137.05,129.82,2
153,137.37,130.05,2
153,137.68,130.28,2
155,138.03,130.53,2
157,138.41,130.79,2
157,138.78,131.05,2
157,139.14,131.31,2
157,139.50,131.57,2
155,139.81,131.80,2
157,140.15,132.06,2
156,140.47,132.30,2
156,140.78,132.53,2
155,141.07,132.76,2
157,141.38,133.00,2
159,141.74,133.26,2
157,142.04,133.50,2
160,142.40,133.76,2
158,142.71,134.01,2
162,143.10,134.28,2
162,143.48,134.56,2
165,143.91,134.87,2
163,144.29,135.15,2
164,144.68,135.44,2
165,145.09,135.73,2
165,145.49,136.02,2
165,145.88,136.31,2
164,146.24,136.59,2
164,146.60,136.87,2
169,147.04,137.19,2
169,147.48,137.50,2
167,147.87,137.80,2
168,148.28,138.10,2
169,148.69,138.41,2
169,149.10,138.72,2
171,149.53,139.04,2
171,149.96,139.36,2
172,150.40,139.69,2
172,150.84,140.01,2
174,151.30,140.35,2
173,151.73,140.68,2
173,152.16,141.00,2
177,152.66,141.36,2
177,153.14,141.71,2
181,153.70,142.11,2
180,154.23,142.49,2
179,154.72,142.85,2
181,155.25,143.23,2
183,155.80,143.63,2
181,156.31,144.00,2
181,156.80,144.37,2
181,157.28,144.74,2
181,157.76,145.10,2
181,158.22,145.46,2
183,158.72,145.84,2
185,159.24,146.23,2
184,159.74,146.61,2
185,160.24,146.99,2
185,160.74,147.37,2
186,161.25,147.76,2
185,161.72,148.13,2
185,162.19,148.50,2
185,162.64,148.86,2
185,163.09,149.22,2
187,163.57,149.60,2
189,164.08,150.00,2
188,164.55,150.38,2
187,165.00,150.74,2
191,165.52,151.15,2
194,166.09,151.57,2
194,166.65,152.00,2
193,167.18,152.41,2
197,167.77,152.85,2
195,168.32,153.28,2
199,168.93,153.73,2
201,169.57,154.21,2
200,170.18,154.66,2
202,170.82,155.14,2
205,171.50,155.64,2
203,172.13,156.11,2
203,172.75,156.58,2
201,173.31,157.02,2
201,173.87,157.46,2
201,174.41,157.90,2
201,174.94,158.33,2
202,175.48,158.77,2
201,175.99,159.19,2
201,176.49,159.61,2
199,176.94,160.00,2
201,177.43,160.41,2
201,177.90,160.82,2
203,178.40,161.24,2
202,178.87,161.65,2
201,179.31,162.04,2
201,179.75,162.43,2
202,180.19,162.82,2
203,180.65,163.23,2
205,181.14,163.64,2
205,181.61,164.06,2
206,182.10,164.48,2
207,182.60,164.90,2
206,183.07,165.31,2
207,183.55,165.73,2
208,184.03,166.15,2
207,184.49,166.56,2
206,184.92,166.96,2
207,185.37,167.36,2
208,185.82,167.76,2
207,186.24,168.15,2
207,186.66,168.54,2
209,187.10,168.95,2
209,187.54,169.35,2
209,187.97,169.74,2
209,188.39,170.14,2
209,188.80,170.53,2
210,189.23,170.92,2
211,189.66,171.32,2
210,190.07,171.71,2
210,190.47,172.09,2
209,190.84,172.46,2
210,191.22,172.84,2
212,191.64,173.23,2
212,192.05,173.61,2
211,192.42,173.99,2
210,192.78,174.35,2
209,193.10,174.70,2
209,193.42,175.04,2
213,193.81,175.42,2
210,194.13,175.76,2
209,194.43,176.10,2
209,194.72,176.43,2
210,195.03,176.76,2
210,195.33,177.09,2
211,195.64,177.43,2
213,195.99,177.79,2
212,196.31,178.13,2
212,196.62,178.47,2
216,197.01,178.84,2
217,197.41,179.23,2
215,197.76,179.58,2
218,198.17,179.97,2
219,198.58,180.36,2
219,198.99,180.74,2
216,199.33,181.10,2
218,199.70,181.47,2
219,200.09,181.84,2
219,200.47,182.21,2
218,200.82,182.57,2
219,201.18,182.94,2
219,201.54,183.30,2
218,201.87,183.64,2
217,202.17,183.98,2
219,202.51,184.33,2
217,202.80,184.65,2
217,203.08,184.98,2
218,203.38,185.31,2
218,203.67,185.63,2
220,204.00,185.98,2
218,204.28,186.30,2
218,204.55,186.61,2
218,204.82,186.93,2
217,205.07,187.23,2
217,205.30,187.53,2
217,205.54,187.82,2
216,205.75,188.10,2
216,205.95,188.38,2
216,206.15,188.66,2
217,206.37,188.94,2
215,206.54,189.20,2
216,206.73,189.47,2
215,206.90,189.73,2
215,207.06,189.98,2
215,207.22,190.23,2
215,207.37,190.48,2
217,207.57,190.74,2
217,207.76,191.00,2
217,207.94,191.26,2
217,208.12,191.52,2
217,208.30,191.78,2
219,208.51,192.05,2
219,208.72,192.32,2
217,208.89,192.57,2
220,209.11,192.84,2
217,209.27,193.08,2
217,209.42,193.32,2
216,209.55,193.55,2
216,209.68,193.77,2
216,209.81,193.99,2
216,209.93,194.21,2
215,210.04,194.42,2
216,210.15,194.64,2
215,210.25,194.84,2
214,210.33,195.03,2
213,210.38,195.21,2
214,210.45,195.40,2
214,210.52,195.59,2
213,210.57,195.76,2
213,210.62,195.93,2
212,210.65,196.09,2
213,210.70,196.26,2
211,210.70,196.41,2
213,210.75,196.58,2
212,210.77,196.73,2
212,210.80,196.88,2
211,210.80,197.02,2
211,210.81,197.16,2
211,210.81,197.30,2
211,210.81,197.44,2
209,210.78,197.55,2
209,210.74,197.67,2
209,210.71,197.78,2
210,210.69,197.90,2
209,210.66,198.02,2
209,210.63,198.13,2
209,210.59,198.23,2
209,210.56,198.34,2
209,210.53,198.45,2
208,210.48,198.54,2
209,210.45,198.65,2
207,210.38,198.73,2
207,210.31,198.81,2
207,210.25,198.90,2
208,210.20,198.99,2
206,210.12,199.06,2
207,210.06,199.14,2
206,209.97,199.21,2
205,209.87,199.26,2
205,209.78,199.32,2
205,209.68,199.38,2
205,209.59,199.43,2
205,209.50,199.49,2
205,209.41,199.55,2
203,209.28,199.58,2
205,209.19,199.63,2
203,209.07,199.67,2
203,208.95,199.70,2
204,208.85,199.74,2
201,208.69,199.76,2
203,208.58,199.79,2
204,208.49,199.83,2
203,208.38,199.86,2
202,208.25,199.88,2
201,208.10,199.90,2
202,207.98,199.92,2
202,207.86,199.94,2
202,207.75,199.96,2
201,207.61,199.97,2
201,207.48,199.98,2
201,207.35,199.99,2
201,207.22,200.00,2
201,207.10,200.01,2
200,206.96,200.01,2
199,206.80,200.00,2
199,206.64,199.99,2
200,206.51,199.99,2
199,206.36,199.98,2
200,206.23,199.98,2
199,206.09,199.97,2
198,205.92,199.95,2
197,205.75,199.92,2
198,205.59,199.90,2
197,205.42,199.87,2
198,205.27,199.85,2
197,205.10,199.82,2
196,204.92,199.79,2
197,204.76,199.76,2
197,204.61,199.73,2
197,204.46,199.70,2
196,204.29,199.67,2
196,204.12,199.63,2
195,203.94,199.58,2
197,203.80,199.56,2
195,203.62,199.51,2
195,203.45,199.47,2
194,203.26,199.41,2
194,203.08,199.36,2
198,202.98,199.34,2
196,202.84,199.31,2
193,202.64,199.25,2
193,202.45,199.19,2
193,202.26,199.12,2
193,202.07,199.06,2
193,201.89,199.00,2
193,201.71,198.94,2
193,201.54,198.88,2
193,201.37,198.82,2
193,201.20,198.77,2
192,201.02,198.70,2
193,200.86,198.64,2
191,200.66,198.56,2
191,200.47,198.49,2
191,200.28,198.41,2
192,200.11,198.35,2
191,199.93,198.28,2
192,199.77,198.21,2
191,199.60,198.14,2
190,199.40,198.06,2
189,199.20,197.97,2
189,198.99,197.88,2
190,198.81,197.80,2
188,198.60,197.70,2
189,198.40,197.62,2
189,198.22,197.53,2
187,197.99,197.42,2
188,197.79,197.33,2
189,197.62,197.25,2
188,197.42,197.15,2
188,197.23,197.06,2
187,197.03,196.96,3
188,196.85,196.87,3
187,196.65,196.77,4
187,196.46,196.68,4
187,196.27,196.58,4
186,196.07,196.47,4
185,195.84,196.36,4
186,195.65,196.26,4
185,195.43,196.14,4
185,195.23,196.03,4
185,195.02,195.92,4
185,194.82,195.81,4
184,194.60,195.69,4
184,194.39,195.58,4
184,194.18,195.46,4
184,193.98,195.35,4
183,193.76,195.22,4
183,193.55,195.10,4
184,193.35,194.99,4
183,193.15,194.87,4
182,192.92,194.74,4
181,192.69,194.60,4
182,192.47,194.48,4
183,192.28,194.36,4
182,192.08,194.24,4
182,191.88,194.12,4
181,191.66,193.99,4
181,191.45,193.86,4
181,191.24,193.73,4
181,191.03,193.60,4
180,190.81,193.46,4
180,190.59,193.33,4
180,190.38,193.20,4
181,190.20,193.07,4
179,189.97,192.93,4
180,189.77,192.80,4
179,189.56,192.67,4
179,189.35,192.53,4
177,189.10,192.37,4
178,188.88,192.23,4
178,188.66,192.09,4
178,188.45,191.95,4
177,188.22,191.80,4
178,188.01,191.66,4
178,187.81,191.52,4
177,187.60,191.38,4
177,187.38,191.23,4
177,187.18,191.09,4
177,186.97,190.95,4
177,186.77,190.81,4
177,186.58,190.67,4
176,186.37,190.53,4
177,186.18,190.39,4
175,185.96,190.24,4
175,185.74,190.08,4
175,185.52,189.93,4
176,185.33,189.79,4
175,185.12,189.65,4
175,184.92,189.50,4
175,184.72,189.36,4
174,184.51,189.20,4
175,184.32,189.06,4
174,184.11,188.91,4
174,183.91,188.76,4
173,183.69,188.60,4
173,183.48,188.45,4
173,183.27,188.29,4
173,183.06,188.14,4
171,182.82,187.97,4
172,182.61,187.81,4
172,182.39,187.65,4
172,182.19,187.49,4
172,181.98,187.34,4
173,181.80,187.20,4
171,181.59,187.03,4
172,181.39,186.88,4
171,181.19,186.72,4
171,180.98,186.57,4
169,180.74,186.39,4
171,180.55,186.24,4
171,180.36,186.08,4
170,180.15,185.92,4
169,179.93,185.75,4
169,179.71,185.59,4
169,179.49,185.42,4
169,179.28,185.26,4
169,179.08,185.09,4
169,178.88,184.93,4
169,178.68,184.77,4
169,178.49,184.62,4
170,178.32,184.47,4
168,178.11,184.31,4
169,177.93,184.15,4
168,177.73,183.99,4
168,177.53,183.83,4
167,177.32,183.66,4
167,177.12,183.50,4
168,176.94,183.34,4
168,176.76,183.19,4
167,176.56,183.03,4
167,176.37,182.87,4
167,176.18,182.71,4
167,176.00,182.55,4
167,175.82,182.39,4
166,175.62,182.23,4
167,175.45,182.08,4
166,175.26,181.92,4
167,175.10,181.77,4
167,174.93,181.62,4
165,174.74,181.45,4
165,174.54,181.29,4
166,174.37,181.14,4
165,174.18,180.98,4
165,174.00,180.82,4
165,173.82,180.66,4
165,173.64,180.50,4
165,173.47,180.35,4
168,173.36,180.22,4
164,173.17,180.06,4
164,172.99,179.90,4
163,172.79,179.73,4
163,172.59,179.56,4
165,172.44,179.42,4
163,172.25,179.25,4
164,172.09,179.10,4
163,171.91,178.94,4
163,171.73,178.78,4
163,171.55,178.62,4
162,171.36,178.46,4
162,171.18,178.29,4
162,170.99,178.13,4
162,170.81,177.97,4
161,170.62,177.80,4
160,170.40,177.62,4
161,170.22,177.45,4
161,170.03,177.29,4
161,169.85,177.13,4
161,169.67,176.97,4
162,169.52,176.82,4
160,169.33,176.65,4
160,169.14,176.48,4
160,168.96,176.32,4
160,168.78,176.15,4
160,168.61,175.99,4
159,168.41,175.82,4
161,168.27,175.67,4
159,168.08,175.51,4
160,167.92,175.35,4
159,167.74,175.19,4
159,167.57,175.03,4
160,167.41,174.88,4
159,167.25,174.72,4
158,167.06,174.55,4
158,166.88,174.38,4
160,166.74,174.24,4
159,166.59,174.09,4
158,166.42,173.93,4
157,166.23,173.76,4
158,166.06,173.60,4
157,165.88,173.43,4
159,165.74,173.29,4
159,165.61,173.15,4
158,165.46,173.00,4
157,165.29,172.84,4
157,165.12,172.68,4
157,164.96,172.52,4
157,164.80,172.37,4
157,164.64,172.21,4
158,164.51,172.07,4
157,164.36,171.92,4
156,164.19,171.76,4
157,164.05,171.61,4
157,163.91,171.47,4
157,163.77,171.32,4
157,163.64,171.18,4
157,163.50,171.04,4
157,163.37,170.90,4
157,163.25,170.76,4
157,163.12,170.62,4
157,163.00,170.48,4
157,162.88,170.35,4
157,162.76,170.22,4
157,162.65,170.08,4
157,162.53,169.95,4
156,162.40,169.81,4
156,162.27,169.67,4
157,162.17,169.55,4
155,162.02,169.40,4
156,161.90,169.27,4
155,161.77,169.13,4
155,161.63,168.98,4
155,161.50,168.84,4
155,161.37,168.71,4
154,161.22,168.56,4
156,161.12,168.43,4
154,160.97,168.29,4
154,160.83,168.15,4
153,160.68,167.99,4
153,160.52,167.84,4
154,160.39,167.71,4
153,160.25,167.56,4
153,160.10,167.41,4
153,159.96,167.27,4
153,159.82,167.13,4
153,159.68,166.99,4
153,159.55,166.85,4
153,159.42,166.71,4
152,159.27,166.56,4
152,159.13,166.41,4
153,159.00,166.28,4
153,158.88,166.15,4
152,158.74,166.01,4
152,158.61,165.87,4
152,158.48,165.73,4
152,158.35,165.59,4
152,158.22,165.45,4
151,158.08,165.31,4
151,157.94,165.17,4
152,157.82,165.04,4
151,157.68,164.89,4
152,157.57,164.77,4
151,157.44,164.63,4
151,157.31,164.49,4
152,157.20,164.37,4
151,157.08,164.23,4
151,156.95,164.10,4
152,156.86,163.98,4
151,156.74,163.85,4
152,156.64,163.73,4
151,156.53,163.60,4
151,156.42,163.48,4
149,156.27,163.33,4
150,156.15,163.20,4
150,156.02,163.07,4
150,155.90,162.94,4
149,155.77,162.80,4
149,155.63,162.66,4
149,155.50,162.52,4
149,155.37,162.39,4
149,155.24,162.25,4
149,155.12,162.12,4
149,154.99,161.99,4
149,154.87,161.86,4
149,154.76,161.73,4
148,154.62,161.59,4
149,154.51,161.47,4
149,154.40,161.34,4
148,154.27,161.21,4
149,154.16,161.09,4
149,154.06,160.97,4
148,153.94,160.84,4
148,153.82,160.71,4
148,153.70,160.58,4
147,153.57,160.45,4
148,153.46,160.32,4
147,153.33,160.19,4
148,153.22,160.07,4
147,153.10,159.94,4
148,153.00,159.82,4
147,152.88,159.69,4
148,152.78,159.57,4
146,152.64,159.44,4
145,152.49,159.29,4
145,152.34,159.15,4
145,152.19,159.01,4
145,152.05,158.87,4
149,151.99,158.77,4
145,151.85,158.63,4
145,151.71,158.49,4
145,151.58,158.36,4
145,151.45,158.23,4
143,151.28,158.07,4
144,151.13,157.93,4
144,150.99,157.79,4
143,150.83,157.65,4
145,150.71,157.52,4
144,150.58,157.38,4
143,150.43,157.24,4
143,150.28,157.10,4
143,150.13,156.96,4
143,149.99,156.82,4
144,149.87,156.69,4
140,149.67,156.52,4
143,149.54,156.39,4
143,149.41,156.25,4
143,149.28,156.12,4
143,149.16,155.99,4
142,149.01,155.85,4
142,148.87,155.71,4
143,148.75,155.58,4
141,148.60,155.44,4
141,148.45,155.29,4
141,148.30,155.15,4
141,148.15,155.01,4
142,148.03,154.88,4
141,147.89,154.74,4
141,147.75,154.60,4
141,147.62,154.47,4
143,147.52,154.35,4
141,147.39,154.22,4
141,147.27,154.09,4
141,147.14,153.96,4
141,147.02,153.83,4
141,146.90,153.70,4
140,146.76,153.56,4
141,146.64,153.44,4
141,146.53,153.31,4
141,146.42,153.19,4
141,146.31,153.07,4
141,146.21,152.95,4
140,146.08,152.82,4
140,145.96,152.69,4
140,145.84,152.56,4
141,145.74,152.45,4
139,145.61,152.31,4
139,145.48,152.18,4
139,145.35,152.05,4
139,145.22,151.92,4
139,145.10,151.79,4
139,144.97,151.66,4
138,144.83,151.52,4
139,144.72,151.40,4
138,144.58,151.26,4
138,144.45,151.13,4
139,144.34,151.01,4
138,144.22,150.88,4
139,144.11,150.76,4
138,143.99,150.63,4
137,143.85,150.50,4
137,143.71,150.36,4
139,143.62,150.25,4
137,143.49,150.12,4
137,143.36,149.98,4
137,143.23,149.85,4
137,143.10,149.73,4
137,142.98,149.60,4
137,142.86,149.47,4
137,142.75,149.35,4
136,142.61,149.21,4
136,142.48,149.08,4
136,142.35,148.95,4
137,142.24,148.83,4
136,142.12,148.70,4
136,141.99,148.58,4
137,141.90,148.46,4
137,141.80,148.35,4
136,141.68,148.22,4
137,141.59,148.11,4
135,141.46,147.98,4
136,141.35,147.86,4
137,141.26,147.75,4
136,141.15,147.63,4
136,141.05,147.52,4
135,140.93,147.39,4
136,140.83,147.28,4
136,140.74,147.17,4
136,140.64,147.05,4
135,140.53,146.93,4
136,140.44,146.82,4
136,140.35,146.72,4
136,140.26,146.61,4
135,140.16,146.49,4
136,140.07,146.39,4
135,139.97,146.27,4
136,139.89,146.17,4
135,139.79,146.06,4
134,139.68,145.94,4
133,139.54,145.81,4
135,139.45,145.70,4
135,139.37,145.59,4
135,139.28,145.49,4
133,139.15,145.36,4
134,139.05,145.25,4
133,138.93,145.13,4
134,138.83,145.02,4
134,138.73,144.91,4
131,138.58,144.77,4
133,138.47,144.65,4
133,138.36,144.53,4
133,138.25,144.42,4
133,138.15,144.30,4
133,138.04,144.19,4
132,137.92,144.07,4
134,137.84,143.97,4
133,137.75,143.86,4
133,137.65,143.75,4
132,137.54,143.63,4
131,137.41,143.51,4
131,137.28,143.38,4
131,137.15,143.26,4
132,137.05,143.14,4
131,136.93,143.02,4
131,136.81,142.90,4
130,136.67,142.77,4
131,136.56,142.66,4
130,136.43,142.53,4
131,136.32,142.41,4
131,136.22,142.30,4
129,136.07,142.17,4
129,135.93,142.03,4
131,135.83,141.92,4
131,135.73,141.82,4
132,135.66,141.72,4
130,135.55,141.60,4
131,135.46,141.49,4
131,135.37,141.39,4
130,135.26,141.27,4
131,135.17,141.17,4
130,135.07,141.06,4
130,134.97,140.95,4
130,134.87,140.84,4
129,134.75,140.72,4
129,134.64,140.60,4
129,134.52,140.49,4
129,134.41,140.37,4
132,134.37,140.29,4
129,134.26,140.18,4
129,134.15,140.07,4
129,134.05,139.95,4
129,133.95,139.85,4
129,133.85,139.74,4
129,133.75,139.63,4
127,133.62,139.50,4
129,133.53,139.40,4
129,133.44,139.29,4
128,133.33,139.18,4
128,133.22,139.07,4
128,133.12,138.96,4
128,133.01,138.85,4
127,132.89,138.73,4
127,132.78,138.61,4
123,132.58,138.46,4
127,132.47,138.34,4
127,132.36,138.23,4
127,132.25,138.12,4
127,132.15,138.01,4
127,132.04,137.90,4
127,131.94,137.79,4
127,131.84,137.68,4
125,131.71,137.55,4
127,131.61,137.45,4
126,131.50,137.33,4
127,131.41,137.23,4
127,131.32,137.13,4
127,131.24,137.03,4
126,131.13,136.91,4
126,131.03,136.81,4
126,130.93,136.70,4
127,130.85,136.60,4
127,130.77,136.50,4
126,130.68,136.40,4
127,130.60,136.31,4
125,130.49,136.19,4
125,130.38,136.08,4
126,130.29,135.98,4
125,130.19,135.87,4
125,130.08,135.76,4
126,130.00,135.66,4
125,129.90,135.56,4
125,129.80,135.45,4
125,129.71,135.35,4
125,129.61,135.24,4
125,129.52,135.14,4
125,129.43,135.04,4
124,129.32,134.93,4
123,129.20,134.81,4
124,129.09,134.70,4
123,128.97,134.58,4
125,128.89,134.49,4
123,128.77,134.37,4
126,128.72,134.29,4
123,128.60,134.18,4
124,128.51,134.08,4
123,128.40,133.97,4
123,128.29,133.86,4
121,128.15,133.73,4
121,128.00,133.60,4
123,127.90,133.49,4
123,127.81,133.39,4
123,127.71,133.28,4
122,127.60,133.17,4
121,127.46,133.05,4
121,127.33,132.93,4
121,127.21,132.81,4
121,127.08,132.69,4
121,126.96,132.58,4
121,126.84,132.46,4
121,126.73,132.35,4
121,126.61,132.23,4
122,126.52,132.13,4
122,126.43,132.03,4
123,126.36,131.94,4
121,126.25,131.83,4
122,126.17,131.73,4
123,126.10,131.64,4
123,126.04,131.56,4
123,125.98,131.47,4
123,125.92,131.39,4
123,125.86,131.30,4
123,125.81,131.22,4
123,125.75,131.14,4
123,125.70,131.06,4
123,125.64,130.98,4
123,125.59,130.90,4
122,125.52,130.81,4
122,125.45,130.72,4
123,125.40,130.64,4
122,125.33,130.55,4
122,125.26,130.47,4
122,125.20,130.38,4
121,125.11,130.29,4
122,125.05,130.21,4
122,124.99,130.13,4
121,124.91,130.03,4
121,124.83,129.94,4
121,124.76,129.85,4
121,124.68,129.77,4
121,124.61,129.68,4
121,124.53,129.59,4
120,124.44,129.50,4
121,124.38,129.41,4
121,124.31,129.33,4
120,124.22,129.23,4
121,124.16,129.15,4
120,124.07,129.06,4
119,123.97,128.96,4
121,123.91,128.88,4
121,123.85,128.80,4
121,123.80,128.72,4
121,123.74,128.65,4
121,123.69,128.57,4
121,123.63,128.49,4
121,123.58,128.42,4
121,123.53,128.34,4
121,123.48,128.27,4
121,123.43,128.20,4
120,123.36,128.12,4
122,123.33,128.05,4
121,123.29,127.98,4
121,123.24,127.91,4
122,123.22,127.86,4
121,123.17,127.79,4
121,123.13,127.72,4
121,123.09,127.65,4
121,123.04,127.59,4
121,123.00,127.52,4
122,122.98,127.46,4
121,122.94,127.40,4
121,122.90,127.34,4
121,122.87,127.27,4
121,122.83,127.21,4
121,122.79,127.15,4
121,122.76,127.09,4
121,122.72,127.03,4
121,122.69,126.96,4
121,122.65,126.91,4
121,122.62,126.85,4
121,122.59,126.79,4
121,122.56,126.73,4
121,122.52,126.67,4
121,122.49,126.62,4
122,122.48,126.57,4
121,122.45,126.51,4
121,122.43,126.46,4
124,122.46,126.43,4
121,122.43,126.38,4
120,122.38,126.32,4
120,122.33,126.25,4
120,122.29,126.19,4
121,122.26,126.14,4
121,122.23,126.09,4
120,122.19,126.03,4
121,122.17,125.98,4
120,122.12,125.92,4
120,122.08,125.86,4
121,122.06,125.81,4
122,122.06,125.77,4
120,122.02,125.71,4
121,122.00,125.67,4
120,121.96,125.61,4
118,121.88,125.53,4
121,121.86,125.49,4
121,121.84,125.44,4
121,121.83,125.40,4
121,121.81,125.35,4
121,121.79,125.31,4
121,121.78,125.27,4
122,121.78,125.23,4
122,121.79,125.20,4
121,121.77,125.16,4
121,121.75,125.12,4
121,121.74,125.08,4
123,121.76,125.06,4
124,121.81,125.05,4
121,121.79,125.01,4
124,121.84,125.00,4
123,121.86,124.98,4
123,121.88,124.96,4
123,121.91,124.94,4
123,121.93,124.92,4
124,121.97,124.91,4
124,122.01,124.90,4
125,122.07,124.90,4
124,122.11,124.89,4
125,122.17,124.89,4
123,122.18,124.87,4
125,122.24,124.87,4
124,122.27,124.87,4
124,122.31,124.86,4
123,122.32,124.84,4
123,122.34,124.82,4
123,122.35,124.80,4
125,122.40,124.80,4
124,122.43,124.80,4
124,122.47,124.79,4
125,122.52,124.79,4
124,122.55,124.78,4
125,122.60,124.78,4
124,122.62,124.78,4
127,122.71,124.80,4
123,122.72,124.78,4
125,122.76,124.78,4
123,122.77,124.76,4
124,122.79,124.76,4
124,122.82,124.75,4
124,122.84,124.74,4
125,122.88,124.74,4
125,122.93,124.75,4
125,122.97,124.75,4
125,123.01,124.75,4
124,123.03,124.74,4
125,123.07,124.75,4
124,123.09,124.74,4
125,123.12,124.74,4
125,123.16,124.75,4
125,123.20,124.75,4
125,123.23,124.75,4
123,123.23,124.73,4
125,123.26,124.74,4
124,123.28,124.73,4
125,123.31,124.73,4
125,123.35,124.73,4
124,123.36,124.73,4
123,123.35,124.71,4
125,123.39,124.71,4
124,123.40,124.70,4
124,123.41,124.70,4
124,123.42,124.69,4
124,123.43,124.68,4
124,123.45,124.68,4
125,123.48,124.68,4
124,123.49,124.67,4
123,123.48,124.66,4
123,123.47,124.64,4
125,123.50,124.64,4
124,123.51,124.64,4
123,123.50,124.62,4
124,123.51,124.61,4
123,123.50,124.60,4
124,123.51,124.59,4
123,123.50,124.58,4
124,123.51,124.57,4
125,123.54,124.58,4
124,123.55,124.57,4
125,123.58,124.57,4
125,123.60,124.58,4
124,123.61,124.57,4
124,123.62,124.57,4
125,123.65,124.57,4
125,123.67,124.58,4
125,123.70,124.58,4
123,123.69,124.56,4
125,123.71,124.57,4
124,123.72,124.56,4
125,123.74,124.57,4
123,123.73,124.55,4
125,123.76,124.56,4
125,123.78,124.56,4
124,123.78,124.55,4
125,123.81,124.56,4
127,123.87,124.58,4
126,123.92,124.60,4
126,123.96,124.61,4
125,123.98,124.62,4
125,124.00,124.62,4
127,124.06,124.64,4
127,124.12,124.67,4
129,124.21,124.71,4
128,124.29,124.74,4
131,124.42,124.81,4
131,124.56,124.87,4
131,124.69,124.93,4
129,124.77,124.97,4
129,124.86,125.01,4
129,124.94,125.05,4
129,125.02,125.09,4
129,125.10,125.13,4
131,125.22,125.19,4
129,125.29,125.22,4
129,125.37,125.26,4
129,125.44,125.30,4
129,125.51,125.34,4
129,125.58,125.37,4
129,125.65,125.41,4
130,125.74,125.46,4
129,125.80,125.49,4
130,125.89,125.54,4
129,125.95,125.57,4
131,126.05,125.63,4
129,126.11,125.66,4
129,126.17,125.69,4
129,126.22,125.73,4
130,126.30,125.77,4
130,126.37,125.81,4
129,126.42,125.84,4
129,126.48,125.87,4
129,126.53,125.91,4
129,126.58,125.94,4
129,126.62,125.97,4
130,126.69,126.01,4
130,126.76,126.05,4
131,126.84,126.10,4
129,126.89,126.13,4
129,126.93,126.15,4
130,126.99,126.19,4
131,127.07,126.24,4
129,127.11,126.27,4
130,127.17,126.31,4
131,127.24,126.35,4
129,127.28,126.38,4
130,127.33,126.42,4
131,127.41,126.46,4
130,127.46,126.50,4
131,127.53,126.54,4
130,127.58,126.58,4
130,127.63,126.61,4
131,127.69,126.65,4
130,127.74,126.69,4
129,127.77,126.71,4
130,127.81,126.74,4
131,127.87,126.79,4
130,127.92,126.82,4
131,127.98,126.86,4
129,128.00,126.88,4
132,128.08,126.93,4
131,128.14,126.97,4
132,128.21,127.02,4
131,128.27,127.06,4
133,128.36,127.12,4
131,128.42,127.16,4
132,128.49,127.21,4
133,128.58,127.27,4
134,128.69,127.34,4
134,128.79,127.40,4
135,128.92,127.48,4
135,129.04,127.55,4
137,129.20,127.65,4
136,129.34,127.73,4
135,129.45,127.80,4
136,129.58,127.89,4
135,129.69,127.96,4
135,129.79,128.03,4
134,129.88,128.09,4
135,129.98,128.16,4
135,130.08,128.22,4
137,130.22,128.31,4
135,130.31,128.38,4
135,130.41,128.45,4
138,130.56,128.54,4
137,130.69,128.63,4
136,130.80,128.70,4
135,130.88,128.76,4
137,131.00,128.84,4
136,131.10,128.92,4
136,131.20,128.99,4
136,131.30,129.06,4
136,131.39,129.13,4
135,131.46,129.19,4
137,131.57,129.26,4
135,131.64,129.32,4
136,131.73,129.39,4
135,131.79,129.44,4
136,131.88,129.51,4
135,131.94,129.56,4
134,131.98,129.61,4
135,132.04,129.66,4
135,132.10,129.72,4
135,132.16,129.77,4
135,132.22,129.82,4
136,132.29,129.88,4
136,132.37,129.94,4
136,132.44,130.00,4
135,132.49,130.05,4
137,132.58,130.12,4
138,132.69,130.20,4
140,132.83,130.30,4
139,132.96,130.39,4
139,133.08,130.47,4
139,133.20,130.56,4
138,133.29,130.63,4
139,133.41,130.72,4
141,133.56,130.82,4
139,133.67,130.90,4
140,133.79,130.99,4
137,133.86,131.05,4
137,133.92,131.11,4
139,134.02,131.19,4
141,134.16,131.29,4
143,134.34,131.41,4
144,134.53,131.53,4
143,134.70,131.65,4
145,134.91,131.78,4
148,135.17,131.94,4
147,135.41,132.09,4
150,135.70,132.27,4
149,135.96,132.44,4
149,136.23,132.61,4
152,136.54,132.80,4
157,136.95,133.04,4
153,137.27,133.24,4
155,137.63,133.46,4
153,137.93,133.65,4
155,138.27,133.87,4
156,138.63,134.09,4
155,138.96,134.30,4
155,139.28,134.50,4
155,139.59,134.71,4
156,139.92,134.92,4
155,140.22,135.12,4
157,140.56,135.34,4
156,140.87,135.55,4
157,141.19,135.76,4
156,141.48,135.97,4
159,141.84,136.20,4
160,142.20,136.43,4
160,142.55,136.67,4
162,142.94,136.92,4
165,143.38,137.20,4
165,143.82,137.48,4
163,144.20,137.74,4
165,144.62,138.01,4
165,145.02,138.28,4
163,145.38,138.53,4
163,145.74,138.77,4
164,146.10,139.02,4
163,146.44,139.26,4
165,146.81,139.52,4
163,147.13,139.76,4
164,147.47,140.00,4
163,147.78,140.23,4
163,148.09,140.46,4
163,148.38,140.68,4
165,148.72,140.92,4
164,149.02,141.16,4
164,149.32,141.38,4
166,149.66,141.63,4
167,150.00,141.88,4
166,150.32,142.12,4
166,150.64,142.36,4
165,150.92,142.59,4
165,151.20,142.81,4
169,151.56,143.08,4
170,151.93,143.35,4
169,152.27,143.60,4
167,152.57,143.84,4
169,152.89,144.09,4
169,153.22,144.34,4
171,153.57,144.60,4
171,153.92,144.87,4
170,154.24,145.12,4
169,154.54,145.36,4
170,154.85,145.60,4
171,155.17,145.86,4
171,155.49,146.11,4
169,155.76,146.34,4
169,156.02,146.56,4
170,156.30,146.80,4
170,156.58,147.03,4
169,156.82,147.25,4
170,157.09,147.48,4
171,157.37,147.71,4
170,157.62,147.94,4
171,157.89,148.17,4
170,158.13,148.39,4
172,158.41,148.62,4
173,158.70,148.87,4
173,158.98,149.11,4
172,159.24,149.34,4
174,159.54,149.58,4
173,159.81,149.82,4
174,160.09,150.06,4
172,160.33,150.28,4
173,160.58,150.50,4
173,160.83,150.73,4
173,161.08,150.95,4
173,161.31,151.17,4
172,161.53,151.38,4
172,161.74,151.59,4
172,161.94,151.79,4
171,162.12,151.98,4
173,162.34,152.19,4
173,162.55,152.40,4
172,162.74,152.60,4
172,162.93,152.79,4
173,163.13,152.99,4
173,163.33,153.19,4
172,163.50,153.38,4
174,163.71,153.59,4
172,163.88,153.77,4
172,164.04,153.95,4
173,164.22,154.15,4
175,164.43,154.35,4
174,164.62,154.55,4
174,164.81,154.74,4
173,164.98,154.93,4
173,165.14,155.11,4
173,165.29,155.29,4
175,165.49,155.48,4
172,165.62,155.65,4
172,165.75,155.81,4
172,165.87,155.97,4
171,165.97,156.12,4
171,166.07,156.27,4
171,166.17,156.42,4
171,166.27,156.57,4
172,166.38,156.72,4
171,166.48,156.86,4
171,166.57,157.01,4
171,166.66,157.15,4
171,166.74,157.28,4
170,166.81,157.41,4
169,166.85,157.53,4
169,166.89,157.64,4
169,166.94,157.75,4
169,166.98,157.87,4
170,167.04,157.99,4
169,167.08,158.10,4
169,167.12,158.21,4
169,167.15,158.32,4
170,167.21,158.43,4
169,167.25,158.54,4
169,167.28,158.64,4
169,167.32,158.75,4
169,167.35,158.85,4
169,167.38,158.95,4
171,167.45,159.07,4
169,167.49,159.17,4
169,167.52,159.27,4
171,167.59,159.39,4
170,167.63,159.49,4
171,167.70,159.61,4
171,167.77,159.72,4
171,167.83,159.83,4
171,167.90,159.95,4
171,167.96,160.06,4
170,168.00,160.16,4
171,168.06,160.26,4
169,168.08,160.35,4
169,168.10,160.44,4
169,168.11,160.52,4
170,168.15,160.62,4
169,168.17,160.70,4
169,168.18,160.79,4
169,168.20,160.87,4
169,168.22,160.95,4
169,168.23,161.03,4
168,168.23,161.10,4
169,168.24,161.18,4
167,168.22,161.24,4
168,168.21,161.30,4
167,168.19,161.36,4
168,168.19,161.43,4
167,168.16,161.48,4
167,168.14,161.54,4
167,168.12,161.59,4
166,168.07,161.64,4
167,168.05,161.69,4
167,168.03,161.74,4
165,167.97,161.78,4
165,167.91,161.81,4
165,167.85,161.84,4
165,167.80,161.87,4
165,167.74,161.90,4
164,167.67,161.92,4
165,167.61,161.95,4
163,167.52,161.97,4
163,167.43,161.98,4
163,167.34,161.99,4
165,167.29,162.02,4
163,167.21,162.03,4
163,167.12,162.04,4
164,167.06,162.06,4
164,167.00,162.07,4
163,166.92,162.08,4
165,166.88,162.11,4
164,166.82,162.13,4
163,166.75,162.14,4
165,166.71,162.17,4
164,166.66,162.19,4
165,166.63,162.22,4
164,166.57,162.23,4
164,166.52,162.25,4
164,166.47,162.27,4
164,166.42,162.29,4
163,166.35,162.29,4
164,166.31,162.31,4
163,166.24,162.32,4
163,166.18,162.32,4
163,166.11,162.33,4
163,166.05,162.34,4
163,165.99,162.34,4
167,166.01,162.39,4
161,165.91,162.38,4
161,165.81,162.36,4
161,165.71,162.35,4
161,165.62,162.34,4
161,165.53,162.32,4
161,165.44,162.31,4
161,165.35,162.30,4
160,165.24,162.27,4
161,165.16,162.26,4
161,165.07,162.25,4
161,164.99,162.24,4
159,164.87,162.20,4
161,164.79,162.19,4
160,164.70,162.17,4
161,164.62,162.16,4
159,164.51,162.13,4
160,164.42,162.10,4
159,164.31,162.07,4
159,164.21,162.04,4
157,164.06,161.99,4
158,163.94,161.95,4
158,163.82,161.91,4
158,163.71,161.87,4
158,163.59,161.84,4
157,163.46,161.79,4
157,163.33,161.74,4
157,163.20,161.69,4
157,163.08,161.64,4
157,162.96,161.60,4
156,162.82,161.54,4
156,162.68,161.49,4
157,162.57,161.44,4
156,162.44,161.39,4
156,162.31,161.33,4
156,162.18,161.28,4
155,162.04,161.22,4
155,161.90,161.16,4
156,161.78,161.10,4
155,161.65,161.04,4
154,161.49,160.97,4
155,161.36,160.91,4
154,161.22,160.84,4
154,161.07,160.77,4
154,160.93,160.71,4
154,160.79,160.64,4
154,160.66,160.57,5
155,160.54,160.52,5
154,160.41,160.45,6
155,160.30,160.40,6
153,160.16,160.32,6
153,160.01,160.25,6
153,159.87,160.18,6
153,159.74,160.11,6
153,159.60,160.04,6
154,159.49,159.98,6
153,159.36,159.91,6
153,159.23,159.84,6
153,159.11,159.77,6
153,158.99,159.70,6
153,158.87,159.63,6
152,158.73,159.56,6
152,158.59,159.48,6
152,158.46,159.41,6
152,158.33,159.33,6
152,158.21,159.26,6
153,158.10,159.20,6
151,157.96,159.11,6
151,157.82,159.03,6
151,157.68,158.95,6
152,157.57,158.88,6
148,157.38,158.77,6
150,157.23,158.69,6
151,157.11,158.61,6
149,156.95,158.51,6
151,156.83,158.44,6
150,156.69,158.35,6
150,156.56,158.27,6
149,156.40,158.18,6
149,156.26,158.09,6
149,156.11,158.00,6
149,155.97,157.91,6
147,155.79,157.80,6
148,155.63,157.70,6
149,155.50,157.61,6
148,155.35,157.52,6
147,155.18,157.41,6
149,155.06,157.33,6
148,154.92,157.23,6
148,154.78,157.14,6
148,154.65,157.05,6
147,154.49,156.95,6
147,154.34,156.85,6
147,154.20,156.75,6
147,154.05,156.65,6
147,153.91,156.56,6
147,153.77,156.46,6
147,153.64,156.37,6
148,153.52,156.28,6
147,153.39,156.19,6
145,153.23,156.08,6
145,153.06,155.97,6
147,152.94,155.88,6
146,152.80,155.78,6
147,152.69,155.69,6
145,152.53,155.58,6
145,152.38,155.48,6
145,152.23,155.37,6
145,152.09,155.27,6
145,151.95,155.17,6
143,151.77,155.05,6
145,151.63,154.95,6
145,151.50,154.85,6
145,151.37,154.75,6
144,151.22,154.64,6
143,151.06,154.52,6
143,150.90,154.41,6
144,150.76,154.30,6
144,150.62,154.20,6
145,150.51,154.11,6
144,150.38,154.01,6
145,150.27,153.92,6
143,150.13,153.81,6
143,149.99,153.70,6
143,149.85,153.59,6
143,149.71,153.49,6
143,149.57,153.38,6
143,149.44,153.28,6
143,149.31,153.18,6
142,149.17,153.06,6
141,149.00,152.94,6
143,148.88,152.84,6
142,148.75,152.74,6
142,148.61,152.63,6
142,148.48,152.52,6
141,148.33,152.41,6
143,148.22,152.31,6
141,148.08,152.20,6
141,147.94,152.09,6
141,147.80,151.98,6
141,147.66,151.87,6
141,147.53,151.76,6
142,147.42,151.66,6
140,147.27,151.54,6
141,147.15,151.44,6
141,147.02,151.33,6
141,146.90,151.23,6
140,146.76,151.12,6
141,146.65,151.02,6
143,146.58,150.94,6
140,146.44,150.83,6
141,146.34,150.73,6
139,146.19,150.61,6
141,146.08,150.52,6
139,145.94,150.40,6
139,145.80,150.29,6
140,145.69,150.18,6
140,145.57,150.08,6
139,145.44,149.97,6
140,145.33,149.87,6
139,145.21,149.76,6
139,145.08,149.66,6
139,144.96,149.55,6
139,144.84,149.44,6
138,144.71,149.33,6
135,144.51,149.19,6
137,144.36,149.06,6
137,144.21,148.94,6
137,144.07,148.82,6
137,143.93,148.71,6
137,143.79,148.59,6
137,143.65,148.47,6
137,143.52,148.36,6
137,143.39,148.24,6
138,143.28,148.14,6
136,143.14,148.02,6
137,143.01,147.91,6
137,142.89,147.80,6
137,142.78,147.69,6
137,142.66,147.59,6
136,142.53,147.47,6
136,142.40,147.36,6
135,142.25,147.23,6
136,142.12,147.12,6
135,141.98,147.00,6
136,141.86,146.89,6
135,141.72,146.77,6
136,141.61,146.66,6
135,141.48,146.55,6
135,141.35,146.43,6
135,141.22,146.32,6
134,141.08,146.19,6
134,140.94,146.07,6
134,140.80,145.95,6
133,140.64,145.82,6
133,140.49,145.69,6
135,140.38,145.59,6
134,140.25,145.47,6
133,140.11,145.34,6
133,139.96,145.22,6
133,139.82,145.10,6
133,139.69,144.98,6
133,139.55,144.86,6
133,139.42,144.74,6
133,139.29,144.62,6
133,139.17,144.51,6
133,139.05,144.39,6
131,138.88,144.26,6
133,138.77,144.14,6
132,138.63,144.02,6
132,138.50,143.90,6
132,138.37,143.78,6
131,138.22,143.66,6
131,138.08,143.53,6
131,137.94,143.40,6
131,137.80,143.28,6
131,137.66,143.16,6
131,137.53,143.04,6
130,137.38,142.91,6
130,137.23,142.78,6
130,137.08,142.65,6
130,136.94,142.52,6
129,136.78,142.39,6
130,136.65,142.26,6
129,136.50,142.13,6
129,136.35,142.00,6
129,136.20,141.87,6
129,136.05,141.74,6
129,135.91,141.61,6
129,135.78,141.49,6
129,135.64,141.36,6
129,135.51,141.24,6
129,135.38,141.12,6
128,135.23,140.98,6
128,135.08,140.86,6
128,134.94,140.73,6
129,134.82,140.61,6
128,134.69,140.48,6
129,134.57,140.37,6
129,134.46,140.25,6
129,134.35,140.14,6
127,134.21,140.01,6
128,134.08,139.89,6
128,133.96,139.77,6
128,133.84,139.65,6
128,133.72,139.54,6
128,133.61,139.42,6
127,133.48,139.30,6
128,133.37,139.18,6
127,133.24,139.06,6
127,133.12,138.94,6
127,132.99,138.82,6
127,132.87,138.70,6
127,132.76,138.59,6
127,132.64,138.47,6
127,132.53,138.36,6
126,132.40,138.23,6
127,132.29,138.12,6
125,132.14,137.99,6
126,132.02,137.87,6
125,131.88,137.74,6
127,131.78,137.63,6
126,131.67,137.52,6
126,131.55,137.40,6
125,131.42,137.28,6
125,131.29,137.16,6
125,131.17,137.03,6
125,131.05,136.91,6
126,130.94,136.80,6
125,130.83,136.69,6
125,130.71,136.57,6
125,130.59,136.45,6
125,130.48,136.34,6
123,130.33,136.21,6
125,130.23,136.09,6
124,130.10,135.97,6
124,129.98,135.85,6
124,129.86,135.73,6
124,129.74,135.62,6
123,129.61,135.49,6
123,129.48,135.37,6
123,129.35,135.24,6
123,129.22,135.12,6
123,129.10,135.00,6
123,128.97,134.88,6
123,128.85,134.76,6
123,128.74,134.64,6
123,128.62,134.53,6
122,128.49,134.40,6
121,128.34,134.27,6
122,128.21,134.14,6
123,128.11,134.03,6
122,127.99,133.91,6
122,127.87,133.79,6
122,127.75,133.68,6
123,127.65,133.57,6
121,127.52,133.44,6
121,127.39,133.32,6
124,127.32,133.23,6
121,127.20,133.10,6
121,127.07,132.98,6
122,126.97,132.87,6
121,126.85,132.75,6
121,126.74,132.64,6
121,126.62,132.52,6
121,126.51,132.40,6
121,126.40,132.29,6
120,126.27,132.17,6
120,126.14,132.05,6
120,126.02,131.93,6
120,125.90,131.81,6
120,125.78,131.69,6
119,125.65,131.56,6
119,125.51,131.44,6
117,125.34,131.29,6
117,125.18,131.15,6
119,125.05,131.03,6
120,124.95,130.92,6
119,124.83,130.80,6
119,124.72,130.68,6
119,124.60,130.56,6
119,124.49,130.45,6
119,124.38,130.33,6
119,124.27,130.22,6
119,124.17,130.11,6
119,124.06,130.00,6
119,123.96,129.89,6
120,123.88,129.79,6
120,123.81,129.69,6
120,123.73,129.59,6
119,123.64,129.49,6
119,123.54,129.38,6
117,123.41,129.26,6
119,123.32,129.16,6
118,123.22,129.04,6
118,123.11,128.93,6
119,123.03,128.83,6
118,122.93,128.73,6
119,122.85,128.63,6
118,122.75,128.52,6
118,122.66,128.42,6
118,122.57,128.31,6
117,122.45,128.20,6
117,122.35,128.09,6
118,122.26,127.99,6
117,122.15,127.88,6
117,122.05,127.77,6
117,121.95,127.66,6
117,121.85,127.55,6
117,121.75,127.45,6
118,121.68,127.35,6
117,121.58,127.25,6
117,121.49,127.15,6
120,121.46,127.08,6
117,121.37,126.98,6
116,121.27,126.87,6
116,121.16,126.76,6
116,121.06,126.65,6
116,120.96,126.54,6
117,120.88,126.45,6
117,120.80,126.35,6
117,120.72,126.26,6
116,120.63,126.16,6
116,120.54,126.06,6
117,120.47,125.96,6
116,120.38,125.87,6
115,120.27,125.76,6
117,120.20,125.67,6
117,120.14,125.58,6
116,120.06,125.49,6
116,119.98,125.39,6
115,119.88,125.29,6
117,119.82,125.20,6
116,119.74,125.11,6
116,119.67,125.02,6
115,119.57,124.92,6
116,119.50,124.83,6
115,119.41,124.73,6
116,119.34,124.65,6
116,119.28,124.56,6
115,119.19,124.46,6
116,119.13,124.38,6
117,119.09,124.31,6
115,119.00,124.21,6
115,118.92,124.12,6
115,118.85,124.03,6
115,118.77,123.94,6
115,118.69,123.85,6
114,118.60,123.75,6
115,118.53,123.66,6
114,118.44,123.57,6
113,118.33,123.46,6
114,118.24,123.37,6
113,118.14,123.26,6
113,118.03,123.16,6
115,117.97,123.08,6
113,117.87,122.98,6
113,117.78,122.88,6
113,117.68,122.78,6
113,117.59,122.68,6
113,117.50,122.59,6
113,117.41,122.49,6
113,117.32,122.39,6
113,117.23,122.30,6
113,117.15,122.21,6
112,117.04,122.11,6
113,116.96,122.01,6
113,116.88,121.92,6
111,116.77,121.81,6
112,116.67,121.72,6
113,116.60,121.63,6
113,116.53,121.54,6
113,116.45,121.46,6
113,116.39,121.37,6
113,116.32,121.29,6
113,116.25,121.21,6
112,116.17,121.11,6
112,116.08,121.02,6
113,116.02,120.94,6
113,115.96,120.86,6
113,115.90,120.79,6
113,115.84,120.71,6
113,115.79,120.63,6
113,115.73,120.55,6
113,115.68,120.48,6
113,115.62,120.40,6
112,115.55,120.32,6
111,115.46,120.23,6
113,115.41,120.15,6
112,115.34,120.07,6
112,115.28,119.99,6
112,115.21,119.91,6
112,115.15,119.83,6
113,115.10,119.76,6
112,115.04,119.69,6
111,114.96,119.60,6
111,114.88,119.51,6
111,114.80,119.43,6
113,114.77,119.36,6
112,114.71,119.29,6
111,114.64,119.21,6
111,114.56,119.13,6
111,114.49,119.04,6
111,114.42,118.96,6
111,114.36,118.88,6
111,114.29,118.81,6
111,114.22,118.73,6
111,114.16,118.65,6
111,114.09,118.57,6
111,114.03,118.50,6
111,113.97,118.42,6
111,113.91,118.35,6
111,113.85,118.28,6
111,113.80,118.20,6
110,113.72,118.12,6
110,113.65,118.04,6
110,113.57,117.96,6
111,113.52,117.89,6
111,113.47,117.82,6
111,113.42,117.75,6
110,113.35,117.67,6
110,113.29,117.60,6
109,113.20,117.51,6
108,113.10,117.42,6
109,113.02,117.33,6
111,112.98,117.27,6
109,112.90,117.19,6
109,112.82,117.10,6
109,112.74,117.02,6
109,112.67,116.94,6
109,112.59,116.86,6
111,112.56,116.81,6
109,112.49,116.73,6
109,112.42,116.65,6
109,112.35,116.57,6
109,112.28,116.50,6
110,112.24,116.43,6
109,112.17,116.36,6
109,112.11,116.29,6
108,112.03,116.20,6
109,111.97,116.13,6
107,111.87,116.04,6
108,111.79,115.96,6
107,111.70,115.87,6
109,111.64,115.80,6
107,111.55,115.71,6
108,111.48,115.64,6
108,111.41,115.56,6
109,111.36,115.49,6
108,111.29,115.42,6
108,111.23,115.34,6
108,111.16,115.27,6
107,111.08,115.19,6
107,111.00,115.11,6
108,110.94,115.04,6
108,110.88,114.96,6
107,110.80,114.89,6
108,110.75,114.82,6
107,110.67,114.74,6
107,110.60,114.66,6
107,110.53,114.58,6
107,110.45,114.51,6
110,110.45,114.46,6
108,110.40,114.40,6
105,110.29,114.30,6
106,110.20,114.22,6
105,110.10,114.13,6
106,110.02,114.05,6
107,109.96,113.98,6
106,109.88,113.90,6
106,109.80,113.82,6
106,109.72,113.74,6
107,109.67,113.67,6
106,109.60,113.60,6
105,109.50,113.51,6
107,109.45,113.45,6
107,109.40,113.38,6
107,109.36,113.32,6
104,109.25,113.22,6
107,109.20,113.16,6
111,109.24,113.14,6
109,109.24,113.10,6
110,109.25,113.07,6
109,109.25,113.03,6
110,109.26,113.00,6
111,109.30,112.98,6
114,109.39,112.99,6
114,109.48,113.00,6
113,109.55,113.00,6
113,109.62,113.00,6
113,109.69,113.00,6
115,109.80,113.02,6
115,109.90,113.04,6
116,110.02,113.07,6
114,110.10,113.08,6
115,110.20,113.10,6
113,110.26,113.09,6
115,110.35,113.11,6
113,110.40,113.11,6
113,110.45,113.11,6
114,110.53,113.12,6
115,110.62,113.14,6
114,110.68,113.15,6
114,110.75,113.16,6
113,110.79,113.15,6
115,110.88,113.17,6
115,110.96,113.19,6
114,111.02,113.20,6
115,111.10,113.22,6
114,111.16,113.23,6
115,111.24,113.24,6
115,111.31,113.26,6
115,111.39,113.28,6
115,111.46,113.29,6
117,111.57,113.33,6
116,111.66,113.36,6
116,111.74,113.39,6
116,111.83,113.41,6
115,111.89,113.43,6
116,111.97,113.45,6
116,112.05,113.48,6
116,112.13,113.50,6
116,112.21,113.53,6
116,112.29,113.55,6
116,112.36,113.58,6
116,112.43,113.60,6
116,112.51,113.63,6
116,112.58,113.65,6
115,112.62,113.66,6
116,112.69,113.69,6
115,112.74,113.70,6
116,112.80,113.72,6
115,112.85,113.74,6
115,112.89,113.75,6
115,112.93,113.76,6
116,112.99,113.78,6
115,113.03,113.80,6
115,113.07,113.81,6
115,113.11,113.82,6
115,113.15,113.83,6
116,113.21,113.85,6
115,113.24,113.86,6
115,113.28,113.88,6
115,113.31,113.89,6
115,113.35,113.90,6
116,113.40,113.92,6
116,113.45,113.94,6
116,113.50,113.96,6
115,113.53,113.97,6
115,113.56,113.98,6
116,113.61,114.00,6
115,113.64,114.01,6
116,113.68,114.03,6
117,113.75,114.06,6
116,113.80,114.08,6
117,113.86,114.11,6
116,113.90,114.13,6
116,113.94,114.15,6
116,113.99,114.17,6
115,114.01,114.17,6
115,114.03,114.18,6
115,114.05,114.19,6
115,114.06,114.20,6
116,114.10,114.22,6
115,114.12,114.22,6
115,114.14,114.23,6
115,114.16,114.24,6
116,114.19,114.26,6
115,114.21,114.26,6
115,114.22,114.27,6
115,114.24,114.28,6
115,114.26,114.29,6
113,114.23,114.27,6
115,114.25,114.28,6
115,114.26,114.29,6
115,114.28,114.30,6
115,114.29,114.30,6
115,114.30,114.31,6
116,114.34,114.33,6
115,114.35,114.33,6
116,114.38,114.35,6
115,114.40,114.36,6
117,114.45,114.38,6
115,114.46,114.39,6
116,114.49,114.40,6
116,114.52,114.42,6
115,114.53,114.43,6
115,114.54,114.43,6
115,114.55,114.44,6
115,114.56,114.44,6
117,114.61,114.47,6
116,114.63,114.48,6
116,114.66,114.50,6
115,114.67,114.50,6
115,114.68,114.51,6
117,114.72,114.53,6
116,114.75,114.55,6
116,114.77,114.56,6
116,114.80,114.58,6
117,114.84,114.60,6
115,114.84,114.61,6
116,114.87,114.62,6
116,114.89,114.63,6
116,114.91,114.65,6
116,114.93,114.66,6
116,114.96,114.67,6
116,114.98,114.69,6
117,115.02,114.71,6
116,115.04,114.72,6
115,115.04,114.73,6
116,115.06,114.74,6
118,115.11,114.77,6
117,115.15,114.79,6
117,115.19,114.82,6
117,115.22,114.84,6
116,115.24,114.85,6
117,115.28,114.87,6
118,115.33,114.90,6
117,115.36,114.92,6
117,115.40,114.94,6
117,115.43,114.96,6
117,115.46,114.99,6
118,115.51,115.02,6
117,115.54,115.04,6
117,115.57,115.05,6
117,115.60,115.07,6
116,115.61,115.08,6
116,115.61,115.09,6
117,115.64,115.11,6
117,115.67,115.13,6
117,115.70,115.15,6
117,115.72,115.17,6
117,115.75,115.19,6
117,115.77,115.20,6
117,115.80,115.22,6
117,115.82,115.24,6
117,115.84,115.26,6
117,115.87,115.28,6
117,115.89,115.29,6
117,115.91,115.31,6
117,115.93,115.33,6
117,115.96,115.34,6
117,115.98,115.36,6
119,116.04,115.40,6
118,116.08,115.42,6
118,116.11,115.45,6
119,116.17,115.48,6
119,116.23,115.52,6
117,116.24,115.53,6
119,116.30,115.57,6
119,116.35,115.60,6
119,116.41,115.64,6
118,116.44,115.66,6
119,116.49,115.69,6
119,116.54,115.73,6
119,116.59,115.76,6
119,116.64,115.79,6
118,116.66,115.81,6
119,116.71,115.85,6
120,116.78,115.89,6
119,116.82,115.92,6
119,116.86,115.95,6
119,116.91,115.98,6
119,116.95,116.01,6
121,117.03,116.06,6
120,117.09,116.10,6
119,117.13,116.13,6
120,117.19,116.17,6
119,117.22,116.20,6
119,117.26,116.22,6
119,117.29,116.25,6
120,117.35,116.29,6
119,117.38,116.32,6
119,117.41,116.34,6
119,117.44,116.37,6
119,117.47,116.40,6
119,117.51,116.42,6
119,117.54,116.45,6
120,117.58,116.48,6
119,117.61,116.51,6
119,117.64,116.53,6
119,117.67,116.56,6
119,117.69,116.58,6
119,117.72,116.61,6
119,117.75,116.63,6
120,117.79,116.66,6
119,117.82,116.69,6
119,117.84,116.71,6
121,117.90,116.75,6
119,117.92,116.78,6
119,117.95,116.80,6
117,117.93,116.80,6
120,117.97,116.83,6
120,118.01,116.86,6
119,118.03,116.88,6
119,118.05,116.91,6
120,118.09,116.94,6
120,118.13,116.97,6
119,118.14,116.99,6
120,118.18,117.02,6
120,118.22,117.05,6
119,118.23,117.07,6
119,118.25,117.09,6
120,118.28,117.12,6
119,118.30,117.13,6
121,118.35,117.17,6
121,118.40,117.21,6
121,118.46,117.25,6
121,118.51,117.29,6
122,118.58,117.33,6
124,118.69,117.40,6
122,118.75,117.45,6
123,118.84,117.50,6
123,118.92,117.56,6
123,119.00,117.61,6
121,119.04,117.65,6
123,119.12,117.70,6
123,119.20,117.75,6
121,119.23,117.78,6
121,119.27,117.82,6
123,119.34,117.87,6
119,119.34,117.88,6
123,119.41,117.93,6
121,119.44,117.96,6
122,119.49,118.00,6
122,119.54,118.04,6
123,119.61,118.09,6
122,119.66,118.13,6
121,119.69,118.16,6
121,119.71,118.19,6
123,119.78,118.24,6
123,119.84,118.28,6
122,119.89,118.32,6
121,119.91,118.35,6
123,119.97,118.39,6
124,120.05,118.45,6
123,120.11,118.50,6
121,120.13,118.52,6
125,120.23,118.59,6
124,120.30,118.64,6
124,120.38,118.69,6
125,120.47,118.76,6
125,120.56,118.82,6
125,120.65,118.88,6
124,120.71,118.93,6
125,120.80,118.99,6
125,120.88,119.05,6
125,120.97,119.11,6
127,121.09,119.19,6
125,121.17,119.25,6
125,121.24,119.31,6
125,121.32,119.36,6
125,121.39,119.42,6
127,121.50,119.50,6
127,121.61,119.57,6
126,121.70,119.64,6
126,121.79,119.70,6
127,121.89,119.77,6
127,121.99,119.84,6
127,122.09,119.92,6
130,122.25,120.02,6
125,122.31,120.07,6
127,122.40,120.14,6
125,122.45,120.18,6
127,122.54,120.25,6
126,122.61,120.31,6
128,122.72,120.39,6
126,122.79,120.44,6
127,122.87,120.51,6
127,122.95,120.57,6
126,123.01,120.63,6
127,123.09,120.69,6
127,123.17,120.75,6
127,123.25,120.82,6
130,123.38,120.91,6
129,123.50,120.99,6
128,123.59,121.06,6
131,123.73,121.16,6
132,123.90,121.27,6
131,124.04,121.36,6
132,124.20,121.47,6
131,124.34,121.57,6
131,124.47,121.66,6
129,124.56,121.73,6
131,124.69,121.83,6
131,124.82,121.92,6
133,124.98,122.03,6
135,125.18,122.16,6
133,125.34,122.27,6
136,125.55,122.40,6
136,125.76,122.54,6
137,125.98,122.69,6
140,126.26,122.86,6
137,126.48,123.00,6
137,126.69,123.14,6
137,126.89,123.28,6
137,127.10,123.42,6
139,127.33,123.57,6
138,127.55,123.72,6
139,127.78,123.87,6
138,127.98,124.01,6
139,128.20,124.16,6
140,128.44,124.32,6
141,128.69,124.49,6
140,128.92,124.64,6
141,129.16,124.80,6
142,129.41,124.98,6
141,129.65,125.14,6
142,129.89,125.30,6
140,130.09,125.45,6
141,130.31,125.61,6
141,130.53,125.76,6
143,130.78,125.93,6
145,131.06,126.12,6
144,131.32,126.30,6
143,131.55,126.47,6
147,131.86,126.68,6
148,132.18,126.89,6
149,132.52,127.11,6
147,132.81,127.31,6
150,133.15,127.54,6
151,133.51,127.77,6
149,133.82,127.98,6
149,134.12,128.19,6
149,134.42,128.40,6
149,134.71,128.61,6
151,135.04,128.83,6
150,135.34,129.04,6
149,135.61,129.24,6
150,135.90,129.45,6
150,136.18,129.66,6
149,136.44,129.85,6
149,136.69,130.04,6
149,136.94,130.23,6
149,137.18,130.42,6
149,137.41,130.60,6
149,137.65,130.79,6
150,137.89,130.98,6
150,138.13,131.17,6
152,138.41,131.38,6
153,138.70,131.59,6
152,138.97,131.80,6
152,139.23,132.00,6
155,139.55,132.23,6
154,139.83,132.45,6
153,140.10,132.65,6
153,140.36,132.86,6
156,140.67,133.09,6
157,141.00,133.33,6
156,141.30,133.55,6
155,141.57,133.77,6
156,141.86,133.99,6
157,142.16,134.22,6
159,142.50,134.47,6
161,142.87,134.73,6
159,143.19,134.98,6
159,143.51,135.22,6
160,143.84,135.46,6
161,144.18,135.72,6
160,144.50,135.96,6
160,144.81,136.20,6
160,145.11,136.44,6
160,145.41,136.68,6
159,145.68,136.90,6
161,145.99,137.14,6
159,146.25,137.36,6
159,146.50,137.58,6
160,146.77,137.80,6
160,147.04,138.02,6
160,147.30,138.24,6
159,147.53,138.45,6
159,147.76,138.66,6
161,148.02,138.88,6
160,148.26,139.09,6
160,148.50,139.30,6
161,148.75,139.52,6
164,149.05,139.76,6
162,149.31,139.98,6
163,149.59,140.21,6
163,149.85,140.44,6
163,150.12,140.67,6
163,150.37,140.89,6
163,150.63,141.11,6
165,150.91,141.35,6
165,151.20,141.59,6
166,151.49,141.83,6
165,151.76,142.06,6
165,152.03,142.29,6
165,152.29,142.52,6
165,152.54,142.74,6
165,152.79,142.97,6
165,153.03,143.19,6
168,153.33,143.43,6
166,153.59,143.66,6
167,153.86,143.89,6
167,154.12,144.12,6
168,154.40,144.36,6
167,154.65,144.59,6
168,154.91,144.82,6
168,155.18,145.06,6
169,155.45,145.30,6
168,155.70,145.52,6
170,155.99,145.77,6
169,156.25,146.00,6
169,156.51,146.23,6
169,156.76,146.46,6
169,157.00,146.68,6
169,157.24,146.91,6
173,157.56,147.17,6
173,157.86,147.43,6
171,158.13,147.66,6
172,158.40,147.90,6
171,158.66,148.14,6
172,158.92,148.37,6
172,159.18,148.61,6
175,159.50,148.87,6
175,159.81,149.14,6
174,160.09,149.38,6
173,160.35,149.62,6
175,160.65,149.87,6
175,160.93,150.13,6
176,161.23,150.38,6
177,161.55,150.65,6
175,161.82,150.89,6
175,162.08,151.13,6
175,162.34,151.37,6
176,162.61,151.62,6
175,162.86,151.85,6
175,163.10,152.08,6
175,163.34,152.31,6
175,163.58,152.54,6
177,163.84,152.79,6
178,164.13,153.04,6
177,164.38,153.28,6
180,164.70,153.54,6
179,164.98,153.80,6
179,165.26,154.05,6
177,165.50,154.28,6
179,165.77,154.53,6
180,166.05,154.78,6
179,166.31,155.02,6
180,166.59,155.27,6
181,166.87,155.53,6
181,167.16,155.79,6
181,167.43,156.04,6
181,167.70,156.29,6
179,167.93,156.52,6
181,168.19,156.76,6
180,168.43,156.99,6
181,168.68,157.23,6
181,168.93,157.47,6
181,169.17,157.71,6
180,169.38,157.93,6
179,169.58,158.14,6
180,169.78,158.36,6
179,169.97,158.56,6
179,170.15,158.77,6
179,170.33,158.97,6
179,170.50,159.17,6
179,170.67,159.37,6
177,170.80,159.55,6
178,170.94,159.73,6
179,171.10,159.92,6
179,171.26,160.11,6
179,171.41,160.30,6
178,171.55,160.48,6
179,171.70,160.66,6
178,171.82,160.84,6
179,171.97,161.02,6
177,172.07,161.18,6
177,172.16,161.34,6
177,172.26,161.49,6
177,172.36,161.65,6
177,172.45,161.80,6
177,172.54,161.95,6
177,172.63,162.11,6
176,172.70,162.24,6
177,172.78,162.39,6
175,172.83,162.52,6
175,172.87,162.64,6
176,172.93,162.78,6
175,172.97,162.90,6
175,173.01,163.02,6
175,173.05,163.14,6
175,173.09,163.26,6
176,173.15,163.39,6
175,173.19,163.50,6
175,173.22,163.62,6
175,173.26,163.73,6
176,173.32,163.85,6
174,173.33,163.95,6
174,173.34,164.06,6
173,173.34,164.14,6
173,173.33,164.23,6
173,173.32,164.32,6
173,173.32,164.41,6
173,173.31,164.49,6
173,173.30,164.58,6
173,173.30,164.66,6
173,173.29,164.75,6
173,173.29,164.83,6
171,173.24,164.89,6
172,173.21,164.96,6
173,173.21,165.04,6
172,173.19,165.11,6
172,173.16,165.18,6
172,173.14,165.25,6
171,173.10,165.31,6
171,173.05,165.36,6
171,173.01,165.42,6
170,172.95,165.47,6
171,172.91,165.52,6
170,172.86,165.57,6
170,172.80,165.61,6
169,172.72,165.64,6
169,172.65,165.68,6
169,172.58,165.71,6
169,172.50,165.74,6
168,172.41,165.77,6
165,172.27,165.76,6
168,172.18,165.78,6
167,172.08,165.79,6
167,171.98,165.80,6
167,171.88,165.82,6
167,171.78,165.83,6
167,171.68,165.84,6
167,171.59,165.85,6
166,171.48,165.85,6
165,171.35,165.84,6
166,171.24,165.85,6
165,171.12,165.84,6
165,170.99,165.83,6
165,170.87,165.82,6
165,170.76,165.81,6
165,170.64,165.80,6
165,170.53,165.80,6
164,170.40,165.78,6
164,170.27,165.76,6
163,170.12,165.73,6
163,169.98,165.71,6
163,169.84,165.68,6
163,169.71,165.65,6
163,169.57,165.63,6
163,169.44,165.60,6
163,169.31,165.57,6
163,169.18,165.55,6
162,169.04,165.51,6
163,168.92,165.49,6
162,168.78,165.45,6
162,168.65,165.42,6
162,168.51,165.38,6
163,168.40,165.36,6
161,168.26,165.32,6
163,168.15,165.29,6
161,168.01,165.25,6
161,167.87,165.21,6
161,167.73,165.17,6
161,167.59,165.12,6
163,167.50,165.10,6
161,167.37,165.06,6
161,167.25,165.02,6
161,167.12,164.98,6
159,166.96,164.92,6
159,166.80,164.86,6
160,166.66,164.81,6
160,166.53,164.77,6
160,166.40,164.72,6
159,166.25,164.66,6
160,166.13,164.61,6
159,165.98,164.56,6
159,165.84,164.50,6
159,165.71,164.45,6
160,165.59,164.40,6
159,165.46,164.35,6
156,165.27,164.26,6
158,165.13,164.20,6
157,164.96,164.13,6
157,164.80,164.06,6
157,164.65,163.99,6
157,164.50,163.92,6
157,164.35,163.85,6
157,164.20,163.78,6
157,164.05,163.71,6
157,163.91,163.65,6
157,163.78,163.58,6
156,163.62,163.50,7
156,163.47,163.43,7
157,163.34,163.36,8
156,163.19,163.29,8
157,163.07,163.23,8
156,162.93,163.16,8
155,162.77,163.07,8
156,162.63,163.00,8
155,162.48,162.92,8
155,162.33,162.84,8
155,162.18,162.77,8
155,162.04,162.69,8
154,161.88,162.60,8
155,161.74,162.53,8
153,161.57,162.43,8
154,161.42,162.35,8
154,161.27,162.26,8
155,161.14,162.19,8
153,160.98,162.10,8
154,160.84,162.02,8
153,160.68,161.93,8
153,160.53,161.84,8
153,160.38,161.75,8
153,160.23,161.66,8
153,160.09,161.57,8
154,159.96,161.50,8
153,159.83,161.41,8
153,159.69,161.33,8
153,159.55,161.25,8
153,159.42,161.16,8
153,159.30,161.08,8
153,159.17,161.00,8
152,159.03,160.91,8
153,158.91,160.83,8
153,158.79,160.75,8
152,158.65,160.67,8
153,158.54,160.59,8
152,158.41,160.50,8
151,158.26,160.41,8
151,158.11,160.31,8
153,158.01,160.24,8
151,157.87,160.15,8
151,157.73,160.06,8
151,157.60,159.97,8
151,157.47,159.88,8
151,157.34,159.79,8
150,157.19,159.69,8
150,157.05,159.59,8
151,156.93,159.51,8
151,156.81,159.42,8
149,156.65,159.32,8
150,156.52,159.23,8
149,156.37,159.12,8
149,156.22,159.02,8
149,156.08,158.92,8
149,155.94,158.82,8
149,155.80,158.72,8
149,155.66,158.63,8
148,155.51,158.52,8
149,155.38,158.43,8
148,155.23,158.32,8
148,155.09,158.22,8
148,154.94,158.12,8
147,154.78,158.00,8
148,154.65,157.90,8
146,154.48,157.79,8
147,154.33,157.68,8
147,154.18,157.57,8
148,154.06,157.48,8
147,153.92,157.37,8
147,153.78,157.27,8
147,153.64,157.16,8
147,153.51,157.06,8
147,153.38,156.96,8
146,153.23,156.85,8
146,153.09,156.74,8
146,152.94,156.64,8
145,152.79,156.52,8
145,152.63,156.40,8
145,152.48,156.29,8
146,152.35,156.19,8
145,152.20,156.08,8
145,152.06,155.97,8
143,151.88,155.84,8
144,151.72,155.72,8
145,151.58,155.61,8
145,151.45,155.50,8
144,151.30,155.39,8
144,151.16,155.28,8
145,151.03,155.17,8
143,150.87,155.05,8
145,150.76,154.95,8
143,150.60,154.83,8
143,150.45,154.71,8
143,150.30,154.60,8
143,150.15,154.48,8
143,150.01,154.36,8
144,149.89,154.26,8
143,149.75,154.15,8
142,149.60,154.03,8
143,149.47,153.92,8
142,149.32,153.80,8
143,149.19,153.69,8
142,149.05,153.57,8
141,148.89,153.45,8
141,148.73,153.32,8
141,148.57,153.20,8
141,148.42,153.08,8
141,148.27,152.96,8
141,148.13,152.84,8
141,147.99,152.72,8
141,147.85,152.60,8
142,147.73,152.50,8
140,147.57,152.37,8
141,147.44,152.26,8
141,147.31,152.14,8
140,147.17,152.02,8
141,147.04,151.91,8
139,146.88,151.78,8
140,146.75,151.67,8
140,146.61,151.55,8
140,146.48,151.43,8
143,146.41,151.35,8
140,146.28,151.24,8
139,146.14,151.11,8
138,145.97,150.98,8
139,145.83,150.86,8
138,145.68,150.73,8
140,145.56,150.63,8
137,145.39,150.49,8
138,145.24,150.36,8
138,145.10,150.24,8
137,144.94,150.11,8
137,144.78,149.98,8
139,144.66,149.87,8
138,144.53,149.75,8
138,144.40,149.63,8
137,144.25,149.51,8
136,144.09,149.37,8
137,143.94,149.25,8
137,143.81,149.12,8
137,143.67,149.00,8
137,143.54,148.88,8
136,143.38,148.75,8
136,143.24,148.63,8
136,143.09,148.50,8
137,142.97,148.39,8
136,142.83,148.26,8
136,142.69,148.14,8
136,142.56,148.02,8
136,142.43,147.90,8
136,142.30,147.78,8
136,142.17,147.66,8
136,142.05,147.54,8
135,141.91,147.42,8
136,141.79,147.30,8
135,141.66,147.18,8
135,141.52,147.06,8
135,141.39,146.94,8
135,141.26,146.82,8
135,141.14,146.70,8
135,141.02,146.58,8
135,140.90,146.47,8
135,140.78,146.35,8
135,140.66,146.24,8
134,140.53,146.12,8
135,140.42,146.01,8
134,140.29,145.89,8
134,140.16,145.77,8
134,140.04,145.65,8
133,139.90,145.52,8
134,139.78,145.41,8
133,139.65,145.28,8
133,139.51,145.16,8
133,139.38,145.04,8
133,139.26,144.92,8
133,139.13,144.80,8
133,139.01,144.68,8
134,138.91,144.58,8
133,138.79,144.46,8
133,138.67,144.35,8
133,138.56,144.23,8
133,138.45,144.12,8
133,138.34,144.01,8
131,138.19,143.88,8
133,138.09,143.77,8
131,137.95,143.64,8
132,137.83,143.53,8
131,137.69,143.40,8
132,137.58,143.29,8
131,137.45,143.16,8
131,137.32,143.04,8
131,137.19,142.92,8
132,137.09,142.81,8
131,136.97,142.69,8
132,136.87,142.59,8
131,136.75,142.47,8
131,136.63,142.36,8
132,136.54,142.25,8
132,136.45,142.15,8
131,136.34,142.04,8
130,136.22,141.92,8
131,136.11,141.81,8
131,136.01,141.70,8
131,135.91,141.59,8
130,135.79,141.48,8
132,135.71,141.38,8
132,135.64,141.29,8
130,135.53,141.18,8
130,135.42,141.06,8
130,135.31,140.95,8
129,135.18,140.83,8
131,135.10,140.74,8
129,134.98,140.62,8
129,134.86,140.50,8
129,134.74,140.39,8
129,134.63,140.27,8
129,134.51,140.16,8
129,134.40,140.05,8
129,134.29,139.94,8
129,134.19,139.83,8
129,134.08,139.72,8
129,133.98,139.61,8
129,133.88,139.51,8
129,133.79,139.40,8
129,133.69,139.30,8
128,133.58,139.19,8
129,133.48,139.08,8
128,133.38,138.97,8
128,133.27,138.86,8
129,133.18,138.76,8
128,133.08,138.66,8
128,132.98,138.55,8
129,132.90,138.45,8
128,132.80,138.35,8
128,132.70,138.25,8
128,132.61,138.14,8
128,132.52,138.04,8
128,132.43,137.94,8
128,132.34,137.84,8
127,132.23,137.73,8
127,132.13,137.63,8
127,132.02,137.52,8
127,131.92,137.42,8
127,131.83,137.31,8
127,131.73,137.21,8
125,131.59,137.09,8
127,131.50,136.99,8
127,131.41,136.89,8
127,131.32,136.79,8
127,131.24,136.69,8
125,131.11,136.57,8
125,130.99,136.46,8
125,130.87,136.34,8
127,130.79,136.25,8
126,130.70,136.15,8
125,130.58,136.03,8
125,130.47,135.92,8
125,130.36,135.81,8
125,130.26,135.71,8
125,130.15,135.60,8
125,130.05,135.49,8
125,129.95,135.39,8
125,129.85,135.28,8
125,129.75,135.18,8
125,129.66,135.08,8
125,129.56,134.98,8
125,129.47,134.88,8
125,129.38,134.78,8
123,129.25,134.66,8
124,129.15,134.56,8
124,129.05,134.45,8
125,128.97,134.36,8
125,128.89,134.26,8
125,128.81,134.17,8
123,128.69,134.06,8
124,128.60,133.96,8
123,128.49,133.85,8
124,128.40,133.75,8
124,128.31,133.65,8
124,128.22,133.56,8
123,128.12,133.45,8
125,128.06,133.37,8
124,127.97,133.27,8
124,127.89,133.18,8
125,127.84,133.10,8
123,127.74,133.00,8
124,127.67,132.91,8
123,127.57,132.81,8
123,127.48,132.71,8
123,127.39,132.61,8
123,127.30,132.52,8
123,127.22,132.42,8
123,127.13,132.33,8
123,127.05,132.23,8
122,126.95,132.13,8
122,126.85,132.03,8
123,126.77,131.94,8
121,126.66,131.83,8
123,126.58,131.74,8
121,126.47,131.63,8
122,126.38,131.54,8
121,126.28,131.43,8
121,126.17,131.33,8
121,126.07,131.23,8
121,125.97,131.12,8
121,125.87,131.02,8
121,125.77,130.92,8
120,125.65,130.81,8
121,125.56,130.71,8
120,125.45,130.61,8
120,125.34,130.50,8
121,125.25,130.41,8
120,125.15,130.30,8
120,125.05,130.20,8
120,124.94,130.10,8
120,124.85,130.00,8
117,124.69,129.87,8
119,124.57,129.76,8
117,124.42,129.63,8
119,124.31,129.52,8
119,124.21,129.42,8
119,124.10,129.31,8
119,124.00,129.21,8
119,123.90,129.11,8
119,123.80,129.01,8
119,123.71,128.91,8
119,123.61,128.81,8
119,123.52,128.71,8
119,123.43,128.61,8
118,123.32,128.51,8
119,123.24,128.41,8
117,123.11,128.30,8
117,122.99,128.19,8
117,122.87,128.07,8
117,122.75,127.96,8
118,122.66,127.86,8
119,122.58,127.77,8
118,122.49,127.68,8
117,122.38,127.57,8
117,122.27,127.46,8
117,122.17,127.36,8
118,122.09,127.27,8
116,121.96,127.15,8
117,121.86,127.05,8
117,121.77,126.95,8
117,121.67,126.85,8
117,121.58,126.75,8
117,121.49,126.66,8
117,121.40,126.56,8
116,121.29,126.45,8
116,121.18,126.35,8
117,121.10,126.26,8
117,121.02,126.16,8
118,120.96,126.08,8
116,120.86,125.98,8
116,120.76,125.88,8
117,120.69,125.79,8
115,120.57,125.68,8
116,120.48,125.59,8
116,120.39,125.49,8
117,120.32,125.41,8
116,120.24,125.31,8
115,120.13,125.21,8
116,120.05,125.12,8
116,119.97,125.03,8
115,119.87,124.93,8
115,119.77,124.83,8
116,119.70,124.74,8
116,119.62,124.65,8
115,119.53,124.55,8
116,119.46,124.47,8
115,119.37,124.37,8
115,119.28,124.28,8
115,119.20,124.19,8
115,119.11,124.10,8
116,119.05,124.01,8
114,118.95,123.91,8
113,118.83,123.81,8
114,118.73,123.71,8
113,118.62,123.60,8
113,118.51,123.49,8
114,118.42,123.40,8
113,118.31,123.30,8
114,118.22,123.20,8
114,118.14,123.11,8
114,118.06,123.02,8
113,117.95,122.92,8
113,117.86,122.82,8
113,117.76,122.72,8
113,117.66,122.62,8
113,117.57,122.53,8
114,117.50,122.44,8
113,117.41,122.35,8
114,117.34,122.26,8
113,117.25,122.17,8
113,117.17,122.08,8
113,117.09,121.99,8
113,117.00,121.90,8
113,116.92,121.81,8
113,116.84,121.72,8
113,116.77,121.64,8
113,116.69,121.55,8
115,116.66,121.48,8
113,116.59,121.40,8
113,116.51,121.31,8
113,116.44,121.23,8
113,116.37,121.15,8
113,116.31,121.07,8
113,116.24,120.99,8
113,116.18,120.91,8
113,116.11,120.83,8
113,116.05,120.75,8
113,115.99,120.67,8
113,115.93,120.60,8
113,115.87,120.52,8
113,115.81,120.44,8
113,115.76,120.37,8
113,115.70,120.30,8
112,115.63,120.21,8
116,115.64,120.17,8
112,115.56,120.09,8
112,115.49,120.01,8
112,115.42,119.93,8
111,115.33,119.84,8
111,115.25,119.75,8
111,115.16,119.66,8
112,115.10,119.59,8
111,115.02,119.50,8
111,114.94,119.42,8
111,114.86,119.33,8
111,114.78,119.25,8
111,114.70,119.17,8
111,114.63,119.08,8
111,114.56,119.00,8
111,114.49,118.92,8
108,114.36,118.81,8
111,114.29,118.74,8
109,114.18,118.64,8
110,114.10,118.55,8
109,114.00,118.46,8
111,113.94,118.38,8
110,113.86,118.30,8
111,113.80,118.23,8
111,113.75,118.15,8
111,113.69,118.08,8
111,113.64,118.01,8
110,113.57,117.93,8
110,113.49,117.85,8
110,113.42,117.77,8
112,113.40,117.72,8
111,113.35,117.65,8
111,113.30,117.58,8
111,113.25,117.52,8
111,113.21,117.45,8
112,113.19,117.40,8
113,113.18,117.35,8
113,113.18,117.31,8
113,113.17,117.27,8
112,113.15,117.21,8
113,113.15,117.17,8
112,113.12,117.12,8
111,113.08,117.06,8
111,113.04,117.00,8
111,113.00,116.94,8
111,112.96,116.88,8
111,112.92,116.82,8
111,112.88,116.76,8
111,112.84,116.70,8
111,112.81,116.65,8
111,112.77,116.59,8
109,112.70,116.51,8
111,112.66,116.46,8
109,112.59,116.38,8
110,112.54,116.32,8
112,112.53,116.28,8
109,112.46,116.20,8
109,112.39,116.13,8
109,112.32,116.06,8
109,112.25,115.99,8
109,112.19,115.92,8
109,112.12,115.85,8
109,112.06,115.78,8
109,112.00,115.71,8
109,111.94,115.65,8
107,111.84,115.56,8
109,111.78,115.50,8
109,111.73,115.43,8
108,111.65,115.36,8
108,111.58,115.28,8
109,111.53,115.22,8
106,111.42,115.13,8
108,111.35,115.06,8
108,111.28,114.99,8
107,111.20,114.91,8
108,111.13,114.84,8
108,111.07,114.77,8
107,110.99,114.69,8
108,110.93,114.62,8
108,110.87,114.56,8
107,110.79,114.48,8
108,110.74,114.42,8
107,110.66,114.34,8
107,110.59,114.27,8
108,110.54,114.21,8
109,110.51,114.16,8
108,110.46,114.09,8
108,110.41,114.03,8
108,110.36,113.97,8
107,110.29,113.90,8
108,110.25,113.84,8
107,110.18,113.78,8
108,110.14,113.72,8
108,110.10,113.66,8
108,110.05,113.60,8
108,110.01,113.55,8
108,109.97,113.49,8
107,109.91,113.43,8
109,109.89,113.38,8
109,109.88,113.34,8
108,109.84,113.29,8
107,109.78,113.22,8
108,109.75,113.17,8
107,109.69,113.11,8
109,109.68,113.07,8
109,109.66,113.03,8
108,109.63,112.98,8
109,109.62,112.94,8
109,109.61,112.90,8
109,109.59,112.86,8
110,109.60,112.83,8
109,109.59,112.79,8
109,109.58,112.75,8
109,109.57,112.72,8
109,109.56,112.68,8
110,109.56,112.65,8
109,109.55,112.62,8
109,109.54,112.58,8
109,109.53,112.54,8
109,109.52,112.51,8
107,109.47,112.45,8
108,109.44,112.41,8
108,109.41,112.36,8
107,109.36,112.31,8
108,109.34,112.27,8
109,109.33,112.24,8
107,109.28,112.18,8
108,109.26,112.14,8
107,109.21,112.09,8
107,109.17,112.04,8
108,109.14,112.00,8
107,109.10,111.95,8
107,109.06,111.90,8
108,109.04,111.86,8
108,109.02,111.82,8
107,108.98,111.77,8
108,108.96,111.74,8
107,108.92,111.69,8
108,108.90,111.65,8
109,108.90,111.62,8
109,108.90,111.60,8
108,108.89,111.56,8
109,108.89,111.54,8
108,108.87,111.50,8
109,108.87,111.48,8
107,108.84,111.43,8
108,108.82,111.40,8
108,108.80,111.36,8
108,108.79,111.33,8
111,108.83,111.33,8
108,108.81,111.29,8
109,108.82,111.27,8
107,108.78,111.23,8
108,108.77,111.20,8
108,108.75,111.16,8
109,108.76,111.14,8
109,108.76,111.12,8
109,108.77,111.10,8
107,108.73,111.06,8
108,108.72,111.03,8
109,108.72,111.01,8
109,108.73,110.99,8
109,108.73,110.97,8
109,108.74,110.95,8
110,108.76,110.94,8
106,108.71,110.89,8
109,108.71,110.87,8
108,108.70,110.84,8
109,108.71,110.82,8
109,108.71,110.80,8
109,108.72,110.79,8
109,108.72,110.77,8
110,108.75,110.76,8
109,108.75,110.74,8
111,108.80,110.75,8
110,108.82,110.74,8
109,108.83,110.72,8
111,108.87,110.72,8
111,108.91,110.73,8
111,108.95,110.73,8
111,108.99,110.73,8
110,109.01,110.72,8
110,109.03,110.72,8
109,109.03,110.70,8
110,109.05,110.69,8
111,109.09,110.70,8
109,109.09,110.68,8
110,109.11,110.67,8
110,109.13,110.67,8
109,109.12,110.65,8
109,109.12,110.63,8
111,109.16,110.64,8
109,109.16,110.62,8
109,109.15,110.60,8
109,109.15,110.59,8
110,109.17,110.58,8
111,109.20,110.59,8
110,109.22,110.58,8
109,109.21,110.56,8
109,109.21,110.55,8
109,109.21,110.53,8
109,109.20,110.52,8
110,109.22,110.51,8
109,109.21,110.50,8
112,109.27,110.51,8
109,109.26,110.50,8
109,109.26,110.48,8
109,109.25,110.47,8
109,109.25,110.45,8
109,109.24,110.44,8
108,109.22,110.41,8
109,109.21,110.40,8
109,109.21,110.39,8
109,109.21,110.37,8
109,109.20,110.36,8
109,109.20,110.34,8
109,109.19,110.33,8
109,109.19,110.32,8
109,109.19,110.30,8
110,109.20,110.30,8
110,109.22,110.30,8
110,109.23,110.30,8
109,109.23,110.28,8
109,109.22,110.27,8
109,109.22,110.26,8
109,109.22,110.24,8
109,109.21,110.23,8
110,109.23,110.23,8
109,109.22,110.22,8
111,109.26,110.23,8
109,109.25,110.21,8
109,109.25,110.20,8
109,109.24,110.19,8
109,109.24,110.18,8
109,109.23,110.17,8
109,109.23,110.15,8
110,109.24,110.15,8
109,109.24,110.14,8
109,109.23,110.13,8
108,109.21,110.11,8
109,109.21,110.10,8
109,109.20,110.09,8
108,109.18,110.07,8
109,109.17,110.05,8
108,109.15,110.03,8
109,109.15,110.02,8
108,109.12,110.00,8
108,109.10,109.98,8
108,109.08,109.96,8
108,109.06,109.94,8
108,109.04,109.92,8
109,109.04,109.92,8
109,109.04,109.91,8
109,109.04,109.90,8
108,109.01,109.88,8
107,108.97,109.85,8
107,108.93,109.82,8
108,108.92,109.80,8
108,108.90,109.78,8
109,108.90,109.78,8
108,108.88,109.76,8
109,108.88,109.75,8
107,108.85,109.72,8
109,108.85,109.72,8
109,108.85,109.71,8
109,108.86,109.70,8
108,108.84,109.69,8
107,108.80,109.66,8
108,108.79,109.64,8
108,108.77,109.63,8
108,108.75,109.61,8
107,108.72,109.58,8
109,108.72,109.58,8
107,108.69,109.55,8
108,108.68,109.54,8
108,108.66,109.52,8
108,108.65,109.51,8
107,108.62,109.48,8
107,108.58,109.46,8
107,108.55,109.43,8
108,108.54,109.42,8
108,108.53,109.40,8
108,108.52,109.39,8
109,108.53,109.38,8
107,108.50,109.36,8
109,108.51,109.36,8
109,108.52,109.35,8
109,108.53,109.35,8
109,108.54,109.35,8
109,108.55,109.34,8
109,108.56,109.34,8
109,108.57,109.34,8
109,108.57,109.33,8
109,108.58,109.33,8
109,108.59,109.33,8
109,108.60,109.32,8
109,108.61,109.32,8
109,108.61,109.32,8
110,108.64,109.32,8
109,108.65,109.32,8
109,108.66,109.32,8
110,108.68,109.32,8
109,108.69,109.32,8
109,108.70,109.32,8
109,108.70,109.31,8
110,108.73,109.32,8
110,108.75,109.33,8
110,108.78,109.33,8
111,108.82,109.35,8
113,108.91,109.39,8
115,109.03,109.44,8
113,109.11,109.48,8
113,109.19,109.51,8
113,109.26,109.55,8
113,109.34,109.58,8
113,109.41,109.62,8
114,109.50,109.66,8
114,109.59,109.71,8
116,109.72,109.77,8
114,109.81,109.81,8
114,109.89,109.85,8
113,109.95,109.88,8
114,110.03,109.93,8
115,110.13,109.98,8
114,110.21,110.02,8
114,110.29,110.06,8
116,110.40,110.12,8
116,110.51,110.17,8
115,110.60,110.22,8
115,110.69,110.27,8
115,110.78,110.32,8
115,110.86,110.36,8
116,110.96,110.42,8
116,111.06,110.48,8
115,111.14,110.52,8
115,111.22,110.57,8
115,111.30,110.61,8
115,111.37,110.65,8
113,111.40,110.68,8
114,111.45,110.71,8
115,111.52,110.75,8
115,111.59,110.80,8
115,111.66,110.84,8
115,111.73,110.88,8
114,111.77,110.91,8
115,111.84,110.95,8
113,111.86,110.97,8
115,111.92,111.01,8
115,111.99,111.05,8
116,112.07,111.10,8
117,112.17,111.16,8
115,112.22,111.20,8
116,112.30,111.25,8
113,112.31,111.27,8
116,112.39,111.31,8
118,112.50,111.38,8
118,112.61,111.45,8
117,112.70,111.50,8
118,112.80,111.57,8
117,112.89,111.62,8
118,112.99,111.68,8
117,113.07,111.74,8
117,113.15,111.79,8
120,113.28,111.87,8
119,113.40,111.94,8
119,113.51,112.01,8
118,113.60,112.07,8
120,113.73,112.15,8
120,113.85,112.23,8
120,113.98,112.31,8
120,114.10,112.39,8
120,114.22,112.46,8
121,114.35,112.55,8
121,114.48,112.63,8
123,114.65,112.74,8
125,114.86,112.86,8
125,115.06,112.98,8
125,115.26,113.10,8
125,115.46,113.22,8
128,115.71,113.37,8
129,115.97,113.52,8
128,116.21,113.67,8
129,116.47,113.82,8
129,116.72,113.97,8
131,117.01,114.14,8
132,117.31,114.32,8
134,117.64,114.52,8
132,117.93,114.69,8
133,118.23,114.88,8
133,118.52,115.06,8
133,118.81,115.24,8
133,119.10,115.42,8
133,119.38,115.59,8
133,119.65,115.77,8
133,119.92,115.94,8
133,120.18,116.11,8
132,120.41,116.27,8
133,120.66,116.43,8
131,120.87,116.58,8
131,121.07,116.72,8
131,121.27,116.87,8
133,121.51,117.03,8
133,121.74,117.19,8
134,121.98,117.36,8
133,122.20,117.51,8
135,122.46,117.69,8
135,122.71,117.86,8
134,122.94,118.02,8
131,123.10,118.15,8
134,123.31,118.31,8
133,123.51,118.46,8
135,123.74,118.62,8
136,123.98,118.80,8
136,124.22,118.97,8
136,124.46,119.14,8
136,124.69,119.31,8
140,125.00,119.51,8
137,125.24,119.69,8
137,125.47,119.86,8
140,125.76,120.06,8
139,126.03,120.25,8
139,126.29,120.44,8
141,126.58,120.65,8
141,126.87,120.85,8
141,127.15,121.05,8
143,127.47,121.27,8
141,127.74,121.47,8
142,128.02,121.67,8
142,128.30,121.88,8
143,128.60,122.09,8
144,128.91,122.31,8
143,129.19,122.51,8
143,129.46,122.72,8
143,129.73,122.92,8
143,130.00,123.12,8
144,130.28,123.33,8
145,130.57,123.55,8
145,130.86,123.76,8
149,131.23,124.01,8
151,131.62,124.28,8
151,132.01,124.55,8
151,132.39,124.82,8
153,132.80,125.10,8
156,133.26,125.41,8
155,133.70,125.70,8
155,134.13,126.00,8
155,134.54,126.29,8
159,135.03,126.61,8
156,135.45,126.91,8
155,135.84,127.19,8
155,136.23,127.47,8
157,136.64,127.76,8
158,137.07,128.06,8
157,137.47,128.35,8
157,137.86,128.64,8
157,138.24,128.92,8
157,138.62,129.20,8
157,138.98,129.48,8
159,139.38,129.78,8
163,139.86,130.11,8
162,140.30,130.43,8
161,140.71,130.73,8
161,141.12,131.04,8
161,141.52,131.34,8
165,141.99,131.67,8
165,142.45,132.01,8
164,142.88,132.33,8
163,143.28,132.63,8
163,143.67,132.94,8
165,144.10,133.26,8
164,144.50,133.56,8
165,144.91,133.88,8
166,145.33,134.20,8
167,145.76,134.53,8
167,146.19,134.85,8
165,146.56,135.15,8
167,146.97,135.47,8
167,147.37,135.79,8
168,147.79,136.11,8
167,148.17,136.42,8
169,148.59,136.74,8
168,148.98,137.06,8
168,149.36,137.37,8
168,149.73,137.67,8
170,150.13,138.00,8
168,150.49,138.30,8
169,150.86,138.60,8
170,151.24,138.92,8
171,151.64,139.24,8
169,151.99,139.54,8
169,152.33,139.83,8
169,152.66,140.12,8
171,153.03,140.43,8
171,153.39,140.74,8
171,153.74,141.04,8
171,154.08,141.34,8
171,154.42,141.64,8
171,154.75,141.93,8
170,155.06,142.21,8
171,155.38,142.50,8
171,155.69,142.78,8
172,156.02,143.08,8
175,156.40,143.39,8
171,156.69,143.67,8
172,156.99,143.95,8
172,157.29,144.23,8
172,157.59,144.51,8
171,157.86,144.78,8
171,158.12,145.04,8
172,158.40,145.31,8
174,158.71,145.60,8
175,159.04,145.89,8
175,159.35,146.18,8
175,159.67,146.47,8
177,160.01,146.77,8
176,160.33,147.07,8
177,160.67,147.37,8
176,160.97,147.65,8
176,161.27,147.94,8
176,161.57,148.22,8
177,161.88,148.50,8
176,162.16,148.78,8
177,162.46,149.06,8
177,162.75,149.34,8
180,163.09,149.65,8
177,163.37,149.92,8
181,163.72,150.23,8
181,164.07,150.54,8
179,164.37,150.82,8
181,164.70,151.13,8
181,165.03,151.42,8
182,165.37,151.73,8
180,165.66,152.01,8
181,165.97,152.30,8
180,166.25,152.58,8
181,166.54,152.86,8
180,166.81,153.14,8
180,167.07,153.40,8
180,167.33,153.67,8
180,167.59,153.93,8
179,167.81,154.18,8
181,168.08,154.45,8
180,168.32,154.71,8
180,168.55,154.96,8
179,168.76,155.20,8
181,169.00,155.46,8
182,169.26,155.72,8
182,169.52,155.99,8
181,169.75,156.24,8
183,170.01,156.50,8
184,170.29,156.78,8
183,170.55,157.04,8
184,170.82,157.31,8
185,171.10,157.59,8
185,171.38,157.86,8
187,171.69,158.15,8
187,172.00,158.44,8
183,172.22,158.69,8
187,172.51,158.97,8
186,172.78,159.24,8
187,173.07,159.52,8
189,173.39,159.81,8
189,173.70,160.11,8
188,173.98,160.38,8
191,174.32,160.69,8
191,174.66,160.99,8
190,174.96,161.28,8
189,175.24,161.56,8
189,175.52,161.84,8
191,175.83,162.13,8
191,176.13,162.42,8
192,176.45,162.71,8
190,176.72,162.98,8
191,177.01,163.26,8
190,177.27,163.53,8
190,177.52,163.80,8
189,177.75,164.05,8
189,177.98,164.30,8
189,178.20,164.55,8
190,178.43,164.80,8
189,178.64,165.04,8
190,178.87,165.29,8
189,179.07,165.53,8
191,179.31,165.78,8
192,179.57,166.05,8
193,179.83,166.31,8
192,180.08,166.57,8
192,180.32,166.83,8
191,180.53,167.07,8
192,180.76,167.32,8
193,181.00,167.57,8
191,181.20,167.81,8
192,181.42,168.05,8
191,181.61,168.28,8
191,181.80,168.51,8
189,181.94,168.71,8
193,182.16,168.95,8
190,182.32,169.17,8
190,182.47,169.37,8
191,182.65,169.59,8
190,182.79,169.79,8
189,182.92,169.99,8
189,183.04,170.18,8
189,183.16,170.36,8
189,183.27,170.55,8
189,183.39,170.74,8
187,183.46,170.90,8
188,183.55,171.07,8
187,183.62,171.23,8
187,183.69,171.39,8
189,183.79,171.56,8
187,183.86,171.72,8
187,183.92,171.87,8
188,184.00,172.03,8
186,184.04,172.17,8
186,184.08,172.31,8
186,184.12,172.45,8
185,184.14,172.57,8
187,184.20,172.72,8
186,184.23,172.85,8
185,184.25,172.97,8
185,184.26,173.09,8
185,184.28,173.21,8
185,184.29,173.33,8
185,184.31,173.44,8
184,184.30,173.55,8
184,184.29,173.65,8
185,184.31,173.77,8
185,184.32,173.88,8
184,184.31,173.98,8
184,184.31,174.08,8
183,184.28,174.17,8
183,184.26,174.26,8
183,184.23,174.35,8
183,184.21,174.43,8
182,184.16,174.51,8
182,184.12,174.58,8
181,184.06,174.65,8
181,184.00,174.71,8
181,183.94,174.77,8
181,183.88,174.84,8
181,183.82,174.90,8
181,183.76,174.96,8
180,183.69,175.01,8
180,183.61,175.06,8
181,183.56,175.12,8
180,183.49,175.17,8
181,183.44,175.23,8
180,183.37,175.27,8
180,183.30,175.32,8
180,183.24,175.37,8
179,183.15,175.40,8
179,183.07,175.44,8
178,182.97,175.47,8
179,182.89,175.50,8
178,182.79,175.53,8
177,182.68,175.54,8
177,182.56,175.55,8
177,182.45,175.57,8
177,182.34,175.58,8
176,182.22,175.59,8
176,182.09,175.59,8
177,181.99,175.61,8
175,181.85,175.60,8
176,181.73,175.60,8
175,181.60,175.60,8
175,181.47,175.59,8
173,181.30,175.57,8
175,181.17,175.56,8
174,181.03,175.54,8
174,180.89,175.53,8
173,180.73,175.50,8
173,180.57,175.48,8
173,180.42,175.45,8
173,180.27,175.43,8
173,180.13,175.41,8
173,179.99,175.38,8
173,179.85,175.36,8
173,179.71,175.33,8
172,179.56,175.30,8
172,179.40,175.27,8
171,179.24,175.22,8
172,179.09,175.19,8
171,178.93,175.15,8
171,178.77,175.11,8
171,178.62,175.07,8
171,178.46,175.03,8
171,178.31,174.99,8
170,178.15,174.94,8
170,177.99,174.89,8
170,177.83,174.84,8
169,177.65,174.78,8
170,177.50,174.73,8
169,177.33,174.68,8
169,177.16,174.62,8
169,177.00,174.56,8
169,176.84,174.51,8
168,176.66,174.44,8
168,176.49,174.38,8
168,176.32,174.31,8
167,176.13,174.24,8
168,175.97,174.18,8
167,175.79,174.11,8
167,175.61,174.04,8
167,175.44,173.96,8
167,175.27,173.90,8
167,175.11,173.83,8
166,174.92,173.75,8
167,174.77,173.68,8
167,174.61,173.61,8
166,174.44,173.54,8
165,174.25,173.45,8
165,174.06,173.37,8
165,173.88,173.28,8
165,173.71,173.20,8
165,173.53,173.12,8
163,173.32,173.02,8
166,173.17,172.95,8
164,172.99,172.86,8
164,172.81,172.77,9
165,172.65,172.69,9
163,172.46,172.60,9
164,172.29,172.51,9
163,172.11,172.41,9
163,171.92,172.32,9
163,171.75,172.23,9
163,171.57,172.13,9
164,171.42,172.05,9
164,171.27,171.97,9
163,171.11,171.88,9
162,170.92,171.78,9
163,170.77,171.70,9
162,170.59,171.60,9
163,170.44,171.51,9
163,170.29,171.43,9
162,170.12,171.33,9
162,169.96,171.24,9
161,169.78,171.14,9
161,169.61,171.04,9
162,169.45,170.95,9
161,169.29,170.85,9
161,169.12,170.75,9
161,168.96,170.65,9
161,168.80,170.55,9
161,168.64,170.46,9
164,168.55,170.39,9
159,168.36,170.28,9
160,168.19,170.18,9
160,168.03,170.08,9
161,167.89,169.99,9
159,167.71,169.88,9
160,167.55,169.78,9
160,167.40,169.68,9
160,167.26,169.58,9
159,167.09,169.48,9
159,166.93,169.37,9
159,166.77,169.27,9
159,166.61,169.16,9
159,166.46,169.06,9
158,166.29,168.95,9
157,166.11,168.83,9
155,165.89,168.69,9
157,165.71,168.58,9
157,165.53,168.46,9
157,165.36,168.35,9
157,165.20,168.23,9
158,165.05,168.13,9
157,164.89,168.02,9
157,164.73,167.91,9
157,164.58,167.80,9
157,164.43,167.69,9
157,164.28,167.59,9
158,164.15,167.49,9
157,164.01,167.39,9
156,163.85,167.27,9
157,163.71,167.17,9
157,163.58,167.07,9
157,163.45,166.97,9
155,163.28,166.85,9
156,163.13,166.74,9
156,162.99,166.63,9
157,162.87,166.53,9
155,162.71,166.42,9
156,162.58,166.32,9
155,162.43,166.20,9
155,162.28,166.09,9
156,162.15,165.99,9
155,162.01,165.88,9
156,161.89,165.78,9
155,161.75,165.67,9
155,161.62,165.57,9
154,161.46,165.45,9
153,161.29,165.33,9
154,161.15,165.21,9
155,161.03,165.11,9
154,160.89,165.00,9
154,160.75,164.89,9
153,160.59,164.77,9
154,160.46,164.66,9
153,160.31,164.55,9
156,160.23,164.46,9
153,160.08,164.35,9
153,159.94,164.23,9
153,159.80,164.12,9
153,159.66,164.01,9
154,159.55,163.91,9
153,159.42,163.80,9
153,159.29,163.69,9
153,159.17,163.58,9
153,159.04,163.48,9
152,158.90,163.36,9
152,158.76,163.25,9
152,158.63,163.14,9
152,158.50,163.03,9
151,158.35,162.91,9
152,158.22,162.80,9
151,158.07,162.68,9
151,157.93,162.56,9
151,157.79,162.45,9
150,157.64,162.32,9
150,157.49,162.20,9
150,157.34,162.08,9
150,157.19,161.96,9
151,157.07,161.85,9
151,156.94,161.74,9
150,156.81,161.62,9
151,156.69,161.51,9
151,156.58,161.41,9
151,156.46,161.31,9
150,156.33,161.19,9
151,156.23,161.09,9
151,156.12,160.99,9
151,156.02,160.89,9
151,155.92,160.79,9
149,155.78,160.67,9
149,155.65,160.56,9
151,155.55,160.46,9
151,155.46,160.37,9
150,155.35,160.26,9
149,155.23,160.15,9
149,155.10,160.04,9
149,154.98,159.93,9
149,154.86,159.82,9
150,154.76,159.72,9
148,154.63,159.60,9
148,154.50,159.49,9
148,154.37,159.37,9
148,154.24,159.26,9
147,154.09,159.14,9
148,153.97,159.02,9
147,153.83,158.90,9
148,153.72,158.80,9
148,153.60,158.69,9
148,153.49,158.58,9
147,153.36,158.46,9
148,153.25,158.36,9
147,153.13,158.25,9
147,153.00,158.13,9
147,152.88,158.02,9
147,152.77,157.91,9
147,152.65,157.80,9
146,152.52,157.69,9
147,152.41,157.58,9
146,152.28,157.46,9
145,152.13,157.34,9
145,151.99,157.21,9
145,151.85,157.09,9
146,151.73,156.98,9
147,151.64,156.88,9
145,151.51,156.76,9
147,151.42,156.67,9
145,151.29,156.55,9
145,151.16,156.43,9
145,151.04,156.32,9
145,150.92,156.21,9
145,150.80,156.09,9
145,150.68,155.98,9
145,150.57,155.87,9
149,150.54,155.80,9
147,150.47,155.72,9
146,150.38,155.62,9
145,150.27,155.51,9
147,150.21,155.43,9
147,150.14,155.34,9
147,150.08,155.26,9
148,150.04,155.19,9
147,149.98,155.11,9
148,149.94,155.03,9
147,149.88,154.95,9
147,149.82,154.87,9
145,149.72,154.78,9
146,149.65,154.69,9
146,149.58,154.60,9
146,149.51,154.52,9
148,149.48,154.45,9
145,149.39,154.36,9
145,149.30,154.26,9
145,149.21,154.17,9
145,149.13,154.08,9
145,149.05,153.99,9
146,148.98,153.91,9
145,148.90,153.82,9
146,148.85,153.74,9
145,148.77,153.65,9
145,148.69,153.57,9
145,148.62,153.48,9
145,148.55,153.40,9
145,148.48,153.31,9
147,148.45,153.25,9
145,148.38,153.17,9
144,148.29,153.07,9
145,148.23,152.99,9
146,148.18,152.92,9
147,148.16,152.86,9
146,148.11,152.80,9
146,148.07,152.73,9
146,148.03,152.66,9
145,147.97,152.58,9
145,147.91,152.51,9
145,147.85,152.43,9
145,147.80,152.36,9
145,147.74,152.28,9
146,147.70,152.22,9
145,147.65,152.15,9
145,147.60,152.08,9
146,147.57,152.02,9
145,147.51,151.95,9
145,147.46,151.88,9
145,147.41,151.81,9
145,147.37,151.74,9
145,147.32,151.67,9
143,147.23,151.59,9
144,147.17,151.51,9
144,147.10,151.44,9
145,147.06,151.37,9
144,147.00,151.30,9
143,146.92,151.21,9
144,146.86,151.14,9
143,146.79,151.06,9
144,146.73,150.99,9
144,146.68,150.92,9
143,146.60,150.84,9
145,146.57,150.78,9
144,146.52,150.72,9
144,146.47,150.65,9
144,146.42,150.58,9
143,146.35,150.51,9
144,146.30,150.44,9
144,146.26,150.38,9
148,146.29,150.35,9
143,146.23,150.28,9
144,146.18,150.22,9
144,146.14,150.15,9
145,146.12,150.10,9
143,146.05,150.03,9
143,145.99,149.96,9
144,145.95,149.90,9
145,145.93,149.85,9
144,145.89,149.79,9
144,145.86,149.74,9
143,145.80,149.67,9
143,145.74,149.60,9
143,145.69,149.54,9
143,145.63,149.47,9
143,145.58,149.41,9
143,145.53,149.34,9
143,145.48,149.28,9
143,145.43,149.22,9
143,145.38,149.15,9
143,145.33,149.09,9
143,145.29,149.03,9
143,145.24,148.97,9
144,145.22,148.92,9
143,145.17,148.86,9
143,145.13,148.80,9
143,145.09,148.75,9
143,145.04,148.69,9
142,144.98,148.62,9
142,144.92,148.55,9
142,144.87,148.49,9
142,144.81,148.42,9
143,144.77,148.37,9
142,144.72,148.31,9
141,144.64,148.23,9
141,144.57,148.16,9
141,144.50,148.09,9
140,144.41,148.01,9
141,144.34,147.94,9
140,144.25,147.86,9
141,144.19,147.79,9
140,144.10,147.71,9
141,144.04,147.65,9
140,143.96,147.57,9
140,143.88,147.49,9
140,143.80,147.42,9
141,143.75,147.35,9
139,143.65,147.27,9
140,143.58,147.20,9
140,143.51,147.13,9
139,143.42,147.04,9
141,143.37,146.98,9
139,143.28,146.90,9
140,143.22,146.84,9
140,143.15,146.77,9
140,143.09,146.70,9
140,143.03,146.63,9
140,142.97,146.57,9
139,142.89,146.49,9
141,142.85,146.44,9
140,142.79,146.37,9
140,142.74,146.31,9
140,142.68,146.24,9
139,142.61,146.17,9
140,142.56,146.11,9
141,142.53,146.06,9
140,142.48,146.00,9
140,142.43,145.94,9
140,142.38,145.88,9
140,142.33,145.82,9
140,142.28,145.76,9
140,142.24,145.70,9
140,142.19,145.65,9
139,142.13,145.58,9
141,142.11,145.53,9
140,142.06,145.48,9
140,142.02,145.42,9
139,141.96,145.36,9
140,141.92,145.31,9
141,141.90,145.26,9
141,141.89,145.22,9
140,141.85,145.17,9
141,141.83,145.13,9
141,141.82,145.09,9
141,141.80,145.05,9
141,141.78,145.00,9
141,141.77,144.96,9
142,141.77,144.94,9
141,141.76,144.90,9
141,141.74,144.86,9
141,141.73,144.82,9
141,141.71,144.78,9
141,141.70,144.74,9
141,141.68,144.70,9
142,141.69,144.68,9
140,141.66,144.63,9
139,141.60,144.57,9
143,141.63,144.56,9
141,141.62,144.52,9
141,141.61,144.49,9
141,141.59,144.45,9
141,141.58,144.42,9
142,141.59,144.39,9
141,141.58,144.36,9
141,141.57,144.33,9
141,141.56,144.29,9
141,141.54,144.26,9
141,141.53,144.23,9
141,141.52,144.20,9
141,141.51,144.16,9
137,141.42,144.09,9
142,141.43,144.07,9
143,141.47,144.06,9
141,141.46,144.03,9
143,141.49,144.02,9
141,141.48,143.99,9
142,141.49,143.97,9
142,141.50,143.95,9
142,141.51,143.93,9
142,141.52,143.91,9
142,141.53,143.89,9
141,141.52,143.86,9
142,141.53,143.84,9
141,141.52,143.82,9
141,141.51,143.79,9
141,141.50,143.76,9
141,141.49,143.73,9
141,141.48,143.71,9
141,141.47,143.68,9
141,141.46,143.65,9
141,141.45,143.62,9
141,141.44,143.60,9
141,141.43,143.57,9
141,141.42,143.55,9
141,141.41,143.52,9
141,141.41,143.50,9
141,141.40,143.47,9
141,141.39,143.45,9
141,141.38,143.42,9
141,141.37,143.40,9
141,141.37,143.37,9
141,141.36,143.35,9
140,141.33,143.32,9
141,141.33,143.29,9
142,141.34,143.28,9
141,141.33,143.26,9
140,141.31,143.23,9
141,141.30,143.20,9
141,141.29,143.18,9
141,141.29,143.16,9
141,141.28,143.14,9
141,141.28,143.12,9
142,141.29,143.10,9
141,141.28,143.08,9
141,141.28,143.06,9
141,141.27,143.04,9
141,141.27,143.02,9
141,141.26,143.00,9
141,141.26,142.98,9
140,141.23,142.95,9
141,141.23,142.93,9
141,141.22,142.91,9
141,141.22,142.89,9
141,141.21,142.88,9
140,141.19,142.85,9
140,141.17,142.82,9
141,141.16,142.80,9
141,141.16,142.78,9
141,141.16,142.76,9
141,141.15,142.75,9
141,141.15,142.73,9
141,141.15,142.71,9
141,141.14,142.69,9
141,141.14,142.68,9
141,141.14,142.66,9
141,141.14,142.64,9
141,141.13,142.63,9
141,141.13,142.61,9
141,141.13,142.60,9
141,141.13,142.58,9
141,141.12,142.56,9
141,141.12,142.55,9
141,141.12,142.53,9
139,141.08,142.50,9
142,141.09,142.49,9
141,141.09,142.48,9
141,141.09,142.46,9
141,141.09,142.45,9
141,141.09,142.43,9
141,141.09,142.42,9
142,141.10,142.41,9
143,141.14,142.42,9
141,141.14,142.41,9
141,141.14,142.39,9
141,141.13,142.38,9
141,141.13,142.36,9
141,141.13,142.35,9
141,141.13,142.34,9
141,141.12,142.32,9
143,141.16,142.33,9
141,141.16,142.32,9
143,141.19,142.32,9
142,141.21,142.32,9
141,141.21,142.31,9
141,141.20,142.29,9
141,141.20,142.28,9
141,141.19,142.27,9
141,141.19,142.26,9
141,141.19,142.24,9
142,141.20,142.24,9
141,141.20,142.23,9
141,141.19,142.22,9
141,141.19,142.20,9
141,141.19,142.19,9
141,141.18,142.18,9
142,141.20,142.18,9
141,141.20,142.17,9
141,141.19,142.16,9
143,141.23,142.16,9
141,141.22,142.15,9
142,141.24,142.15,9
141,141.23,142.14,9
142,141.25,142.14,9
142,141.26,142.14,9
142,141.28,142.14,9
141,141.27,142.12,9
142,141.29,142.12,9
142,141.30,142.12,9
142,141.32,142.12,9
141,141.31,142.11,9
141,141.30,142.10,9
143,141.34,142.11,9
142,141.35,142.11,9
143,141.38,142.11,9
141,141.38,142.10,9
142,141.39,142.10,9
141,141.38,142.09,9
141,141.37,142.08,9
141,141.37,142.07,9
142,141.38,142.07,9
142,141.39,142.07,9
142,141.40,142.07,9
143,141.44,142.08,9
141,141.43,142.07,9
141,141.42,142.06,9
142,141.43,142.06,9
142,141.44,142.05,9
143,141.47,142.06,9
142,141.48,142.06,9
141,141.47,142.05,9
143,141.50,142.06,9
143,141.53,142.07,9
143,141.56,142.08,9
141,141.55,142.07,9
142,141.56,142.07,9
143,141.59,142.08,9
144,141.64,142.10,9
143,141.66,142.11,9
143,141.69,142.12,9
141,141.68,142.10,9
143,141.70,142.11,9
143,141.73,142.12,9
143,141.76,142.13,9
142,141.76,142.13,9
143,141.79,142.14,9
143,141.81,142.15,9
143,141.83,142.16,9
143,141.86,142.16,9
143,141.88,142.17,9
143,141.90,142.18,9
143,141.92,142.19,9
144,141.97,142.21,9
143,141.99,142.21,9
145,142.05,142.24,9
143,142.07,142.25,9
143,142.08,142.26,9
143,142.10,142.27,9
143,142.12,142.27,9
143,142.14,142.28,9
143,142.16,142.29,9
143,142.17,142.29,10
142,142.17,142.29,10
142,142.17,142.29,11
143,142.18,142.30,11
143,142.20,142.30,12
143,142.21,142.31,12
143,142.23,142.32,13
143,142.25,142.32,13
143,142.26,142.33,14
143,142.28,142.34,14
143,142.29,142.34,15
143,142.30,142.35,15
143,142.32,142.36,16
143,142.33,142.36,16
143,142.35,142.37,17
144,142.38,142.39,17
143,142.39,142.39,18
143,142.40,142.40,18
142,142.39,142.39,19
143,142.41,142.40,19
143,142.42,142.41,20
143,142.43,142.41,20
143,142.44,142.42,21
143,142.45,142.42,21
143,142.46,142.43,22
143,142.47,142.43,22
143,142.49,142.44,23
143,142.50,142.45,23
143,142.51,142.45,24
143,142.52,142.46,24
144,142.55,142.47,25
143,142.55,142.48,25
143,142.56,142.48,26
142,142.55,142.48,26
143,142.56,142.48,27
143,142.57,142.49,27
143,142.58,142.49,28
143,142.59,142.50,28
143,142.59,142.50,29
143,142.60,142.51,29
143,142.61,142.51,30
143,142.62,142.52,30
143,142.63,142.52,31
144,142.65,142.54,31
143,142.66,142.54,32
143,142.67,142.55,32
142,142.65,142.54,33
143,142.66,142.55,33
143,142.67,142.55,34
143,142.67,142.56,34
141,142.64,142.54,35
