Teste de posicionamento 3(EMG tendao-inervacao (Vermelho A, Verde C) + Ref no pulso) - 19/10/2024 - teste9 - 5 contrações
long frequencia = 1000;                 //frequência de aquisição do sinal, neste caso, 1000 sinais por segundo
float fator1 = 0.02, fator2 = 0.01;
float incerteza = 0.13;
float pico_basal = 130; // Mínimo para ser considerado um pico de contração
int filtro_horizontal=200000; //intervalo de 200ms valores não pode ter mais de 1 contração

Biceps_D,mediaMovel_1,mediaMovel_2,Contracao
102,2.04,1.02,0
102,4.04,2.03,0
102,6.00,3.03,0
101,7.90,4.01,0
102,9.78,4.99,0
101,11.60,5.95,0
101,13.39,6.90,0
102,15.16,7.85,0
102,16.90,8.79,0
102,18.60,9.72,0
102,20.27,10.65,0
102,21.91,11.56,0
102,23.51,12.46,0
103,25.10,13.37,0
101,26.62,14.25,0
101,28.10,15.11,0
101,29.56,15.97,0
101,30.99,16.82,0
101,32.39,17.67,0
101,33.76,18.50,0
101,35.11,19.32,0
101,36.43,20.14,0
101,37.72,20.95,0
103,39.02,21.77,0
104,40.32,22.59,0
101,41.54,23.38,0
101,42.72,24.15,0
101,43.89,24.92,0
101,45.03,25.68,0
101,46.15,26.43,0
100,47.23,27.17,0
101,48.30,27.91,0
100,49.34,28.63,0
101,50.37,29.35,0
101,51.38,30.07,0
101,52.38,30.78,0
101,53.35,31.48,0
103,54.34,32.20,0
102,55.29,32.89,0
101,56.21,33.58,0
100,57.08,34.24,0
99,57.92,34.89,0
99,58.74,35.53,0
99,59.55,36.16,0
100,60.36,36.80,0
101,61.17,37.44,0
100,61.95,38.07,0
100,62.71,38.69,0
100,63.46,39.30,0
101,64.21,39.92,0
99,64.90,40.51,0
101,65.62,41.11,0
100,66.31,41.70,0
100,66.99,42.29,0
100,67.65,42.86,0
100,68.29,43.43,0
100,68.93,44.00,0
99,69.53,44.55,0
100,70.14,45.10,0
99,70.71,45.64,0
100,71.30,46.19,0
98,71.83,46.71,0
100,72.40,47.24,0
99,72.93,47.76,0
100,73.47,48.28,0
100,74.00,48.80,0
100,74.52,49.31,0
99,75.01,49.80,0
100,75.51,50.31,0
98,75.96,50.78,0
99,76.42,51.27,0
100,76.89,51.75,0
99,77.34,52.23,0
97,77.73,52.67,0
99,78.15,53.14,0
98,78.55,53.58,0
100,78.98,54.05,0
100,79.40,54.51,0
100,79.81,54.96,0
99,80.20,55.40,0
99,80.57,55.84,0
99,80.94,56.27,0
98,81.28,56.69,0
100,81.66,57.12,0
99,82.00,57.54,0
100,82.36,57.97,0
99,82.70,58.38,0
99,83.02,58.78,0
98,83.32,59.17,0
98,83.62,59.56,0
98,83.90,59.95,0
100,84.22,60.35,0
99,84.52,60.73,0
99,84.81,61.12,0
98,85.07,61.49,0
98,85.33,61.85,0
97,85.57,62.20,0
98,85.81,62.56,0
98,86.06,62.91,0
98,86.30,63.27,0
98,86.53,63.61,0
98,86.76,63.96,0
97,86.97,64.29,0
98,87.19,64.62,0
98,87.40,64.96,0
97,87.59,65.28,0
98,87.80,65.61,0
98,88.01,65.93,0
98,88.21,66.25,0
100,88.44,66.59,0
99,88.65,66.91,0
97,88.82,67.21,0
97,88.98,67.51,0
98,89.16,67.82,0
98,89.34,68.12,0
99,89.53,68.43,0
98,89.70,68.72,0
97,89.85,69.00,0
98,90.01,69.29,0
98,90.17,69.58,0
97,90.31,69.86,0
98,90.46,70.14,0
97,90.59,70.41,0
97,90.72,70.67,0
97,90.85,70.93,0
98,90.99,71.21,0
97,91.11,71.46,0
95,91.19,71.70,0
97,91.30,71.95,0
98,91.44,72.21,0
97,91.55,72.46,0
99,91.70,72.73,0
96,91.78,72.96,0
96,91.87,73.19,0
97,91.97,73.43,0
97,92.07,73.66,0
97,92.17,73.90,0
96,92.25,74.12,0
97,92.34,74.35,0
97,92.44,74.57,0
96,92.51,74.79,0
96,92.58,75.00,0
97,92.66,75.22,0
96,92.73,75.43,0
96,92.80,75.63,0
97,92.88,75.85,0
98,92.98,76.07,0
96,93.04,76.27,0
96,93.10,76.46,0
96,93.16,76.66,0
97,93.24,76.86,0
97,93.31,77.06,0
96,93.37,77.25,0
96,93.42,77.44,0
97,93.49,77.64,0
96,93.54,77.82,0
96,93.59,78.00,0
96,93.64,78.18,0
97,93.71,78.37,0
96,93.75,78.55,0
96,93.80,78.72,0
96,93.84,78.89,0
97,93.90,79.08,0
96,93.95,79.24,0
96,93.99,79.41,0
96,94.03,79.58,0
96,94.07,79.74,0
96,94.11,79.90,0
96,94.14,80.07,0
96,94.18,80.22,0
95,94.20,80.37,0
96,94.23,80.53,0
96,94.27,80.68,0
96,94.30,80.84,0
95,94.32,80.98,0
96,94.35,81.13,0
96,94.38,81.28,0
96,94.42,81.42,0
95,94.43,81.56,0
96,94.46,81.70,0
97,94.51,81.86,0
95,94.52,81.99,0
95,94.53,82.12,0
96,94.56,82.26,0
97,94.61,82.41,0
95,94.62,82.53,0
96,94.64,82.67,0
96,94.67,82.80,0
96,94.70,82.93,0
96,94.72,83.06,0
96,94.75,83.19,0
96,94.77,83.32,0
96,94.80,83.45,0
96,94.82,83.57,0
97,94.87,83.71,0
96,94.89,83.83,0
97,94.93,83.96,0
95,94.93,84.07,0
96,94.95,84.19,0
97,94.99,84.32,0
96,95.01,84.44,0
96,95.03,84.55,0
96,95.05,84.67,0
97,95.09,84.79,0
96,95.11,84.90,0
95,95.11,85.00,0
96,95.13,85.11,0
97,95.16,85.23,0
95,95.16,85.33,0
96,95.18,85.44,0
97,95.21,85.55,0
95,95.21,85.65,0
95,95.20,85.74,0
94,95.18,85.82,0
95,95.18,85.91,0
95,95.17,86.00,0
95,95.17,86.09,0
95,95.17,86.18,0
94,95.14,86.26,0
95,95.14,86.35,0
96,95.16,86.45,0
96,95.17,86.54,0
96,95.19,86.64,0
95,95.19,86.72,0
95,95.18,86.80,0
95,95.18,86.88,0
94,95.16,86.96,0
95,95.15,87.04,0
95,95.15,87.12,0
94,95.13,87.18,0
95,95.12,87.26,0
95,95.12,87.34,0
94,95.10,87.41,0
94,95.08,87.47,0
95,95.08,87.55,0
94,95.05,87.61,0
94,95.03,87.68,0
94,95.01,87.74,0
95,95.01,87.81,0
95,95.01,87.88,0
94,94.99,87.94,0
94,94.97,88.01,0
94,94.95,88.07,0
95,94.95,88.13,0
96,94.97,88.21,0
94,94.96,88.27,0
96,94.98,88.35,0
94,94.96,88.40,0
94,94.94,88.46,0
94,94.92,88.52,0
95,94.92,88.58,0
94,94.90,88.64,0
94,94.88,88.69,0
94,94.87,88.74,0
95,94.87,88.80,0
94,94.85,88.86,0
96,94.87,88.93,0
94,94.86,88.98,0
94,94.84,89.03,0
94,94.82,89.08,0
94,94.81,89.13,0
96,94.83,89.20,0
94,94.81,89.24,0
94,94.80,89.29,0
94,94.78,89.34,0
94,94.77,89.39,0
95,94.77,89.44,0
95,94.78,89.50,0
94,94.76,89.54,0
96,94.78,89.61,0
95,94.79,89.66,0
98,94.85,89.74,0
96,94.88,89.81,0
94,94.86,89.85,0
95,94.86,89.90,0
94,94.84,89.94,0
94,94.83,89.98,0
94,94.81,90.02,0
95,94.81,90.07,0
95,94.82,90.12,0
94,94.80,90.16,0
94,94.79,90.20,0
95,94.79,90.25,0
94,94.77,90.28,0
95,94.78,90.33,0
94,94.76,90.37,0
94,94.75,90.40,0
93,94.71,90.43,0
94,94.70,90.47,0
94,94.68,90.50,0
94,94.67,90.54,0
95,94.68,90.58,0
96,94.70,90.64,0
94,94.69,90.67,0
95,94.70,90.71,0
95,94.70,90.75,0
93,94.67,90.78,0
94,94.65,90.81,0
95,94.66,90.85,0
93,94.63,90.87,0
94,94.62,90.90,0
94,94.60,90.94,0
93,94.57,90.96,0
94,94.56,90.99,0
94,94.55,91.02,0
93,94.52,91.04,0
95,94.53,91.08,0
95,94.54,91.12,0
96,94.57,91.16,0
94,94.55,91.19,0
94,94.54,91.22,0
94,94.53,91.25,0
94,94.52,91.28,0
93,94.49,91.29,0
96,94.52,91.34,0
96,94.55,91.39,0
94,94.54,91.41,0
94,94.53,91.44,0
94,94.52,91.46,0
95,94.53,91.50,0
96,94.56,91.54,0
94,94.55,91.57,0
95,94.56,91.60,0
95,94.56,91.64,0
95,94.57,91.67,0
94,94.56,91.69,0
95,94.57,91.73,0
95,94.58,91.76,0
94,94.57,91.78,0
96,94.60,91.82,0
96,94.62,91.87,0
96,94.65,91.91,0
94,94.64,91.93,0
96,94.67,91.97,0
95,94.67,92.00,0
96,94.70,92.04,0
94,94.69,92.06,0
96,94.71,92.10,0
95,94.72,92.13,0
95,94.72,92.16,0
96,94.75,92.19,0
96,94.77,92.23,0
95,94.78,92.26,0
96,94.80,92.30,0
96,94.83,92.34,0
96,94.85,92.37,0
96,94.87,92.41,0
96,94.90,92.44,0
96,94.92,92.48,0
96,94.94,92.51,0
95,94.94,92.54,0
96,94.96,92.57,0
97,95.00,92.62,0
98,95.06,92.67,0
97,95.10,92.72,0
96,95.12,92.75,0
96,95.14,92.78,0
97,95.17,92.82,0
97,95.21,92.86,0
98,95.27,92.92,0
97,95.30,92.96,0
98,95.36,93.01,0
98,95.41,93.06,0
98,95.46,93.11,0
98,95.51,93.16,0
97,95.54,93.19,0
99,95.61,93.25,0
97,95.64,93.29,0
98,95.68,93.34,0
100,95.77,93.40,0
100,95.86,93.47,0
99,95.92,93.52,0
100,96.00,93.59,0
99,96.06,93.64,0
99,96.12,93.70,0
100,96.20,93.76,0
100,96.27,93.82,0
99,96.33,93.87,0
103,96.46,93.97,0
101,96.55,94.04,0
99,96.60,94.09,0
99,96.65,94.13,0
99,96.70,94.18,0
98,96.72,94.22,0
102,96.83,94.30,0
100,96.89,94.36,0
100,96.95,94.41,0
100,97.01,94.47,0
100,97.07,94.52,0
101,97.15,94.59,0
101,97.23,94.65,0
102,97.32,94.73,0
101,97.40,94.79,0
101,97.47,94.85,0
101,97.54,94.91,0
101,97.61,94.97,0
101,97.68,95.03,0
102,97.76,95.10,0
102,97.85,95.17,0
101,97.91,95.23,0
97,97.89,95.25,0
103,98.00,95.33,0
102,98.08,95.39,0
100,98.11,95.44,0
101,98.17,95.49,0
102,98.25,95.56,0
101,98.30,95.61,0
101,98.36,95.67,0
102,98.43,95.73,0
102,98.50,95.79,0
102,98.57,95.86,0
102,98.64,95.92,0
101,98.69,95.97,0
101,98.73,96.02,0
101,98.78,96.07,0
101,98.82,96.12,0
101,98.87,96.17,0
101,98.91,96.21,0
102,98.97,96.27,0
101,99.01,96.32,0
103,99.09,96.39,0
103,99.17,96.45,0
104,99.27,96.53,0
103,99.34,96.59,0
104,99.43,96.67,0
104,99.53,96.74,0
103,99.60,96.80,0
104,99.68,96.87,0
104,99.77,96.95,0
105,99.87,97.03,0
104,99.96,97.10,0
104,100.04,97.17,0
104,100.12,97.23,0
105,100.21,97.31,0
106,100.33,97.40,0
105,100.42,97.47,0
105,100.52,97.55,0
104,100.58,97.61,0
104,100.65,97.68,0
106,100.76,97.76,0
105,100.84,97.83,0
104,100.91,97.90,0
105,100.99,97.97,0
104,101.05,98.03,0
104,101.11,98.09,0
106,101.21,98.17,0
106,101.30,98.24,0
105,101.38,98.31,0
106,101.47,98.39,0
106,101.56,98.46,0
108,101.69,98.56,0
106,101.77,98.63,0
107,101.88,98.72,0
107,101.98,98.80,0
107,102.08,98.88,0
108,102.20,98.97,0
106,102.28,99.04,0
111,102.45,99.16,0
106,102.52,99.23,0
107,102.61,99.31,0
106,102.68,99.38,0
105,102.73,99.43,0
106,102.79,99.50,0
108,102.90,99.58,0
108,103.00,99.67,0
108,103.10,99.75,0
107,103.18,99.82,0
107,103.25,99.90,0
107,103.33,99.97,0
103,103.32,100.00,0
108,103.41,100.08,0
107,103.49,100.15,0
108,103.58,100.22,0
108,103.66,100.30,0
108,103.75,100.38,0
107,103.82,100.45,0
109,103.92,100.53,0
108,104.00,100.61,0
108,104.08,100.68,0
108,104.16,100.75,0
107,104.22,100.82,0
108,104.29,100.89,0
107,104.35,100.95,0
107,104.40,101.01,0
108,104.47,101.08,0
109,104.56,101.16,0
107,104.61,101.22,0
109,104.70,101.29,0
107,104.74,101.35,0
109,104.83,101.43,0
109,104.91,101.50,0
109,104.99,101.58,0
109,105.08,101.65,0
111,105.19,101.75,0
109,105.27,101.82,0
109,105.34,101.89,0
109,105.42,101.96,0
109,105.49,102.03,0
110,105.58,102.11,0
109,105.65,102.18,0
109,105.71,102.25,0
110,105.80,102.33,0
109,105.86,102.39,0
111,105.97,102.48,0
109,106.03,102.54,0
110,106.11,102.62,0
109,106.17,102.68,0
111,106.26,102.77,0
115,106.44,102.89,0
111,106.53,102.97,0
111,106.62,103.05,0
109,106.66,103.11,0
111,106.75,103.19,0
111,106.84,103.27,0
111,106.92,103.34,0
111,107.00,103.42,0
112,107.10,103.51,0
113,107.22,103.60,0
112,107.32,103.68,0
113,107.43,103.78,0
114,107.56,103.88,0
114,107.69,103.98,0
113,107.80,104.07,0
113,107.90,104.16,0
111,107.96,104.23,0
116,108.12,104.35,0
115,108.26,104.45,0
113,108.35,104.54,0
113,108.45,104.62,0
114,108.56,104.72,0
115,108.69,104.82,0
114,108.79,104.91,0
114,108.90,105.00,0
113,108.98,105.08,0
115,109.10,105.18,0
115,109.22,105.28,0
116,109.35,105.39,0
113,109.43,105.46,0
115,109.54,105.56,0
114,109.63,105.64,0
116,109.75,105.75,0
115,109.86,105.84,0
115,109.96,105.93,0
115,110.06,106.02,0
115,110.16,106.11,0
115,110.26,106.20,0
114,110.33,106.28,0
115,110.43,106.37,0
115,110.52,106.45,0
115,110.61,106.54,0
114,110.68,106.61,0
115,110.76,106.70,0
115,110.85,106.78,0
115,110.93,106.86,0
116,111.03,106.95,0
117,111.15,107.05,0
115,111.23,107.13,0
115,111.30,107.21,0
115,111.38,107.29,0
119,111.53,107.41,0
117,111.64,107.50,0
117,111.75,107.60,0
117,111.85,107.69,0
121,112.03,107.82,0
117,112.13,107.92,0
119,112.27,108.03,0
120,112.43,108.15,0
119,112.56,108.26,0
120,112.71,108.37,0
119,112.83,108.48,0
121,113.00,108.60,0
119,113.12,108.71,0
121,113.27,108.83,0
120,113.41,108.94,0
121,113.56,109.06,0
120,113.69,109.17,0
124,113.89,109.32,0
121,114.04,109.44,0
123,114.22,109.57,0
121,114.35,109.69,0
123,114.52,109.82,0
121,114.65,109.93,0
121,114.78,110.04,0
121,114.91,110.15,0
121,115.03,110.26,0
121,115.15,110.37,0
122,115.28,110.48,0
121,115.40,110.59,0
121,115.51,110.69,0
121,115.62,110.80,0
122,115.75,110.91,0
123,115.89,111.03,0
121,115.99,111.13,0
123,116.13,111.25,0
123,116.27,111.37,0
124,116.43,111.49,0
125,116.60,111.63,0
125,116.77,111.76,0
124,116.91,111.88,0
123,117.03,111.99,0
125,117.19,112.12,0
123,117.31,112.23,0
124,117.44,112.35,0
123,117.55,112.46,0
123,117.66,112.56,0
125,117.81,112.69,0
125,117.95,112.81,0
123,118.05,112.91,0
125,118.19,113.03,0
129,118.41,113.19,0
126,118.56,113.32,0
129,118.77,113.48,0
127,118.93,113.61,0
128,119.12,113.76,0
129,119.31,113.91,0
129,119.51,114.06,0
128,119.68,114.20,0
129,119.86,114.35,0
129,120.05,114.49,0
129,120.22,114.64,0
128,120.38,114.77,0
129,120.55,114.92,0
128,120.70,115.05,0
129,120.87,115.19,0
128,121.01,115.31,0
129,121.17,115.45,0
131,121.37,115.61,0
132,121.58,115.77,0
131,121.77,115.92,0
133,121.99,116.09,0
133,122.21,116.26,0
133,122.43,116.43,0
137,122.72,116.64,0
135,122.97,116.82,0
137,123.25,117.02,0
135,123.48,117.20,0
137,123.75,117.40,0
140,124.08,117.62,0
139,124.38,117.84,0
139,124.67,118.05,0
139,124.95,118.26,0
138,125.22,118.46,0
139,125.49,118.66,0
139,125.76,118.87,0
143,126.11,119.11,0
143,126.44,119.35,0
145,126.81,119.60,0
145,127.18,119.86,0
148,127.59,120.14,0
145,127.94,120.39,0
148,128.34,120.66,0
147,128.72,120.93,0
148,129.10,121.20,0
148,129.48,121.46,0
148,129.85,121.73,0
152,130.29,122.03,0
153,130.75,122.34,0
153,131.19,122.65,0
152,131.61,122.94,0
153,132.04,123.24,0
151,132.42,123.52,0
152,132.81,123.81,0
151,133.17,124.08,0
152,133.55,124.36,0
154,133.96,124.65,0
153,134.34,124.94,0
153,134.71,125.22,0
154,135.10,125.51,0
152,135.44,125.77,0
154,135.81,126.05,0
154,136.17,126.33,0
153,136.51,126.60,0
153,136.84,126.86,0
152,137.14,127.11,0
154,137.48,127.38,0
153,137.79,127.64,0
153,138.09,127.89,0
153,138.39,128.14,0
156,138.74,128.42,0
155,139.07,128.69,0
156,139.41,128.96,0
157,139.76,129.24,0
160,140.16,129.55,0
158,140.52,129.83,0
161,140.93,130.15,0
163,141.37,130.47,0
165,141.84,130.82,0
165,142.31,131.16,0
167,142.80,131.52,0
171,143.36,131.91,0
173,143.96,132.32,0
173,144.54,132.73,0
171,145.07,133.11,0
173,145.63,133.51,0
175,146.21,133.93,0
175,146.79,134.34,0
175,147.35,134.75,0
176,147.93,135.16,0
175,148.47,135.56,0
175,149.00,135.95,0
175,149.52,136.34,0
176,150.05,136.74,0
176,150.57,137.13,0
175,151.06,137.51,0
177,151.57,137.90,0
179,152.12,138.32,0
177,152.62,138.70,0
177,153.11,139.08,0
180,153.65,139.49,0
181,154.19,139.91,0
181,154.73,140.32,0
179,155.21,140.71,0
183,155.77,141.13,0
182,156.30,141.54,0
181,156.79,141.93,0
181,157.27,142.32,0
181,157.75,142.71,0
183,158.25,143.11,0
183,158.75,143.51,0
182,159.21,143.90,0
181,159.65,144.27,0
182,160.10,144.65,0
183,160.55,145.03,0
181,160.96,145.39,0
182,161.38,145.75,0
183,161.82,146.13,0
183,162.24,146.50,0
184,162.67,146.87,0
183,163.08,147.23,0
182,163.46,147.58,0
183,163.85,147.93,0
183,164.23,148.28,0
182,164.59,148.62,0
183,164.96,148.97,0
185,165.36,149.33,0
181,165.67,149.64,0
185,166.06,150.00,0
187,166.48,150.37,0
188,166.91,150.74,0
187,167.31,151.11,0
186,167.68,151.45,0
186,168.05,151.80,0
187,168.43,152.15,0
186,168.78,152.49,0
186,169.12,152.83,0
185,169.44,153.15,0
185,169.75,153.47,0
186,170.08,153.79,0
185,170.38,154.10,0
185,170.67,154.41,0
188,171.01,154.75,0
185,171.29,155.05,0
185,171.57,155.35,0
185,171.84,155.65,0
183,172.06,155.92,0
185,172.32,156.21,0
184,172.55,156.49,0
184,172.78,156.76,0
185,173.03,157.05,0
186,173.29,157.34,0
185,173.52,157.61,0
189,173.83,157.93,0
187,174.09,158.22,0
187,174.35,158.50,0
186,174.58,158.78,0
185,174.79,159.04,0
186,175.02,159.31,0
188,175.28,159.60,0
186,175.49,159.86,0
185,175.68,160.11,0
185,175.87,160.36,0
187,176.09,160.63,0
185,176.27,160.87,0
185,176.44,161.11,0
185,176.61,161.35,0
184,176.76,161.58,0
185,176.93,161.81,0
185,177.09,162.05,0
184,177.23,162.27,0
184,177.36,162.48,0
183,177.47,162.69,0
183,177.58,162.89,0
184,177.71,163.10,0
183,177.82,163.30,0
184,177.94,163.51,0
183,178.04,163.70,0
183,178.14,163.90,0
182,178.22,164.08,0
181,178.28,164.25,0
181,178.33,164.41,0
181,178.38,164.58,0
181,178.44,164.74,0
181,178.49,164.91,0
181,178.54,165.07,0
180,178.57,165.22,0
181,178.62,165.37,0
180,178.64,165.52,0
179,178.65,165.66,0
179,178.66,165.79,0
181,178.70,165.94,0
179,178.71,166.07,0
179,178.72,166.20,0
179,178.72,166.33,0
179,178.73,166.46,0
180,178.75,166.59,0
181,178.80,166.74,0
183,178.88,166.90,0
178,178.86,167.01,0
177,178.83,167.11,0
179,178.83,167.23,0
179,178.83,167.35,0
178,178.82,167.45,0
177,178.78,167.55,0
177,178.74,167.64,0
177,178.71,167.74,0
177,178.68,167.83,0
177,178.64,167.92,0
177,178.61,168.01,0
177,178.58,168.10,0
176,178.53,168.18,0
177,178.50,168.27,0
175,178.43,168.33,0
176,178.38,168.41,0
175,178.31,168.48,0
175,178.24,168.54,0
175,178.18,168.61,0
176,178.13,168.68,0
175,178.07,168.74,0
175,178.01,168.81,0
174,177.93,168.86,0
174,177.85,168.91,0
174,177.77,168.96,0
173,177.68,169.00,0
174,177.61,169.05,0
174,177.53,169.10,0
173,177.44,169.14,0
173,177.35,169.18,0
173,177.27,169.22,0
173,177.18,169.25,0
173,177.10,169.29,0
172,177.00,169.32,0
172,176.90,169.35,0
171,176.78,169.36,0
172,176.68,169.39,0
171,176.57,169.41,0
171,176.46,169.42,0
172,176.37,169.45,0
171,176.26,169.46,0
172,176.18,169.49,0
171,176.07,169.50,0
172,175.99,169.53,0
171,175.89,169.54,0
172,175.81,169.57,0
170,175.70,169.57,0
171,175.60,169.59,0
169,175.47,169.58,0
170,175.36,169.58,0
169,175.23,169.58,0
170,175.13,169.58,0
169,175.01,169.58,0
169,174.89,169.57,0
173,174.85,169.61,0
169,174.73,169.60,0
168,174.60,169.58,0
168,174.47,169.57,0
169,174.36,169.56,0
168,174.23,169.55,0
168,174.10,169.53,0
167,173.96,169.51,0
168,173.84,169.49,0
167,173.71,169.47,0
167,173.57,169.44,0
167,173.44,169.42,0
166,173.29,169.38,0
167,173.17,169.36,0
167,173.04,169.33,0
165,172.88,169.29,0
164,172.70,169.24,0
165,172.55,169.20,0
165,172.40,169.15,0
165,172.25,169.11,0
165,172.11,169.07,0
165,171.96,169.03,0
165,171.82,168.99,0
165,171.69,168.95,0
165,171.55,168.91,0
165,171.42,168.87,0
163,171.26,168.81,0
165,171.13,168.77,0
164,170.99,168.73,0
164,170.85,168.68,0
163,170.69,168.62,0
164,170.56,168.58,0
163,170.41,168.52,0
163,170.26,168.47,0
162,170.09,168.40,0
162,169.93,168.34,0
163,169.79,168.28,0
163,169.66,168.23,0
159,169.44,168.14,0
161,169.27,168.07,0
161,169.11,168.00,0
161,168.95,167.93,0
161,168.79,167.86,0
161,168.63,167.79,0
161,168.48,167.72,0
161,168.33,167.65,0
160,168.16,167.58,0
161,168.02,167.51,0
161,167.88,167.45,0
159,167.70,167.36,0
160,167.55,167.29,0
161,167.42,167.23,0
160,167.27,167.15,1
160,167.12,167.08,1
160,166.98,167.01,2
159,166.82,166.93,2
160,166.68,166.86,2
159,166.53,166.78,2
159,166.38,166.71,2
160,166.25,166.64,2
159,166.11,166.56,2
158,165.95,166.48,2
158,165.79,166.39,2
159,165.65,166.32,2
157,165.48,166.22,2
159,165.35,166.15,2
157,165.18,166.06,2
158,165.04,165.98,2
157,164.88,165.89,2
157,164.72,165.80,2
157,164.57,165.71,2
157,164.41,165.63,2
157,164.27,165.54,2
156,164.10,165.44,2
157,163.96,165.36,2
155,163.78,165.26,2
156,163.62,165.16,2
155,163.45,165.06,2
156,163.30,164.97,2
155,163.14,164.87,2
157,163.01,164.79,2
155,162.85,164.70,2
156,162.72,164.61,2
156,162.58,164.52,2
155,162.43,164.43,2
155,162.28,164.33,2
156,162.16,164.25,2
154,161.99,164.15,2
155,161.85,164.06,2
153,161.68,163.94,2
154,161.52,163.85,2
154,161.37,163.75,2
154,161.22,163.65,2
153,161.06,163.54,2
153,160.90,163.44,2
153,160.74,163.33,2
153,160.59,163.23,2
153,160.43,163.13,2
152,160.27,163.02,2
152,160.10,162.91,2
152,159.94,162.80,2
152,159.78,162.69,2
152,159.62,162.58,2
152,159.47,162.48,2
151,159.30,162.36,2
151,159.14,162.25,2
152,158.99,162.15,2
151,158.83,162.03,2
151,158.68,161.92,2
150,158.50,161.80,2
147,158.27,161.66,2
151,158.13,161.55,2
151,157.99,161.44,2
149,157.81,161.32,2
151,157.67,161.22,2
149,157.50,161.09,2
149,157.33,160.97,2
150,157.18,160.86,2
149,157.02,160.75,2
149,156.86,160.63,2
149,156.70,160.51,2
149,156.54,160.40,2
149,156.39,160.28,2
149,156.25,160.17,2
149,156.10,160.06,2
149,155.96,159.95,2
148,155.80,159.83,2
148,155.64,159.71,2
147,155.47,159.58,2
147,155.30,159.46,2
149,155.18,159.35,2
149,155.05,159.25,2
148,154.91,159.14,2
148,154.77,159.02,2
147,154.62,158.90,2
150,154.52,158.82,2
148,154.39,158.71,2
148,154.27,158.60,2
149,154.16,158.50,2
148,154.04,158.40,2
147,153.90,158.29,2
147,153.76,158.17,2
148,153.64,158.07,2
147,153.51,157.96,2
148,153.40,157.86,2
147,153.27,157.75,2
148,153.17,157.65,2
148,153.06,157.56,2
148,152.96,157.46,2
147,152.84,157.36,2
147,152.73,157.25,2
147,152.61,157.15,2
147,152.50,157.05,2
147,152.39,156.95,2
147,152.28,156.85,2
145,152.14,156.73,2
147,152.03,156.63,2
146,151.91,156.53,2
146,151.79,156.42,2
145,151.66,156.31,2
145,151.53,156.20,2
145,151.40,156.08,2
145,151.27,155.97,2
145,151.14,155.86,2
145,151.02,155.75,2
144,150.88,155.64,2
145,150.76,155.53,2
145,150.65,155.42,2
144,150.51,155.31,2
145,150.40,155.21,2
145,150.29,155.11,2
144,150.17,154.99,2
143,150.03,154.87,2
145,149.92,154.78,2
143,149.79,154.66,2
143,149.65,154.54,2
143,149.52,154.43,2
144,149.41,154.32,2
143,149.28,154.21,2
143,149.15,154.10,2
143,149.03,153.99,2
144,148.93,153.89,2
143,148.81,153.78,2
143,148.70,153.67,2
141,148.54,153.54,2
143,148.43,153.44,2
143,148.32,153.33,2
143,148.22,153.23,2
143,148.11,153.13,2
142,147.99,153.02,2
144,147.91,152.93,2
143,147.81,152.83,2
143,147.71,152.73,2
141,147.58,152.61,2
142,147.47,152.50,2
143,147.38,152.41,2
143,147.29,152.32,2
142,147.19,152.21,2
142,147.08,152.11,2
143,147.00,152.02,2
141,146.88,151.91,2
143,146.80,151.82,2
141,146.69,151.71,2
141,146.57,151.60,2
139,146.42,151.48,2
142,146.33,151.38,2
141,146.23,151.28,2
142,146.14,151.19,2
141,146.04,151.08,2
141,145.94,150.98,2
141,145.84,150.88,2
141,145.74,150.79,2
140,145.63,150.68,2
140,145.52,150.57,2
140,145.41,150.47,2
140,145.30,150.36,2
141,145.21,150.27,2
140,145.11,150.16,2
139,144.98,150.05,2
139,144.87,149.94,2
139,144.75,149.83,2
139,144.63,149.72,2
140,144.54,149.63,2
139,144.43,149.52,2
139,144.32,149.42,2
137,144.17,149.29,2
138,144.05,149.18,2
138,143.93,149.07,2
139,143.83,148.97,2
139,143.73,148.87,2
138,143.62,148.76,2
138,143.51,148.65,2
139,143.42,148.55,2
140,143.35,148.47,2
138,143.24,148.36,2
137,143.12,148.25,2
139,143.03,148.16,2
138,142.93,148.06,2
138,142.84,147.96,2
139,142.76,147.87,2
137,142.64,147.76,2
137,142.53,147.65,2
137,142.42,147.54,2
137,142.31,147.44,2
137,142.21,147.33,2
138,142.12,147.24,2
137,142.02,147.14,2
137,141.92,147.04,2
137,141.82,146.94,2
137,141.72,146.84,2
137,141.63,146.74,2
137,141.54,146.64,2
137,141.45,146.54,2
136,141.34,146.44,2
136,141.23,146.33,2
136,141.13,146.23,2
137,141.04,146.14,2
136,140.94,146.04,2
135,140.82,145.93,2
136,140.73,145.83,2
136,140.63,145.73,2
137,140.56,145.64,2
136,140.47,145.55,2
136,140.38,145.45,2
136,140.29,145.36,2
136,140.21,145.26,2
135,140.10,145.16,2
136,140.02,145.07,2
135,139.92,144.97,2
135,139.82,144.87,2
135,139.72,144.77,2
136,139.65,144.68,2
135,139.56,144.58,2
134,139.45,144.48,2
135,139.36,144.38,2
135,139.27,144.29,2
133,139.14,144.18,2
135,139.06,144.09,2
135,138.98,143.99,2
135,138.90,143.90,2
134,138.80,143.81,2
134,138.71,143.71,2
137,138.67,143.64,2
134,138.58,143.54,2
135,138.51,143.46,2
133,138.40,143.35,2
133,138.29,143.25,2
133,138.18,143.15,2
135,138.12,143.07,2
133,138.02,142.97,2
134,137.94,142.88,2
133,137.84,142.78,2
133,137.74,142.68,2
131,137.61,142.56,2
134,137.53,142.48,2
132,137.42,142.37,2
133,137.34,142.28,2
133,137.25,142.19,2
136,137.22,142.12,2
133,137.14,142.03,2
133,137.06,141.94,2
133,136.98,141.85,2
133,136.90,141.76,2
133,136.82,141.68,2
131,136.70,141.57,2
133,136.63,141.48,2
133,136.56,141.40,2
133,136.48,141.32,2
133,136.41,141.23,2
133,136.35,141.15,2
133,136.28,141.07,2
133,136.21,140.99,2
132,136.13,140.90,2
133,136.07,140.82,2
132,135.99,140.73,2
131,135.89,140.63,2
133,135.83,140.56,2
132,135.75,140.47,2
132,135.68,140.39,2
131,135.58,140.29,2
132,135.51,140.21,2
131,135.42,140.12,2
132,135.35,140.04,2
131,135.27,139.95,2
129,135.14,139.84,2
130,135.04,139.74,2
131,134.96,139.65,2
130,134.86,139.55,2
131,134.78,139.47,2
129,134.66,139.36,2
131,134.59,139.28,2
129,134.48,139.18,2
130,134.39,139.09,2
129,134.28,138.99,2
129,134.18,138.89,2
129,134.07,138.79,2
129,133.97,138.69,2
129,133.87,138.59,2
129,133.77,138.50,2
129,133.68,138.40,2
129,133.59,138.31,2
129,133.49,138.21,2
128,133.38,138.11,2
129,133.30,138.02,2
128,133.19,137.92,2
129,133.11,137.83,2
128,133.00,137.73,2
128,132.90,137.64,2
127,132.79,137.53,2
128,132.69,137.43,2
128,132.60,137.34,2
127,132.48,137.24,2
128,132.40,137.14,2
128,132.31,137.05,2
129,132.24,136.97,2
127,132.14,136.87,2
128,132.05,136.78,2
127,131.95,136.69,2
127,131.85,136.59,2
127,131.76,136.49,2
127,131.66,136.40,2
127,131.57,136.30,2
127,131.48,136.21,2
125,131.35,136.10,2
127,131.26,136.01,2
127,131.18,135.92,2
126,131.07,135.82,2
126,130.97,135.72,2
125,130.85,135.61,2
125,130.73,135.51,2
125,130.62,135.40,2
126,130.53,135.31,2
125,130.42,135.20,2
125,130.31,135.10,2
125,130.20,135.00,2
125,130.10,134.90,2
125,130.00,134.80,2
125,129.90,134.70,2
125,129.80,134.61,2
125,129.70,134.51,2
125,129.61,134.42,2
124,129.50,134.31,2
124,129.39,134.21,2
124,129.28,134.11,2
124,129.17,134.01,2
124,129.07,133.91,2
124,128.97,133.81,2
123,128.85,133.70,2
124,128.75,133.60,2
124,128.66,133.51,2
123,128.54,133.40,2
123,128.43,133.30,2
126,128.38,133.22,2
123,128.28,133.12,2
124,128.19,133.03,2
121,128.05,132.91,2
123,127.95,132.81,2
123,127.85,132.71,2
124,127.77,132.63,2
123,127.67,132.53,2
124,127.60,132.44,2
124,127.53,132.36,2
123,127.44,132.27,2
124,127.37,132.18,2
123,127.28,132.09,2
124,127.22,132.01,2
123,127.13,131.92,2
123,127.05,131.83,2
119,126.89,131.70,2
124,126.83,131.63,2
123,126.75,131.54,2
124,126.70,131.46,2
123,126.63,131.38,2
124,126.57,131.31,2
123,126.50,131.22,2
123,126.43,131.14,2
123,126.36,131.06,2
123,126.30,130.98,2
124,126.25,130.91,2
123,126.18,130.83,2
123,126.12,130.75,2
123,126.06,130.67,2
124,126.02,130.61,2
123,125.96,130.53,2
124,125.92,130.47,2
123,125.86,130.39,2
125,125.84,130.34,2
123,125.79,130.26,2
123,125.73,130.19,2
123,125.68,130.12,2
123,125.62,130.05,2
123,125.57,129.98,2
124,125.54,129.92,2
123,125.49,129.85,2
123,125.44,129.78,2
124,125.41,129.72,2
124,125.38,129.67,2
125,125.37,129.62,2
125,125.37,129.57,2
124,125.34,129.52,2
123,125.29,129.45,2
124,125.27,129.40,2
124,125.24,129.34,2
125,125.24,129.30,2
123,125.19,129.24,2
124,125.17,129.18,2
123,125.12,129.12,2
127,125.16,129.10,2
123,125.12,129.04,2
124,125.10,128.99,2
123,125.05,128.93,2
123,125.01,128.87,2
123,124.97,128.81,2
123,124.93,128.75,2
123,124.89,128.70,2
122,124.84,128.63,2
122,124.78,128.56,2
122,124.72,128.50,2
123,124.69,128.44,2
123,124.66,128.39,2
123,124.62,128.33,2
122,124.57,128.27,2
123,124.54,128.22,2
120,124.45,128.14,2
122,124.40,128.07,2
123,124.37,128.02,2
123,124.34,127.97,2
121,124.28,127.90,2
122,124.23,127.84,2
121,124.17,127.78,2
122,124.12,127.72,2
121,124.06,127.65,2
121,124.00,127.58,2
121,123.94,127.52,2
121,123.88,127.45,2
121,123.82,127.39,2
122,123.79,127.34,2
122,123.75,127.28,2
121,123.70,127.22,2
123,123.68,127.18,2
122,123.65,127.13,2
124,123.66,127.09,2
123,123.64,127.05,2
121,123.59,126.99,2
121,123.54,126.93,2
123,123.53,126.89,2
121,123.48,126.83,2
122,123.45,126.79,2
121,123.40,126.73,2
121,123.35,126.67,2
123,123.34,126.63,2
121,123.30,126.58,2
123,123.29,126.54,2
122,123.26,126.50,2
123,123.26,126.46,2
122,123.23,126.42,2
121,123.19,126.36,2
121,123.15,126.31,2
121,123.10,126.26,2
121,123.06,126.20,2
121,123.02,126.15,2
121,122.98,126.10,2
123,122.98,126.07,2
123,122.98,126.04,2
123,122.98,126.01,2
121,122.94,125.96,2
121,122.90,125.91,2
122,122.88,125.87,2
122,122.87,125.83,2
121,122.83,125.78,2
121,122.79,125.73,2
123,122.80,125.71,2
123,122.80,125.68,2
124,122.82,125.66,2
125,122.87,125.66,2
125,122.91,125.65,2
124,122.93,125.63,2
124,122.95,125.62,2
124,122.97,125.60,2
126,123.04,125.61,2
124,123.05,125.59,2
124,123.07,125.57,2
125,123.11,125.57,2
124,123.13,125.55,2
126,123.19,125.56,2
125,123.22,125.55,2
125,123.26,125.55,2
125,123.29,125.54,2
125,123.33,125.53,2
125,123.36,125.53,2
126,123.41,125.53,2
125,123.45,125.53,2
125,123.48,125.52,2
126,123.53,125.53,2
127,123.60,125.54,2
127,123.66,125.56,2
126,123.71,125.56,2
125,123.74,125.56,2
127,123.80,125.57,2
126,123.85,125.57,2
126,123.89,125.58,2
128,123.97,125.60,2
126,124.01,125.61,2
125,124.03,125.60,2
126,124.07,125.61,2
125,124.09,125.60,2
125,124.11,125.59,2
125,124.13,125.59,2
125,124.14,125.58,2
127,124.20,125.60,2
126,124.24,125.60,2
127,124.29,125.61,2
127,124.35,125.63,2
127,124.40,125.64,2
127,124.45,125.65,2
127,124.50,125.67,2
127,124.55,125.68,2
125,124.56,125.67,2
127,124.61,125.69,2
127,124.66,125.70,2
127,124.70,125.71,2
127,124.75,125.73,2
127,124.80,125.74,2
127,124.84,125.75,2
129,124.92,125.78,2
128,124.98,125.81,2
129,125.06,125.84,2
128,125.12,125.86,2
129,125.20,125.89,2
129,125.28,125.92,2
129,125.35,125.95,2
129,125.42,125.98,2
128,125.48,126.00,2
129,125.55,126.03,2
129,125.62,126.06,2
128,125.66,126.08,2
128,125.71,126.10,2
129,125.78,126.13,2
129,125.84,126.16,2
129,125.90,126.19,2
129,125.97,126.22,2
129,126.03,126.24,2
128,126.07,126.26,2
129,126.12,126.29,2
129,126.18,126.32,2
129,126.24,126.34,2
129,126.29,126.37,2
129,126.35,126.40,2
129,126.40,126.42,2
129,126.45,126.45,2
128,126.48,126.46,2
130,126.55,126.50,2
129,126.60,126.52,2
129,126.65,126.55,2
129,126.70,126.57,2
130,126.76,126.61,2
135,126.93,126.69,2
131,127.01,126.73,2
129,127.05,126.76,2
130,127.11,126.79,2
131,127.19,126.83,2
129,127.22,126.85,2
131,127.30,126.89,2
129,127.33,126.92,2
130,127.39,126.95,2
129,127.42,126.97,2
129,127.45,126.99,2
130,127.50,127.02,2
130,127.55,127.05,2
129,127.58,127.07,2
131,127.65,127.11,2
131,127.72,127.15,2
131,127.78,127.18,2
132,127.87,127.23,2
132,127.95,127.28,2
132,128.03,127.33,2
131,128.09,127.36,2
132,128.17,127.41,2
133,128.26,127.47,2
133,128.36,127.52,2
133,128.45,127.58,2
134,128.56,127.64,2
133,128.65,127.69,2
135,128.78,127.77,2
133,128.86,127.82,2
133,128.94,127.87,2
133,129.03,127.92,2
135,129.15,127.99,2
135,129.26,128.06,2
134,129.36,128.12,2
133,129.43,128.17,2
134,129.52,128.23,2
135,129.63,128.30,2
133,129.70,128.34,2
133,129.76,128.39,2
134,129.85,128.45,2
133,129.91,128.49,2
134,129.99,128.55,2
136,130.11,128.62,2
134,130.19,128.68,2
135,130.29,128.74,2
136,130.40,128.81,2
137,130.53,128.89,2
139,130.70,128.99,2
138,130.85,129.08,2
138,130.99,129.17,2
139,131.15,129.27,2
139,131.31,129.37,2
138,131.44,129.46,2
139,131.59,129.55,2
139,131.74,129.65,2
140,131.91,129.75,2
139,132.05,129.84,2
138,132.17,129.92,2
139,132.31,130.01,2
139,132.44,130.10,2
138,132.55,130.18,2
139,132.68,130.27,2
139,132.81,130.36,2
138,132.91,130.43,2
137,132.99,130.50,2
139,133.11,130.59,2
138,133.21,130.66,2
139,133.33,130.74,2
141,133.48,130.85,2
141,133.63,130.95,2
141,133.78,131.05,2
141,133.92,131.15,2
141,134.06,131.25,2
141,134.20,131.34,2
141,134.34,131.44,2
141,134.47,131.54,2
141,134.60,131.63,2
141,134.73,131.72,2
141,134.85,131.82,2
141,134.98,131.91,2
143,135.14,132.02,2
143,135.30,132.13,2
145,135.49,132.26,2
145,135.68,132.39,2
144,135.85,132.50,2
143,135.99,132.61,2
143,136.13,132.71,2
143,136.27,132.81,2
144,136.42,132.93,2
144,136.57,133.04,2
144,136.72,133.15,2
145,136.89,133.26,2
144,137.03,133.37,2
146,137.21,133.50,2
146,137.38,133.62,2
145,137.54,133.74,2
145,137.69,133.85,2
146,137.85,133.97,2
145,138.00,134.08,2
146,138.16,134.20,2
145,138.29,134.31,2
145,138.43,134.42,2
145,138.56,134.52,2
145,138.69,134.63,2
147,138.85,134.75,2
147,139.02,134.87,2
146,139.16,134.98,2
147,139.31,135.10,2
148,139.49,135.23,2
151,139.72,135.39,2
149,139.90,135.53,2
149,140.08,135.66,2
149,140.26,135.79,2
151,140.48,135.95,2
153,140.73,136.12,2
155,141.01,136.31,2
155,141.29,136.49,2
154,141.55,136.67,2
155,141.82,136.85,2
156,142.10,137.04,2
155,142.36,137.22,2
154,142.59,137.39,2
155,142.84,137.57,2
155,143.08,137.74,2
157,143.36,137.93,2
157,143.63,138.12,2
157,143.90,138.31,2
157,144.16,138.50,2
156,144.40,138.67,2
158,144.67,138.87,2
159,144.96,139.07,2
161,145.28,139.29,2
160,145.57,139.50,2
164,145.94,139.74,2
163,146.28,139.97,2
163,146.62,140.20,2
164,146.96,140.44,2
163,147.29,140.67,2
167,147.68,140.93,2
167,148.07,141.19,2
165,148.40,141.43,2
167,148.78,141.68,2
165,149.10,141.92,2
166,149.44,142.16,2
169,149.83,142.43,2
167,150.17,142.67,2
169,150.55,142.94,2
169,150.92,143.20,2
169,151.28,143.45,2
173,151.72,143.75,2
169,152.06,144.00,2
169,152.40,144.25,2
170,152.75,144.51,2
169,153.08,144.76,2
172,153.46,145.03,2
170,153.79,145.28,2
169,154.09,145.51,2
169,154.39,145.75,2
171,154.72,146.00,2
172,155.07,146.26,2
171,155.39,146.51,2
175,155.78,146.79,2
172,156.10,147.05,2
173,156.44,147.31,2
171,156.73,147.54,2
177,157.14,147.84,2
176,157.51,148.12,2
177,157.90,148.41,2
177,158.29,148.69,2
176,158.64,148.97,2
178,159.03,149.26,2
179,159.43,149.55,2
177,159.78,149.83,2
177,160.12,150.10,2
177,160.46,150.37,2
177,160.79,150.64,2
180,161.17,150.93,2
180,161.55,151.22,2
179,161.90,151.50,2
182,162.30,151.80,2
182,162.70,152.11,2
180,163.04,152.38,2
181,163.40,152.67,2
181,163.75,152.95,2
182,164.12,153.24,2
181,164.46,153.52,2
183,164.83,153.82,2
183,165.19,154.11,2
182,165.53,154.39,2
183,165.88,154.67,2
185,166.26,154.98,2
186,166.65,155.29,2
185,167.02,155.58,2
188,167.44,155.91,2
189,167.87,156.24,2
189,168.29,156.57,2
189,168.71,156.89,2
191,169.15,157.23,2
189,169.55,157.55,2
189,169.94,157.86,2
189,170.32,158.18,2
191,170.73,158.50,2
191,171.14,158.83,2
190,171.52,159.14,2
189,171.87,159.44,2
190,172.23,159.74,2
192,172.62,160.07,2
192,173.01,160.39,2
194,173.43,160.72,2
198,173.92,161.10,2
197,174.38,161.45,2
193,174.76,161.77,2
197,175.20,162.12,2
197,175.64,162.47,2
197,176.07,162.82,2
197,176.48,163.16,2
197,176.89,163.50,2
197,177.30,163.83,2
198,177.71,164.17,2
199,178.14,164.52,2
201,178.59,164.89,2
199,179.00,165.23,2
203,179.48,165.61,2
203,179.95,165.98,2
203,180.41,166.35,2
203,180.86,166.72,2
205,181.35,167.10,2
205,181.82,167.48,2
203,182.24,167.83,2
204,182.68,168.19,2
205,183.13,168.56,2
205,183.56,168.93,2
206,184.01,169.30,2
207,184.47,169.67,2
205,184.88,170.03,2
204,185.26,170.37,2
205,185.66,170.71,2
207,186.09,171.08,2
207,186.50,171.44,2
207,186.91,171.79,2
207,187.32,172.14,2
206,187.69,172.48,2
207,188.08,172.83,2
210,188.51,173.20,2
211,188.96,173.58,2
213,189.44,173.97,2
212,189.90,174.35,2
214,190.38,174.75,2
217,190.91,175.17,2
217,191.43,175.59,2
215,191.90,175.98,2
216,192.39,176.38,2
218,192.90,176.80,2
219,193.42,177.22,2
217,193.89,177.62,2
220,194.41,178.04,2
219,194.91,178.45,2
219,195.39,178.86,2
218,195.84,179.25,2
219,196.30,179.65,2
219,196.76,180.04,2
220,197.22,180.44,2
220,197.68,180.84,2
223,198.18,181.26,2
221,198.64,181.66,2
222,199.11,182.06,2
223,199.58,182.47,2
226,200.11,182.90,2
224,200.59,183.31,2
224,201.06,183.72,2
223,201.50,184.11,2
223,201.93,184.50,2
221,202.31,184.87,2
223,202.72,185.25,2
222,203.11,185.62,2
221,203.47,185.97,2
221,203.82,186.32,2
221,204.16,186.67,2
223,204.54,187.03,2
223,204.91,187.39,2
223,205.27,187.75,2
223,205.62,188.10,2
222,205.95,188.44,2
222,206.27,188.77,2
224,206.63,189.13,2
223,206.95,189.46,2
224,207.30,189.81,2
222,207.59,190.13,2
222,207.88,190.45,2
221,208.14,190.76,2
222,208.42,191.07,2
221,208.67,191.37,2
220,208.90,191.65,2
220,209.12,191.94,2
219,209.32,192.21,2
221,209.55,192.50,2
221,209.78,192.78,2
221,210.00,193.06,2
224,210.28,193.37,2
221,210.50,193.65,2
220,210.69,193.91,2
221,210.89,194.18,2
220,211.08,194.44,2
220,211.25,194.70,2
220,211.43,194.95,2
219,211.58,195.19,2
219,211.73,195.43,2
219,211.87,195.66,2
217,211.98,195.88,2
217,212.08,196.09,2
217,212.18,196.30,2
217,212.27,196.51,2
217,212.37,196.71,2
215,212.42,196.89,2
216,212.49,197.08,2
215,212.54,197.26,2
216,212.61,197.45,2
215,212.66,197.63,2
216,212.72,197.81,2
215,212.77,197.98,2
214,212.79,198.14,2
214,212.82,198.30,2
215,212.86,198.47,2
213,212.87,198.61,2
214,212.89,198.77,2
213,212.89,198.91,2
214,212.91,199.06,2
214,212.93,199.21,2
213,212.94,199.35,2
214,212.96,199.49,2
214,212.98,199.64,2
213,212.98,199.77,2
213,212.98,199.90,2
213,212.98,200.04,2
213,212.98,200.17,2
213,212.98,200.29,2
212,212.96,200.41,2
212,212.94,200.53,2
211,212.90,200.63,2
212,212.88,200.75,2
211,212.85,200.85,2
210,212.79,200.94,2
209,212.71,201.02,2
210,212.66,201.11,2
210,212.61,201.20,2
209,212.53,201.28,2
209,212.46,201.35,2
209,212.39,201.43,2
209,212.33,201.51,2
208,212.24,201.57,2
209,212.17,201.65,2
207,212.07,201.70,2
207,211.97,201.75,2
207,211.87,201.80,2
207,211.77,201.86,2
206,211.66,201.90,2
207,211.56,201.95,2
205,211.43,201.98,2
205,211.30,202.01,2
205,211.18,202.04,2
205,211.06,202.07,2
204,210.91,202.09,2
204,210.78,202.11,2
204,210.64,202.13,2
203,210.49,202.14,2
204,210.36,202.15,2
203,210.21,202.16,2
202,210.05,202.16,2
203,209.91,202.17,2
202,209.75,202.17,2
201,209.57,202.16,2
201,209.40,202.14,2
201,209.23,202.13,2
201,209.07,202.12,2
200,208.89,202.10,2
200,208.71,202.08,2
200,208.53,202.06,2
201,208.38,202.05,2
200,208.22,202.03,2
199,208.03,202.00,2
199,207.85,201.97,2
200,207.69,201.95,2
199,207.52,201.92,2
198,207.33,201.88,2
199,207.16,201.85,2
198,206.98,201.81,2
197,206.78,201.76,2
197,206.59,201.72,2
197,206.39,201.67,2
197,206.21,201.62,2
197,206.02,201.58,2
197,205.84,201.53,2
197,205.66,201.48,2
195,205.45,201.42,2
197,205.28,201.38,2
197,205.12,201.33,2
196,204.93,201.28,2
195,204.74,201.22,2
195,204.54,201.15,2
195,204.35,201.09,2
195,204.16,201.03,2
195,203.98,200.97,2
194,203.78,200.90,2
194,203.58,200.83,2
193,203.37,200.75,2
195,203.21,200.70,2
193,203.00,200.62,2
193,202.80,200.54,2
192,202.59,200.46,2
193,202.39,200.38,2
193,202.21,200.31,2
193,202.02,200.24,2
192,201.82,200.15,2
191,201.60,200.06,2
192,201.41,199.98,2
192,201.22,199.90,2
192,201.04,199.82,2
191,200.84,199.73,2
190,200.62,199.64,2
190,200.41,199.54,2
191,200.22,199.46,2
190,200.02,199.36,2
189,199.80,199.26,2
189,199.58,199.15,2
189,199.37,199.05,2
189,199.16,198.95,2
190,198.98,198.86,3
189,198.78,198.76,3
189,198.58,198.67,4
189,198.39,198.57,4
188,198.18,198.46,4
188,197.98,198.36,4
187,197.76,198.25,4
188,197.57,198.14,4
187,197.35,198.03,4
187,197.15,197.92,4
186,196.92,197.80,4
187,196.73,197.69,4
185,196.49,197.57,4
185,196.26,197.44,4
185,196.04,197.32,4
185,195.82,197.19,4
185,195.60,197.07,4
185,195.39,196.95,4
184,195.16,196.82,4
184,194.94,196.69,4
184,194.72,196.57,4
186,194.54,196.46,4
184,194.33,196.34,4
183,194.11,196.20,4
183,193.88,196.07,4
182,193.65,195.93,4
183,193.43,195.80,4
181,193.18,195.65,4
182,192.96,195.52,4
182,192.74,195.38,4
181,192.51,195.24,4
181,192.28,195.10,4
181,192.05,194.95,4
180,191.81,194.81,4
181,191.59,194.67,4
180,191.36,194.52,4
180,191.13,194.38,4
180,190.91,194.23,4
179,190.67,194.08,4
179,190.44,193.93,4
180,190.23,193.79,4
179,190.01,193.64,4
179,189.79,193.49,4
179,189.57,193.35,4
178,189.34,193.20,4
177,189.09,193.03,4
178,188.87,192.88,4
177,188.63,192.73,4
177,188.40,192.57,4
177,188.17,192.41,4
177,187.95,192.26,4
176,187.71,192.10,4
177,187.50,191.94,4
176,187.27,191.79,4
177,187.06,191.64,4
177,186.86,191.49,4
175,186.62,191.33,4
175,186.39,191.16,4
175,186.16,191.00,4
175,185.94,190.84,4
175,185.72,190.68,4
175,185.51,190.53,4
175,185.30,190.37,4
175,185.09,190.22,4
175,184.89,190.06,4
173,184.65,189.89,4
174,184.44,189.74,4
173,184.21,189.57,4
173,183.98,189.40,4
173,183.76,189.24,4
173,183.55,189.08,4
173,183.34,188.91,4
173,183.13,188.76,4
172,182.91,188.59,4
171,182.67,188.41,4
172,182.46,188.25,4
172,182.25,188.09,4
172,182.04,187.92,4
171,181.82,187.76,4
171,181.61,187.59,4
171,181.39,187.42,4
171,181.19,187.26,4
171,180.98,187.10,4
172,180.80,186.94,4
169,180.57,186.77,4
169,180.34,186.59,4
170,180.13,186.42,4
169,179.91,186.25,4
169,179.69,186.07,4
170,179.49,185.91,4
169,179.28,185.75,4
169,179.08,185.58,4
168,178.86,185.40,4
168,178.64,185.23,4
169,178.45,185.07,4
169,178.26,184.90,4
168,178.05,184.74,4
168,177.85,184.57,4
168,177.65,184.40,4
167,177.44,184.23,4
167,177.23,184.06,4
167,177.03,183.89,4
165,176.79,183.70,4
167,176.59,183.53,4
167,176.40,183.36,4
167,176.21,183.20,4
166,176.01,183.03,4
165,175.79,182.85,4
165,175.57,182.67,4
165,175.36,182.49,4
165,175.15,182.32,4
165,174.95,182.15,4
165,174.75,181.97,4
165,174.56,181.80,4
165,174.37,181.64,4
165,174.18,181.47,4
165,173.99,181.31,4
165,173.81,181.14,4
165,173.64,180.98,4
165,173.47,180.82,4
164,173.28,180.65,4
165,173.11,180.50,4
164,172.93,180.33,4
164,172.75,180.17,4
164,172.57,180.01,4
163,172.38,179.84,4
164,172.22,179.68,4
163,172.03,179.51,4
164,171.87,179.36,4
165,171.73,179.21,4
164,171.58,179.06,4
163,171.41,178.90,4
163,171.24,178.74,4
163,171.07,178.58,4
162,170.89,178.42,4
163,170.73,178.26,4
163,170.58,178.11,4
162,170.41,177.95,4
161,170.22,177.78,4
161,170.04,177.61,4
161,169.86,177.45,4
161,169.68,177.28,4
162,169.52,177.13,4
161,169.35,176.97,4
161,169.19,176.81,4
161,169.02,176.65,4
161,168.86,176.49,4
161,168.71,176.34,4
160,168.53,176.17,4
161,168.38,176.02,4
161,168.23,175.87,4
160,168.07,175.71,4
161,167.93,175.57,4
161,167.79,175.42,4
159,167.61,175.26,4
160,167.46,175.10,4
159,167.29,174.94,4
159,167.13,174.78,4
160,166.98,174.64,4
159,166.82,174.48,4
159,166.67,174.33,4
161,166.55,174.19,4
159,166.40,174.04,4
160,166.27,173.90,4
160,166.15,173.76,4
159,166.01,173.61,4
159,165.87,173.47,4
159,165.73,173.32,4
158,165.57,173.17,4
159,165.44,173.03,4
161,165.35,172.91,4
157,165.19,172.75,4
159,165.06,172.61,4
157,164.90,172.45,4
157,164.74,172.30,4
157,164.59,172.15,4
158,164.46,172.01,4
157,164.31,171.86,4
157,164.16,171.71,4
157,164.02,171.56,4
156,163.86,171.40,4
157,163.72,171.26,4
156,163.57,171.11,4
156,163.42,170.96,4
156,163.27,170.81,4
157,163.14,170.67,4
154,162.96,170.50,4
157,162.84,170.37,4
155,162.68,170.21,4
155,162.53,170.06,4
156,162.40,169.92,4
156,162.27,169.78,4
155,162.13,169.63,4
156,162.00,169.50,4
155,161.86,169.35,4
155,161.73,169.21,4
155,161.59,169.07,4
155,161.46,168.93,4
156,161.35,168.80,4
155,161.22,168.66,4
154,161.08,168.51,4
154,160.94,168.37,4
153,160.78,168.21,4
154,160.64,168.07,4
153,160.49,167.92,4
153,160.34,167.77,4
153,160.19,167.62,4
155,160.09,167.50,4
156,160.01,167.38,4
154,159.89,167.25,4
155,159.79,167.13,4
153,159.65,166.98,4
153,159.52,166.85,4
153,159.39,166.71,4
153,159.26,166.57,4
153,159.14,166.43,4
153,159.01,166.30,4
153,158.89,166.17,4
153,158.78,166.03,4
153,158.66,165.90,4
152,158.53,165.77,4
152,158.40,165.63,4
152,158.27,165.49,4
152,158.14,165.36,4
152,158.02,165.22,4
156,157.98,165.13,4
151,157.84,164.99,4
151,157.70,164.85,4
151,157.57,164.71,4
151,157.44,164.57,4
151,157.31,164.44,4
151,157.18,164.30,4
150,157.04,164.16,4
150,156.90,164.02,4
150,156.76,163.88,4
151,156.65,163.75,4
149,156.49,163.60,4
149,156.34,163.46,4
150,156.22,163.32,4
150,156.09,163.19,4
151,155.99,163.07,4
149,155.85,162.93,4
151,155.75,162.81,4
149,155.62,162.67,4
149,155.49,162.53,4
149,155.36,162.40,4
149,155.23,162.26,4
149,155.10,162.13,4
149,154.98,162.00,4
149,154.86,161.87,4
148,154.73,161.73,4
149,154.61,161.60,4
147,154.46,161.46,4
148,154.33,161.32,4
147,154.18,161.18,4
148,154.06,161.05,4
147,153.92,160.91,4
148,153.80,160.78,4
147,153.66,160.64,4
148,153.55,160.51,4
147,153.42,160.38,4
147,153.29,160.24,4
147,153.17,160.11,4
148,153.06,159.99,4
148,152.96,159.87,4
147,152.84,159.74,4
145,152.68,159.60,4
146,152.55,159.46,4
147,152.44,159.33,4
146,152.31,159.20,4
146,152.19,159.07,4
145,152.04,158.93,4
146,151.92,158.80,4
146,151.80,158.67,4
145,151.67,158.53,4
144,151.51,158.39,4
145,151.38,158.26,4
145,151.25,158.12,4
145,151.13,157.99,4
145,151.01,157.86,4
144,150.87,157.72,4
146,150.77,157.61,4
147,150.69,157.50,4
145,150.58,157.37,4
145,150.47,157.25,4
146,150.38,157.14,4
146,150.29,157.03,4
145,150.19,156.91,4
145,150.08,156.79,4
145,149.98,156.67,4
145,149.88,156.55,4
147,149.82,156.46,4
145,149.73,156.34,4
145,149.63,156.23,4
145,149.54,156.12,4
147,149.49,156.03,4
145,149.40,155.92,4
146,149.33,155.82,4
145,149.24,155.71,4
145,149.16,155.60,4
145,149.08,155.50,4
145,148.99,155.39,4
145,148.91,155.29,4
145,148.84,155.18,4
145,148.76,155.08,4
145,148.68,154.98,4
144,148.59,154.87,4
144,148.50,154.76,4
143,148.39,154.65,4
144,148.30,154.54,4
144,148.22,154.43,4
143,148.11,154.32,4
144,148.03,154.22,4
143,147.93,154.10,4
142,147.81,153.98,4
143,147.71,153.87,4
143,147.62,153.76,4
143,147.53,153.66,4
143,147.44,153.55,4
146,147.41,153.47,4
142,147.30,153.36,4
143,147.21,153.26,4
141,147.09,153.13,4
143,147.01,153.03,4
142,146.91,152.92,4
141,146.79,152.80,4
142,146.69,152.69,4
141,146.58,152.58,4
141,146.47,152.46,4
143,146.40,152.37,4
141,146.29,152.25,4
141,146.18,152.14,4
141,146.08,152.03,4
141,145.98,151.92,4
141,145.88,151.81,4
139,145.74,151.68,4
140,145.63,151.57,4
141,145.54,151.46,4
141,145.44,151.35,4
140,145.34,151.24,4
140,145.23,151.13,4
139,145.10,151.01,4
140,145.00,150.90,4
140,144.90,150.79,4
140,144.80,150.68,4
139,144.69,150.56,4
141,144.61,150.47,4
139,144.50,150.35,4
139,144.39,150.24,4
138,144.26,150.12,4
139,144.16,150.01,4
140,144.08,149.91,4
139,143.97,149.80,4
139,143.87,149.69,4
138,143.76,149.57,4
137,143.62,149.45,4
139,143.53,149.34,4
140,143.46,149.25,4
138,143.35,149.14,4
138,143.24,149.03,4
139,143.16,148.92,4
139,143.07,148.83,4
138,142.97,148.72,4
138,142.87,148.61,4
137,142.76,148.49,4
137,142.64,148.38,4
137,142.53,148.27,4
138,142.44,148.16,4
137,142.33,148.05,4
137,142.22,147.94,4
137,142.12,147.83,4
137,142.02,147.72,4
137,141.92,147.62,4
136,141.80,147.50,4
141,141.78,147.43,4
136,141.67,147.32,4
136,141.55,147.21,4
136,141.44,147.09,4
136,141.33,146.98,4
135,141.21,146.86,4
135,141.08,146.75,4
135,140.96,146.63,4
134,140.82,146.50,4
135,140.70,146.39,4
136,140.61,146.28,4
134,140.48,146.16,4
134,140.35,146.04,4
133,140.20,145.91,4
135,140.10,145.80,4
135,140.00,145.69,4
135,139.90,145.58,4
135,139.80,145.48,4
135,139.70,145.37,4
135,139.61,145.27,4
134,139.50,145.16,4
135,139.41,145.06,4
135,139.32,144.95,4
135,139.23,144.86,4
135,139.15,144.76,4
135,139.06,144.66,4
135,138.98,144.56,4
136,138.92,144.48,4
135,138.84,144.38,4
135,138.77,144.29,4
135,138.69,144.20,4
135,138.62,144.10,4
135,138.55,144.01,4
135,138.47,143.92,4
135,138.41,143.83,4
135,138.34,143.74,4
136,138.29,143.67,4
135,138.22,143.58,4
135,138.16,143.50,4
135,138.10,143.41,4
135,138.04,143.33,4
135,137.97,143.24,4
137,137.95,143.18,4
135,137.90,143.10,4
135,137.84,143.02,4
135,137.78,142.94,4
135,137.73,142.86,4
136,137.69,142.79,4
136,137.66,142.72,4
135,137.60,142.64,4
135,137.55,142.57,4
136,137.52,142.50,4
135,137.47,142.43,4
136,137.44,142.36,4
136,137.41,142.30,4
133,137.32,142.21,4
135,137.28,142.13,4
136,137.25,142.07,4
136,137.23,142.01,4
136,137.20,141.95,4
135,137.16,141.88,4
136,137.14,141.82,4
135,137.09,141.76,4
136,137.07,141.70,4
137,137.07,141.65,4
138,137.09,141.61,4
137,137.09,141.57,4
137,137.08,141.52,4
137,137.08,141.48,4
137,137.08,141.43,4
137,137.08,141.39,4
137,137.08,141.34,4
137,137.08,141.30,4
137,137.07,141.26,4
137,137.07,141.22,4
138,137.09,141.18,4
139,137.13,141.16,4
137,137.13,141.12,4
137,137.12,141.08,4
137,137.12,141.04,4
138,137.14,141.01,4
138,137.16,140.98,4
138,137.17,140.95,4
137,137.17,140.91,4
138,137.19,140.88,4
137,137.18,140.84,4
137,137.18,140.80,4
137,137.18,140.76,4
137,137.17,140.73,4
137,137.17,140.69,4
137,137.17,140.65,4
137,137.16,140.62,4
138,137.18,140.59,4
139,137.22,140.57,4
141,137.29,140.58,4
137,137.29,140.54,4
137,137.28,140.51,4
139,137.31,140.49,4
137,137.31,140.46,4
137,137.30,140.42,4
137,137.30,140.39,4
137,137.29,140.35,4
137,137.28,140.32,4
137,137.28,140.29,4
138,137.29,140.26,4
137,137.29,140.23,4
137,137.28,140.20,4
137,137.28,140.17,4
137,137.27,140.14,4
137,137.26,140.10,4
136,137.24,140.06,4
137,137.23,140.03,4
137,137.23,140.00,4
137,137.23,139.97,4
138,137.24,139.95,4
137,137.24,139.92,4
137,137.23,139.89,4
137,137.23,139.86,4
137,137.22,139.84,4
137,137.22,139.81,4
138,137.23,139.79,4
139,137.27,139.78,4
139,137.30,139.77,4
138,137.32,139.76,4
138,137.33,139.74,4
139,137.36,139.73,4
139,137.40,139.72,4
139,137.43,139.72,4
139,137.46,139.71,4
138,137.47,139.69,4
138,137.48,139.68,4
140,137.53,139.68,4
137,137.52,139.65,4
138,137.53,139.64,4
137,137.52,139.61,4
138,137.53,139.59,4
138,137.54,139.58,4
137,137.53,139.55,4
137,137.52,139.53,4
137,137.51,139.50,4
137,137.50,139.48,4
139,137.53,139.47,4
139,137.56,139.47,4
139,137.59,139.46,4
138,137.59,139.45,4
139,137.62,139.44,4
141,137.69,139.46,4
139,137.72,139.45,4
139,137.74,139.45,4
141,137.81,139.46,4
140,137.85,139.47,4
140,137.89,139.48,4
139,137.92,139.47,4
140,137.96,139.48,4
139,137.98,139.47,4
139,138.00,139.47,4
139,138.02,139.46,4
140,138.06,139.47,4
138,138.06,139.45,4
139,138.08,139.45,4
140,138.11,139.45,4
139,138.13,139.45,4
139,138.15,139.44,4
140,138.19,139.45,4
139,138.20,139.45,4
140,138.24,139.45,4
139,138.25,139.45,4
140,138.29,139.45,4
140,138.32,139.46,4
139,138.34,139.45,4
140,138.37,139.46,4
139,138.38,139.45,4
139,138.40,139.45,4
140,138.43,139.45,4
140,138.46,139.46,4
139,138.47,139.46,4
140,138.50,139.46,4
140,138.53,139.47,4
140,138.56,139.47,4
140,138.59,139.48,4
141,138.64,139.49,4
140,138.66,139.50,4
141,138.71,139.51,4
140,138.74,139.52,4
141,138.78,139.53,4
142,138.85,139.56,4
141,138.89,139.57,4
141,138.93,139.59,4
141,138.97,139.60,4
141,139.01,139.61,4
142,139.07,139.64,4
143,139.15,139.67,4
142,139.21,139.69,4
143,139.28,139.73,4
142,139.34,139.75,4
141,139.37,139.76,4
142,139.42,139.78,4
143,139.50,139.82,4
141,139.53,139.83,4
141,139.56,139.84,4
142,139.60,139.86,4
142,139.65,139.88,4
143,139.72,139.91,4
143,139.78,139.95,4
143,139.85,139.98,5
142,139.89,140.00,5
143,139.95,140.03,6
142,140.00,140.05,6
143,140.06,140.08,7
143,140.11,140.10,7
141,140.13,140.11,8
142,140.17,140.13,8
145,140.27,140.18,9
143,140.32,140.21,9
143,140.37,140.24,9
143,140.43,140.27,9
143,140.48,140.29,9
145,140.57,140.34,9
143,140.62,140.37,9
144,140.69,140.40,9
145,140.77,140.45,9
145,140.86,140.49,9
145,140.94,140.54,9
143,140.98,140.56,9
145,141.06,140.61,9
144,141.12,140.64,9
144,141.18,140.68,9
144,141.23,140.71,9
144,141.29,140.74,9
145,141.36,140.78,9
145,141.44,140.83,9
143,141.47,140.85,9
144,141.52,140.88,9
145,141.59,140.92,9
143,141.62,140.94,9
145,141.68,140.98,9
144,141.73,141.01,9
143,141.75,141.03,9
143,141.78,141.05,9
143,141.80,141.07,9
143,141.83,141.09,9
143,141.85,141.11,9
143,141.87,141.13,9
146,141.96,141.18,9
145,142.02,141.22,9
143,142.04,141.23,9
143,142.06,141.25,9
144,142.10,141.28,9
143,142.11,141.30,9
143,142.13,141.31,9
141,142.11,141.31,9
143,142.13,141.33,9
144,142.16,141.35,9
143,142.18,141.37,9
143,142.20,141.39,9
143,142.21,141.40,9
143,142.23,141.42,9
143,142.24,141.43,9
143,142.26,141.45,9
140,142.21,141.44,9
144,142.25,141.46,9
143,142.27,141.48,9
143,142.28,141.49,9
143,142.29,141.51,9
145,142.35,141.54,9
145,142.40,141.58,9
145,142.45,141.61,9
145,142.50,141.64,9
145,142.55,141.68,9
147,142.64,141.73,9
145,142.69,141.76,9
145,142.74,141.80,9
145,142.78,141.83,9
145,142.83,141.86,9
145,142.87,141.89,9
147,142.95,141.94,9
146,143.01,141.98,9
146,143.07,142.02,9
146,143.13,142.06,9
145,143.17,142.09,9
147,143.25,142.14,9
148,143.34,142.20,9
146,143.39,142.24,9
146,143.45,142.28,9
145,143.48,142.30,9
149,143.59,142.37,9
147,143.66,142.42,9
147,143.72,142.46,9
149,143.83,142.53,9
148,143.91,142.58,9
149,144.01,142.65,9
147,144.07,142.69,9
149,144.17,142.75,9
148,144.25,142.81,9
147,144.30,142.85,9
148,144.38,142.90,9
147,144.43,142.94,9
148,144.50,142.99,9
147,144.55,143.03,9
149,144.64,143.09,9
149,144.73,143.15,9
148,144.79,143.20,9
147,144.84,143.24,9
148,144.90,143.28,9
149,144.98,143.34,9
148,145.04,143.39,9
147,145.08,143.42,9
151,145.20,143.50,9
148,145.26,143.54,9
149,145.33,143.60,9
151,145.44,143.67,9
149,145.52,143.73,9
150,145.61,143.79,9
150,145.69,143.85,9
152,145.82,143.93,9
151,145.92,144.00,9
153,146.06,144.09,9
151,146.16,144.16,9
151,146.26,144.23,9
151,146.35,144.30,9
150,146.43,144.36,9
151,146.52,144.42,9
150,146.59,144.48,9
151,146.68,144.54,9
153,146.80,144.63,9
151,146.89,144.69,9
151,146.97,144.75,9
152,147.07,144.83,9
155,147.23,144.93,9
156,147.40,145.04,9
157,147.60,145.16,9
157,147.78,145.28,9
155,147.93,145.37,9
157,148.11,145.49,9
159,148.33,145.63,9
161,148.58,145.78,9
161,148.83,145.93,9
162,149.09,146.09,9
162,149.35,146.25,9
167,149.70,146.46,9
166,150.03,146.65,9
168,150.39,146.87,9
167,150.72,147.07,9
165,151.01,147.25,9
166,151.31,147.44,9
168,151.64,147.64,9
168,151.97,147.84,9
168,152.29,148.05,9
168,152.60,148.25,9
169,152.93,148.45,9
171,153.29,148.68,9
171,153.65,148.90,9
173,154.03,149.14,9
171,154.37,149.36,9
173,154.75,149.60,9
171,155.07,149.81,9
173,155.43,150.04,9
175,155.82,150.29,9
176,156.22,150.55,9
173,156.56,150.78,9
175,156.93,151.02,9
175,157.29,151.26,9
175,157.64,151.49,9
175,157.99,151.73,9
178,158.39,151.99,9
179,158.80,152.26,9
177,159.17,152.51,9
180,159.58,152.78,9
181,160.01,153.07,9
183,160.47,153.37,9
181,160.88,153.64,9
184,161.35,153.95,9
185,161.82,154.26,9
183,162.24,154.54,9
183,162.66,154.83,9
183,163.06,155.11,9
181,163.42,155.37,9
183,163.81,155.65,9
183,164.20,155.92,9
182,164.55,156.18,9
183,164.92,156.45,9
185,165.32,156.73,9
184,165.70,157.01,9
185,166.08,157.29,9
184,166.44,157.55,9
185,166.81,157.83,9
183,167.14,158.08,9
183,167.45,158.33,9
184,167.79,158.59,9
182,168.07,158.82,9
184,168.39,159.07,9
188,168.78,159.36,9
192,169.24,159.69,9
188,169.62,159.97,9
188,169.99,160.25,9
190,170.39,160.55,9
190,170.78,160.84,9
189,171.14,161.12,9
190,171.52,161.41,9
192,171.93,161.72,9
192,172.33,162.02,9
192,172.73,162.32,9
191,173.09,162.61,9
193,173.49,162.91,9
195,173.92,163.23,9
197,174.38,163.57,9
193,174.75,163.86,9
193,175.12,164.16,9
196,175.54,164.47,9
197,175.97,164.80,9
195,176.35,165.10,9
197,176.76,165.42,9
197,177.16,165.74,9
196,177.54,166.04,9
197,177.93,166.35,9
198,178.33,166.67,9
202,178.80,167.02,9
203,179.29,167.38,9
203,179.76,167.73,9
203,180.23,168.09,9
201,180.64,168.42,9
203,181.09,168.76,9
202,181.51,169.09,9
201,181.90,169.41,9
201,182.28,169.73,9
201,182.65,170.04,9
202,183.04,170.36,9
201,183.40,170.67,9
201,183.75,170.97,9
204,184.16,171.30,9
205,184.57,171.64,9
203,184.94,171.95,9
203,185.30,172.26,9
204,185.68,172.58,9
206,186.08,172.91,9
209,186.54,173.28,9
209,186.99,173.63,9
209,187.43,173.99,9
209,187.86,174.34,9
212,188.35,174.71,9
211,188.80,175.08,9
211,189.24,175.44,9
210,189.66,175.78,9
213,190.13,176.15,9
209,190.50,176.48,9
209,190.87,176.81,9
209,191.24,177.13,9
210,191.61,177.46,9
209,191.96,177.77,9
210,192.32,178.10,9
210,192.67,178.41,9
212,193.06,178.75,9
213,193.46,179.09,9
213,193.85,179.43,9
212,194.21,179.76,9
212,194.57,180.08,9
215,194.98,180.43,9
215,195.38,180.77,9
215,195.77,181.12,9
216,196.17,181.47,9
217,196.59,181.82,9
221,197.08,182.21,9
218,197.50,182.57,9
217,197.89,182.92,9
217,198.27,183.26,9
218,198.66,183.60,9
220,199.09,183.97,9
220,199.51,184.33,9
219,199.90,184.67,9
221,200.32,185.04,9
221,200.73,185.40,9
221,201.14,185.75,9
221,201.54,186.11,9
223,201.97,186.47,9
222,202.37,186.83,9
225,202.82,187.21,9
225,203.26,187.59,9
225,203.70,187.96,9
223,204.08,188.31,9
224,204.48,188.67,9
224,204.87,189.02,9
223,205.24,189.36,9
224,205.61,189.71,9
225,206.00,190.06,9
225,206.38,190.41,9
226,206.77,190.77,9
225,207.14,191.11,9
225,207.49,191.45,9
226,207.86,191.80,9
228,208.27,192.16,9
228,208.66,192.52,9
227,209.03,192.86,9
227,209.39,193.20,9
227,209.74,193.54,9
227,210.08,193.87,9
226,210.40,194.20,9
227,210.73,194.52,9
227,211.06,194.85,9
230,211.44,195.20,9
228,211.77,195.53,9
230,212.13,195.87,9
232,212.53,196.23,9
231,212.90,196.58,9
231,213.26,196.93,9
233,213.66,197.29,9
234,214.06,197.65,9
235,214.48,198.03,9
233,214.85,198.38,9
236,215.28,198.75,9
239,215.75,199.16,9
241,216.26,199.57,9
239,216.71,199.97,9
244,217.26,200.41,9
246,217.83,200.86,9
246,218.39,201.32,9
245,218.93,201.75,9
243,219.41,202.17,9
243,219.88,202.57,9
243,220.34,202.98,9
243,220.80,203.38,9
242,221.22,203.76,9
242,221.64,204.15,9
244,222.08,204.55,9
243,222.50,204.93,9
242,222.89,205.30,9
242,223.27,205.67,9
241,223.63,206.02,9
242,224.00,206.38,9
242,224.36,206.74,9
241,224.69,207.08,9
242,225.03,207.43,9
243,225.39,207.78,9
244,225.77,208.15,9
244,226.13,208.51,9
245,226.51,208.87,9
247,226.92,209.25,9
245,227.28,209.61,9
246,227.65,209.97,9
245,228.00,210.32,9
248,228.40,210.70,9
248,228.79,211.07,9
250,229.22,211.46,9
247,229.57,211.82,9
246,229.90,212.16,9
246,230.22,212.50,9
249,230.60,212.86,9
248,230.95,213.21,9
250,231.33,213.58,9
249,231.68,213.94,9
248,232.01,214.28,9
253,232.43,214.66,9
254,232.86,215.06,9
253,233.26,215.44,9
252,233.64,215.80,9
251,233.98,216.15,9
252,234.34,216.51,9
251,234.68,216.86,9
249,234.96,217.18,9
255,235.36,217.56,9
256,235.78,217.94,9
255,236.16,218.31,9
254,236.52,218.67,9
255,236.89,219.03,9
256,237.27,219.40,9
257,237.66,219.78,9
256,238.03,220.14,9
255,238.37,220.49,9
253,238.66,220.81,9
254,238.97,221.15,9
254,239.27,221.47,9
253,239.55,221.79,9
253,239.81,222.10,9
253,240.08,222.41,9
253,240.34,222.72,9
253,240.59,223.02,9
255,240.88,223.34,9
256,241.18,223.67,9
254,241.44,223.97,9
254,241.69,224.27,9
257,241.99,224.60,9
256,242.27,224.91,9
257,242.57,225.23,9
257,242.86,225.55,9
255,243.10,225.84,9
256,243.36,226.15,9
255,243.59,226.43,9
254,243.80,226.71,9
254,244.00,226.98,9
253,244.18,227.24,9
253,244.36,227.50,9
254,244.55,227.77,9
253,244.72,228.02,9
253,244.89,228.27,9
253,245.05,228.51,9
252,245.19,228.75,9
252,245.32,228.98,9
255,245.52,229.24,9
251,245.63,229.46,9
251,245.74,229.68,9
252,245.86,229.90,9
251,245.96,230.11,9
250,246.04,230.31,9
252,246.16,230.53,9
249,246.22,230.71,9
250,246.30,230.90,9
249,246.35,231.08,9
249,246.40,231.26,9
249,246.45,231.44,9
248,246.49,231.61,9
248,246.52,231.77,9
248,246.55,231.93,9
248,246.57,232.09,9
247,246.58,232.24,9
248,246.61,232.40,9
247,246.62,232.55,9
246,246.61,232.68,9
245,246.57,232.80,9
245,246.54,232.93,9
245,246.51,233.05,9
245,246.48,233.17,9
245,246.45,233.28,9
245,246.42,233.40,9
244,246.37,233.51,9
243,246.31,233.60,9
244,246.26,233.71,9
243,246.20,233.80,9
243,246.13,233.89,9
243,246.07,233.98,9
243,246.01,234.07,9
242,245.93,234.15,9
241,245.83,234.22,9
241,245.73,234.29,9
240,245.62,234.35,9
240,245.51,234.40,9
241,245.42,234.47,9
240,245.31,234.52,9
241,245.22,234.59,9
239,245.10,234.63,9
239,244.97,234.68,9
239,244.86,234.72,9
238,244.72,234.75,9
239,244.60,234.79,9
238,244.47,234.83,9
237,244.32,234.85,9
237,244.18,234.87,9
237,244.03,234.89,9
236,243.87,234.90,9
236,243.71,234.91,9
236,243.56,234.92,9
236,243.41,234.93,9
235,243.24,234.94,9
236,243.10,234.95,9
235,242.93,234.95,9
235,242.78,234.95,9
233,242.58,234.93,9
233,242.39,234.91,9
233,242.20,234.89,9
234,242.04,234.88,9
233,241.86,234.86,9
232,241.66,234.83,9
232,241.47,234.80,9
232,241.28,234.78,9
232,241.09,234.75,9
231,240.89,234.71,9
231,240.69,234.67,9
231,240.50,234.64,9
231,240.31,234.60,9
230,240.10,234.55,9
231,239.92,234.52,9
229,239.70,234.46,9
229,239.49,234.41,9
229,239.28,234.36,9
229,239.07,234.30,9
227,238.83,234.23,9
230,238.65,234.19,9
228,238.44,234.12,9
227,238.21,234.05,9
227,237.99,233.98,9
226,237.75,233.90,9
226,237.51,233.82,9
226,237.28,233.75,9
226,237.06,233.67,9
225,236.82,233.58,9
226,236.60,233.51,9
225,236.37,233.42,9
225,236.14,233.34,9
223,235.88,233.23,9
224,235.64,233.14,9
223,235.39,233.04,9
223,235.14,232.94,9
223,234.90,232.84,9
223,234.66,232.74,9
221,234.39,232.62,9
221,234.12,232.51,9
223,233.90,232.41,9
222,233.66,232.31,9
222,233.42,232.21,9
221,233.18,232.09,9
222,232.95,231.99,9
221,232.71,231.88,9
221,232.48,231.77,9
219,232.21,231.65,9
220,231.97,231.53,9
219,231.71,231.40,9
219,231.45,231.28,9
219,231.20,231.16,10
222,231.02,231.07,10
219,230.78,230.95,10
219,230.54,230.83,10
217,230.27,230.69,10
217,230.01,230.55,10
217,229.75,230.42,10
216,229.47,230.27,10
217,229.22,230.14,10
216,228.96,230.00,10
215,228.68,229.85,10
217,228.44,229.72,10
215,228.18,229.57,10
215,227.91,229.43,10
215,227.65,229.28,10
214,227.38,229.13,10
214,227.11,228.98,10
214,226.85,228.83,10
214,226.59,228.68,10
213,226.32,228.52,10
212,226.04,228.36,10
212,225.76,228.19,10
211,225.46,228.02,10
212,225.19,227.86,10
212,224.93,227.70,10
211,224.65,227.54,10
211,224.38,227.37,10
211,224.11,227.21,10
210,223.83,227.03,10
210,223.55,226.86,10
210,223.28,226.70,10
209,222.99,226.52,10
209,222.71,226.34,10
207,222.40,226.15,10
209,222.13,225.98,10
209,221.87,225.81,10
212,221.67,225.67,10
207,221.38,225.48,10
207,221.09,225.30,10
207,220.81,225.12,10
207,220.53,224.94,10
207,220.26,224.76,10
207,220.00,224.58,10
206,219.72,224.39,10
206,219.44,224.21,10
205,219.15,224.02,10
205,218.87,223.83,10
205,218.59,223.64,10
205,218.32,223.45,10
204,218.03,223.26,10
204,217.75,223.06,10
205,217.50,222.88,10
205,217.25,222.71,10
202,216.94,222.50,10
203,216.66,222.30,10
203,216.39,222.11,10
203,216.12,221.92,10
203,215.86,221.73,10
203,215.60,221.54,10
203,215.35,221.36,10
202,215.08,221.16,10
202,214.82,220.97,10
201,214.55,220.77,10
201,214.28,220.57,10
201,214.01,220.38,10
201,213.75,220.18,10
201,213.50,219.99,10
200,213.23,219.79,10
200,212.96,219.60,10
200,212.70,219.40,10
199,212.43,219.20,10
199,212.16,218.99,10
199,211.90,218.79,10
199,211.64,218.60,10
200,211.40,218.41,10
201,211.20,218.24,10
199,210.95,218.04,10
198,210.69,217.84,10
197,210.42,217.63,10
198,210.17,217.44,10
197,209.91,217.23,10
197,209.65,217.03,10
197,209.40,216.83,10
199,209.19,216.65,10
198,208.97,216.47,10
195,208.69,216.25,10
195,208.41,216.04,10
195,208.14,215.83,10
196,207.90,215.63,10
194,207.62,215.41,10
196,207.39,215.22,10
195,207.14,215.02,10
196,206.92,214.83,10
194,206.66,214.62,10
194,206.41,214.41,10
194,206.16,214.21,10
194,205.92,214.01,10
194,205.68,213.81,10
194,205.45,213.61,10
195,205.24,213.42,10
193,204.99,213.22,10
192,204.73,213.01,10
192,204.48,212.80,10
194,204.27,212.61,10
192,204.02,212.40,10
192,203.78,212.20,10
191,203.53,211.99,10
193,203.32,211.80,10
190,203.05,211.58,10
190,202.79,211.36,10
190,202.53,211.15,10
191,202.30,210.95,10
190,202.06,210.74,10
189,201.79,210.52,10
190,201.56,210.32,10
191,201.35,210.12,10
190,201.12,209.92,10
188,200.86,209.70,10
188,200.60,209.48,10
189,200.37,209.28,10
187,200.10,209.06,10
187,199.84,208.84,10
188,199.60,208.63,10
189,199.39,208.43,10
186,199.12,208.21,10
186,198.86,207.99,10
187,198.62,207.78,10
187,198.39,207.57,10
186,198.14,207.35,10
186,197.90,207.14,10
187,197.68,206.94,10
187,197.47,206.74,10
186,197.24,206.53,10
184,196.97,206.31,10
184,196.72,206.08,10
185,196.48,205.87,10
184,196.23,205.65,10
184,195.99,205.44,10
184,195.75,205.22,10
184,195.51,205.01,10
182,195.24,204.78,10
183,195.00,204.56,10
182,194.74,204.34,10
183,194.50,204.12,10
183,194.27,203.91,10
181,194.01,203.68,10
181,193.75,203.46,10
183,193.53,203.25,10
182,193.30,203.04,10
179,193.01,202.80,10
181,192.77,202.58,10
179,192.50,202.34,10
179,192.23,202.11,10
179,191.96,201.88,10
180,191.73,201.66,10
178,191.45,201.42,10
180,191.22,201.21,10
178,190.96,200.98,10
178,190.70,200.75,10
179,190.46,200.53,10
178,190.22,200.31,10
177,189.95,200.07,10
177,189.69,199.84,10
177,189.44,199.61,10
176,189.17,199.38,10
176,188.91,199.14,10
176,188.65,198.91,10
176,188.39,198.68,10
176,188.15,198.46,10
175,187.88,198.22,10
175,187.63,197.99,10
175,187.37,197.76,10
175,187.13,197.53,10
175,186.88,197.31,10
174,186.63,197.07,10
174,186.37,196.84,10
171,186.07,196.58,10
174,185.82,196.36,10
173,185.57,196.12,10
174,185.34,195.90,10
173,185.09,195.67,10
173,184.85,195.45,10
172,184.59,195.21,10
173,184.36,194.99,10
173,184.13,194.77,10
173,183.91,194.55,10
173,183.69,194.34,10
172,183.46,194.11,10
171,183.21,193.88,10
171,182.96,193.65,10
171,182.73,193.43,10
171,182.49,193.20,10
172,182.28,192.99,10
171,182.06,192.77,10
171,181.83,192.55,10
171,181.62,192.34,10
171,181.41,192.13,10
170,181.18,191.90,10
170,180.95,191.68,10
169,180.71,191.46,10
170,180.50,191.24,10
170,180.29,191.03,10
170,180.08,190.82,10
169,179.86,190.60,10
168,179.63,190.38,10
169,179.41,190.16,10
168,179.18,189.94,10
169,178.98,189.73,10
168,178.76,189.51,10
168,178.55,189.30,10
168,178.34,189.09,10
166,178.09,188.86,10
167,177.87,188.64,10
167,177.65,188.42,10
167,177.44,188.21,10
167,177.23,187.99,10
167,177.02,187.78,10
168,176.84,187.59,10
167,176.65,187.38,10
166,176.43,187.17,10
166,176.22,186.96,10
167,176.04,186.76,10
166,175.84,186.55,10
166,175.64,186.34,10
165,175.43,186.13,10
167,175.26,185.94,10
165,175.06,185.73,10
165,174.85,185.52,10
166,174.68,185.33,10
165,174.48,185.12,10
165,174.29,184.92,10
164,174.09,184.71,10
164,173.89,184.51,10
164,173.69,184.30,10
165,173.52,184.11,10
164,173.32,183.91,10
163,173.12,183.70,10
163,172.92,183.49,10
163,172.72,183.29,10
163,172.52,183.08,10
163,172.33,182.88,10
164,172.17,182.69,10
163,171.98,182.50,10
162,171.78,182.29,10
162,171.59,182.09,10
162,171.40,181.89,10
161,171.19,181.68,10
161,170.98,181.47,10
161,170.78,181.27,10
162,170.61,181.07,10
161,170.42,180.87,10
160,170.21,180.66,10
161,170.02,180.47,10
162,169.86,180.28,10
161,169.69,180.09,10
161,169.51,179.90,10
159,169.30,179.69,10
167,169.26,179.56,10
162,169.11,179.39,10
162,168.97,179.21,10
161,168.81,179.03,10
161,168.65,178.85,10
161,168.50,178.67,10
159,168.31,178.48,10
159,168.12,178.28,10
161,167.98,178.11,10
160,167.82,177.93,10
159,167.65,177.74,10
159,167.47,177.55,10
159,167.30,177.37,10
159,167.14,177.18,10
159,166.97,177.00,10
159,166.81,176.82,10
160,166.68,176.65,10
159,166.53,176.48,10
158,166.35,176.29,10
158,166.19,176.11,10
159,166.04,175.94,10
158,165.88,175.76,10
158,165.73,175.58,10
157,165.55,175.39,10
158,165.40,175.22,10
157,165.23,175.04,10
157,165.07,174.86,10
156,164.89,174.67,10
155,164.69,174.47,10
155,164.49,174.28,10
155,164.30,174.08,10
157,164.16,173.91,10
156,164.00,173.73,10
156,163.84,173.56,10
156,163.68,173.38,10
156,163.52,173.21,10
155,163.35,173.03,10
155,163.19,172.85,10
155,163.02,172.67,10
156,162.88,172.50,10
156,162.75,172.34,10
155,162.59,172.16,10
155,162.44,171.99,10
154,162.27,171.81,10
154,162.10,171.63,10
154,161.94,171.46,10
154,161.78,171.28,10
155,161.65,171.12,10
154,161.50,170.95,10
153,161.33,170.77,10
154,161.18,170.60,10
153,161.02,170.42,10
153,160.85,170.25,10
154,160.72,170.09,10
153,160.56,169.92,10
153,160.41,169.75,10
154,160.28,169.59,10
153,160.14,169.42,10
154,160.02,169.27,10
153,159.88,169.11,10
153,159.74,168.95,10
152,159.58,168.78,10
152,159.43,168.61,10
152,159.28,168.44,10
153,159.16,168.29,10
153,159.03,168.14,10
152,158.89,167.97,10
151,158.74,167.80,10
151,158.58,167.64,10
151,158.43,167.47,10
151,158.28,167.31,10
151,158.13,167.14,10
151,157.99,166.98,10
152,157.87,166.83,10
150,157.71,166.66,10
151,157.58,166.51,10
151,157.45,166.35,10
150,157.30,166.19,10
150,157.15,166.03,10
152,157.05,165.89,10
150,156.91,165.73,10
150,156.77,165.57,10
149,156.62,165.40,10
149,156.46,165.24,10
150,156.33,165.09,10
150,156.21,164.94,10
150,156.08,164.79,10
150,155.96,164.64,10
149,155.82,164.48,10
151,155.73,164.35,10
149,155.59,164.19,10
150,155.48,164.05,10
149,155.35,163.90,10
149,155.22,163.75,10
147,155.06,163.59,10
149,154.94,163.44,10
148,154.80,163.29,10
149,154.68,163.14,10
147,154.53,162.98,10
148,154.40,162.83,10
147,154.25,162.67,10
147,154.11,162.52,10
147,153.96,162.36,10
146,153.80,162.20,10
147,153.67,162.05,10
145,153.50,161.87,10
146,153.35,161.72,10
147,153.22,161.57,10
146,153.07,161.41,10
146,152.93,161.26,10
147,152.81,161.12,10
147,152.70,160.98,10
147,152.58,160.84,10
147,152.47,160.70,10
146,152.34,160.55,10
147,152.24,160.41,10
147,152.13,160.28,10
146,152.01,160.14,10
146,151.89,160.00,10
146,151.77,159.86,10
147,151.67,159.73,10
145,151.54,159.58,10
146,151.43,159.44,10
146,151.32,159.31,10
147,151.24,159.19,10
145,151.11,159.05,10
145,150.99,158.91,10
146,150.89,158.78,10
146,150.79,158.65,10
146,150.70,158.52,10
145,150.58,158.39,10
145,150.47,158.25,10
145,150.36,158.12,10
146,150.27,158.00,10
145,150.17,157.87,10
146,150.08,157.75,10
145,149.98,157.62,10
146,149.90,157.51,10
145,149.80,157.38,10
146,149.73,157.27,10
144,149.61,157.14,10
145,149.52,157.01,10
145,149.43,156.89,10
145,149.34,156.77,10
143,149.22,156.64,10
144,149.11,156.51,10
144,149.01,156.39,10
145,148.93,156.27,10
144,148.83,156.15,10
145,148.75,156.04,10
146,148.70,155.94,10
145,148.63,155.83,10
143,148.51,155.70,10
145,148.44,155.59,10
144,148.35,155.48,10
146,148.31,155.38,10
145,148.24,155.28,10
144,148.16,155.17,10
145,148.09,155.06,10
145,148.03,154.96,10
145,147.97,154.86,10
144,147.89,154.75,10
144,147.81,154.65,10
144,147.74,154.54,10
144,147.66,154.44,10
145,147.61,154.34,10
144,147.54,154.24,10
145,147.49,154.14,10
146,147.46,154.06,10
144,147.39,153.96,10
144,147.32,153.86,10
144,147.25,153.76,10
144,147.19,153.67,10
146,147.16,153.59,10
146,147.14,153.51,10
144,147.08,153.42,10
146,147.06,153.35,10
147,147.06,153.28,10
146,147.03,153.21,10
146,147.01,153.14,10
146,146.99,153.07,10
145,146.95,152.98,10
145,146.91,152.90,10
146,146.90,152.84,10
146,146.88,152.77,10
146,146.86,152.70,10
146,146.84,152.63,10
147,146.85,152.58,10
146,146.83,152.51,10
145,146.79,152.44,10
145,146.76,152.36,10
145,146.72,152.29,10
146,146.71,152.22,10
146,146.69,152.16,10
144,146.64,152.08,10
144,146.59,152.00,10
145,146.55,151.93,10
144,146.50,151.85,10
144,146.45,151.77,10
144,146.40,151.69,10
143,146.34,151.61,10
144,146.29,151.53,10
144,146.24,151.46,10
144,146.20,151.38,10
144,146.16,151.31,10
144,146.11,151.23,10
144,146.07,151.16,10
143,146.01,151.08,10
142,145.93,150.99,10
144,145.89,150.92,10
143,145.83,150.84,10
144,145.80,150.77,10
143,145.74,150.69,10
143,145.68,150.62,10
143,145.63,150.54,10
144,145.60,150.48,10
143,145.55,150.40,10
145,145.54,150.35,10
144,145.50,150.28,10
144,145.47,150.22,10
144,145.45,150.16,10
148,145.50,150.14,10
145,145.49,150.09,10
143,145.44,150.02,10
143,145.39,149.94,10
144,145.36,149.89,10
145,145.35,149.84,10
145,145.35,149.79,10
144,145.32,149.73,10
144,145.29,149.67,10
144,145.27,149.62,10
143,145.22,149.55,10
144,145.20,149.49,10
144,145.17,149.44,10
144,145.15,149.39,10
144,145.13,149.33,10
144,145.10,149.28,10
145,145.10,149.24,10
145,145.10,149.19,10
146,145.12,149.16,10
146,145.14,149.13,10
145,145.13,149.09,10
145,145.13,149.05,10
145,145.13,149.01,10
145,145.13,148.97,10
145,145.12,148.93,10
144,145.10,148.88,10
143,145.06,148.82,10
143,145.02,148.76,10
146,145.04,148.73,10
145,145.04,148.70,10
145,145.04,148.66,10
146,145.05,148.63,10
145,145.05,148.60,10
145,145.05,148.56,10
144,145.03,148.51,10
148,145.09,148.51,10
146,145.11,148.48,10
144,145.09,148.44,10
144,145.06,148.40,10
144,145.04,148.35,10
144,145.02,148.31,10
143,144.98,148.25,10
143,144.94,148.20,10
143,144.90,148.15,10
144,144.89,148.11,10
143,144.85,148.06,10
143,144.81,148.01,10
143,144.77,147.96,10
143,144.74,147.91,10
143,144.70,147.86,10
146,144.73,147.84,10
145,144.74,147.81,10
145,144.74,147.78,10
145,144.75,147.76,10
145,144.75,147.73,10
144,144.74,147.69,10
145,144.74,147.66,10
145,144.75,147.64,10
146,144.77,147.62,10
146,144.80,147.60,10
145,144.80,147.58,10
146,144.82,147.56,10
145,144.83,147.54,10
145,144.83,147.51,10
145,144.83,147.49,10
145,144.84,147.46,10
145,144.84,147.44,10
146,144.86,147.42,10
144,144.85,147.39,10
144,144.83,147.35,10
143,144.79,147.31,10
144,144.78,147.28,10
145,144.78,147.25,10
146,144.81,147.24,10
145,144.81,147.22,10
146,144.83,147.21,10
147,144.88,147.21,10
146,144.90,147.19,10
146,144.92,147.18,10
146,144.94,147.17,10
145,144.94,147.15,10
147,144.99,147.15,10
148,145.05,147.16,10
145,145.05,147.13,10
146,145.06,147.12,10
146,145.08,147.11,10
146,145.10,147.10,10
146,145.12,147.09,10
145,145.12,147.07,10
146,145.13,147.06,10
146,145.15,147.05,10
148,145.21,147.06,10
147,145.24,147.06,10
148,145.30,147.07,10
150,145.39,147.09,10
151,145.51,147.13,10
150,145.60,147.16,10
150,145.68,147.19,10
154,145.85,147.26,10
154,146.01,147.33,10
154,146.17,147.39,10
152,146.29,147.44,10
154,146.44,147.50,10
154,146.59,147.57,10
155,146.76,147.64,10
151,146.85,147.68,10
153,146.97,147.73,10
154,147.11,147.79,10
155,147.27,147.87,10
153,147.38,147.92,10
153,147.50,147.97,10
154,147.63,148.03,10
153,147.73,148.08,10
153,147.84,148.13,10
154,147.96,148.19,10
154,148.08,148.24,10
154,148.20,148.30,11
155,148.34,148.37,11
155,148.47,148.43,12
155,148.60,148.50,12
155,148.73,148.57,12
154,148.83,148.62,12
154,148.94,148.67,12
154,149.04,148.73,12
154,149.14,148.78,12
154,149.24,148.83,12
154,149.33,148.88,12
156,149.46,148.95,12
155,149.58,149.01,12
155,149.68,149.07,12
155,149.79,149.13,12
154,149.87,149.18,12
154,149.96,149.23,12
154,150.04,149.28,12
155,150.14,149.34,12
154,150.21,149.38,12
154,150.29,149.43,12
154,150.36,149.47,12
154,150.44,149.52,12
157,150.57,149.59,12
155,150.66,149.65,12
156,150.76,149.71,12
157,150.89,149.78,12
155,150.97,149.84,12
156,151.07,149.90,12
156,151.17,149.96,12
156,151.27,150.02,12
157,151.38,150.09,12
156,151.47,150.15,12
157,151.58,150.22,12
158,151.71,150.30,12
156,151.80,150.35,12
157,151.90,150.42,12
157,152.00,150.48,12
158,152.12,150.56,12
158,152.24,150.63,12
157,152.34,150.70,12
156,152.41,150.75,12
156,152.48,150.80,12
155,152.53,150.85,12
157,152.62,150.91,12
156,152.69,150.96,12
158,152.80,151.03,12
157,152.88,151.09,12
158,152.98,151.16,12
158,153.08,151.23,12
159,153.20,151.30,12
159,153.32,151.38,12
158,153.41,151.45,12
157,153.48,151.50,12
159,153.59,151.58,12
158,153.68,151.64,12
158,153.77,151.70,12
158,153.85,151.77,12
156,153.89,151.81,12
156,153.94,151.85,12
158,154.02,151.91,12
157,154.08,151.96,12
159,154.18,152.03,12
161,154.31,152.12,12
159,154.41,152.19,12
160,154.52,152.27,12
161,154.65,152.36,12
159,154.73,152.42,12
159,154.82,152.49,12
161,154.94,152.58,12
161,155.06,152.66,12
160,155.16,152.73,12
162,155.30,152.83,12
162,155.43,152.92,12
161,155.55,153.00,12
163,155.69,153.10,12
163,155.84,153.20,12
162,155.96,153.29,12
162,156.08,153.37,12
162,156.20,153.46,12
162,156.32,153.54,12
162,156.43,153.63,12
163,156.56,153.72,12
161,156.65,153.80,12
161,156.74,153.87,12
163,156.86,153.96,12
164,157.01,154.06,12
163,157.13,154.15,12
163,157.24,154.24,12
162,157.34,154.31,12
162,157.43,154.39,12
163,157.54,154.48,12
164,157.67,154.57,12
164,157.80,154.67,12
163,157.90,154.75,12
162,157.99,154.82,12
162,158.07,154.89,12
163,158.16,154.98,12
164,158.28,155.07,12
163,158.38,155.15,12
163,158.47,155.22,12
162,158.54,155.29,12
165,158.67,155.39,12
163,158.75,155.47,12
163,158.84,155.54,12
168,159.02,155.66,12
163,159.10,155.74,12
163,159.18,155.81,12
163,159.26,155.88,12
163,159.33,155.95,12
163,159.41,156.02,12
164,159.50,156.10,12
163,159.57,156.17,12
163,159.64,156.24,12
163,159.70,156.31,12
165,159.81,156.40,12
166,159.93,156.49,12
165,160.03,156.58,12
166,160.15,156.67,12
165,160.25,156.75,12
166,160.37,156.85,12
165,160.46,156.93,12
166,160.57,157.02,12
167,160.70,157.12,12
166,160.80,157.21,12
165,160.89,157.29,12
166,160.99,157.37,12
166,161.09,157.46,12
169,161.25,157.57,12
166,161.34,157.66,12
166,161.44,157.74,12
166,161.53,157.82,12
165,161.60,157.90,12
165,161.67,157.97,12
165,161.73,158.04,12
166,161.82,158.12,12
170,161.98,158.24,12
170,162.14,158.35,12
169,162.28,158.46,12
170,162.43,158.58,12
175,162.68,158.74,12
174,162.91,158.89,12
173,163.11,159.03,12
174,163.33,159.18,12
172,163.50,159.31,12
175,163.73,159.47,12
173,163.92,159.60,12
173,164.10,159.74,12
173,164.28,159.87,12
172,164.43,159.99,12
174,164.62,160.13,12
175,164.83,160.28,12
176,165.06,160.44,12
178,165.31,160.61,12
176,165.53,160.77,12
176,165.74,160.92,12
177,165.96,161.08,12
177,166.18,161.24,12
178,166.42,161.41,12
179,166.67,161.58,12
178,166.90,161.75,12
180,167.16,161.93,12
182,167.46,162.13,12
180,167.71,162.31,12
182,167.99,162.51,12
183,168.29,162.71,12
183,168.59,162.91,12
183,168.88,163.11,12
183,169.16,163.31,12
183,169.44,163.51,12
183,169.71,163.71,12
179,169.89,163.86,12
181,170.11,164.03,12
184,170.39,164.23,12
183,170.64,164.42,12
183,170.89,164.60,12
184,171.15,164.80,12
186,171.45,165.01,12
186,171.74,165.22,12
183,171.97,165.40,12
184,172.21,165.58,12
188,172.52,165.81,12
188,172.83,166.03,12
191,173.20,166.28,12
192,173.57,166.54,12
190,173.90,166.77,12
189,174.20,166.99,12
187,174.46,167.19,12
189,174.75,167.41,12
189,175.03,167.63,12
188,175.29,167.83,12
188,175.55,168.03,12
190,175.84,168.25,12
194,176.20,168.51,12
192,176.52,168.74,12
194,176.87,169.00,12
194,177.21,169.25,12
197,177.60,169.52,12
199,178.03,169.82,12
196,178.39,170.08,12
197,178.76,170.35,12
198,179.15,170.63,12
198,179.53,170.90,12
197,179.88,171.16,12
197,180.22,171.42,12
197,180.55,171.68,12
196,180.86,171.92,12
195,181.15,172.15,12
196,181.44,172.39,12
199,181.79,172.65,12
199,182.14,172.92,12
200,182.49,173.19,12
202,182.88,173.48,12
203,183.29,173.77,12
203,183.68,174.06,12
202,184.05,174.34,12
201,184.39,174.61,12
201,184.72,174.87,12
200,185.02,175.13,12
200,185.32,175.37,12
201,185.64,175.63,12
201,185.94,175.88,12
201,186.25,176.14,12
202,186.56,176.39,12
202,186.87,176.65,12
201,187.15,176.89,12
201,187.43,177.13,12
201,187.70,177.37,12
202,187.99,177.62,12
203,188.29,177.87,12
205,188.62,178.14,12
205,188.95,178.41,12
203,189.23,178.66,12
203,189.51,178.90,12
204,189.80,179.15,12
203,190.06,179.39,12
204,190.34,179.64,12
203,190.59,179.87,12
205,190.88,180.12,12
204,191.14,180.36,12
206,191.44,180.62,12
206,191.73,180.87,12
204,191.98,181.10,12
205,192.24,181.34,12
208,192.55,181.61,12
207,192.84,181.86,12
207,193.12,182.11,12
211,193.48,182.40,12
211,193.83,182.69,12
212,194.20,182.98,12
210,194.51,183.25,12
210,194.82,183.52,12
212,195.16,183.80,12
215,195.56,184.12,12
214,195.93,184.42,12
213,196.27,184.70,12
214,196.63,184.99,12
212,196.93,185.26,12
213,197.25,185.54,12
213,197.57,185.82,12
213,197.88,186.09,12
212,198.16,186.35,12
213,198.46,186.61,12
214,198.77,186.89,12
215,199.09,187.17,12
217,199.45,187.47,12
216,199.78,187.75,12
220,200.19,188.07,12
221,200.60,188.40,12
220,200.99,188.72,12
220,201.37,189.03,12
219,201.72,189.33,12
220,202.09,189.64,12
222,202.49,189.96,12
219,202.82,190.25,12
221,203.18,190.56,12
222,203.56,190.87,12
222,203.93,191.19,12
221,204.27,191.48,12
221,204.60,191.78,12
219,204.89,192.05,12
220,205.19,192.33,12
220,205.49,192.61,12
221,205.80,192.89,12
221,206.10,193.17,12
220,206.38,193.44,12
221,206.67,193.72,12
222,206.98,194.00,12
221,207.26,194.27,12
221,207.54,194.54,12
221,207.80,194.80,12
223,208.11,195.08,12
221,208.37,195.34,12
221,208.62,195.60,12
221,208.87,195.85,12
219,209.07,196.08,12
219,209.27,196.31,12
219,209.46,196.54,12
219,209.65,196.77,12
219,209.84,196.99,12
218,210.00,197.20,12
219,210.18,197.42,12
218,210.34,197.62,12
217,210.47,197.82,12
217,210.60,198.01,12
217,210.73,198.20,12
217,210.86,198.39,12
218,211.00,198.58,12
219,211.16,198.79,12
218,211.30,198.98,12
218,211.43,199.17,12
218,211.56,199.36,12
218,211.69,199.54,12
217,211.80,199.72,12
217,211.90,199.89,12
217,212.00,200.06,12
216,212.08,200.22,12
216,212.16,200.38,12
215,212.22,200.52,12
214,212.25,200.66,12
215,212.31,200.80,12
214,212.34,200.93,12
215,212.40,201.08,12
215,212.45,201.21,12
214,212.48,201.34,12
216,212.55,201.49,12
218,212.66,201.65,12
214,212.68,201.78,12
214,212.71,201.90,12
214,212.74,202.02,12
213,212.74,202.13,12
212,212.73,202.23,12
213,212.73,202.34,12
213,212.74,202.44,12
212,212.72,202.54,12
211,212.69,202.62,12
211,212.66,202.71,12
212,212.64,202.80,12
210,212.59,202.87,12
211,212.56,202.95,12
211,212.53,203.03,12
211,212.50,203.11,12
209,212.43,203.17,12
209,212.36,203.23,12
210,212.31,203.30,12
209,212.24,203.36,12
208,212.16,203.40,12
209,212.10,203.46,12
207,211.99,203.49,12
207,211.89,203.53,12
207,211.80,203.56,12
207,211.70,203.60,12
207,211.61,203.63,12
207,211.51,203.67,12
207,211.42,203.70,12
207,211.34,203.73,12
207,211.25,203.76,12
207,211.16,203.80,12
207,211.08,203.83,12
206,210.98,203.85,12
206,210.88,203.87,12
210,210.86,203.93,12
205,210.74,203.94,12
205,210.63,203.95,12
205,210.52,203.97,12
204,210.39,203.97,12
204,210.26,203.97,12
204,210.13,203.97,12
204,210.01,203.97,12
203,209.87,203.96,12
203,209.73,203.95,12
203,209.60,203.94,12
203,209.47,203.93,12
201,209.30,203.90,12
203,209.17,203.89,12
202,209.03,203.87,12
202,208.89,203.85,12
201,208.73,203.82,12
201,208.58,203.80,12
201,208.42,203.77,12
200,208.26,203.73,12
200,208.09,203.69,12
200,207.93,203.66,12
200,207.77,203.62,12
199,207.59,203.57,12
198,207.40,203.52,12
198,207.21,203.46,12
199,207.05,203.42,12
199,206.89,203.37,12
199,206.73,203.33,12
197,206.54,203.27,12
198,206.37,203.21,12
199,206.22,203.17,12
198,206.05,203.12,12
198,205.89,203.07,12
196,205.70,203.00,12
197,205.52,202.94,12
198,205.37,202.89,12
196,205.18,202.82,12
195,204.98,202.74,12
194,204.76,202.65,12
196,204.59,202.59,12
195,204.39,202.51,12
194,204.19,202.43,12
195,204.00,202.35,12
198,203.88,202.31,12
193,203.66,202.22,12
193,203.45,202.12,12
193,203.24,202.03,12
194,203.06,201.95,12
193,202.86,201.86,12
192,202.64,201.76,12
192,202.43,201.67,12
193,202.24,201.58,12
192,202.03,201.48,12
191,201.81,201.38,12
191,201.60,201.28,12
191,201.38,201.17,12
189,201.14,201.05,13
190,200.91,200.94,13
190,200.70,200.83,13
190,200.48,200.72,13
190,200.27,200.62,13
189,200.05,200.50,13
188,199.81,200.37,13
189,199.59,200.26,13
189,199.38,200.15,13
188,199.15,200.03,13
188,198.93,199.91,13
188,198.71,199.79,13
187,198.47,199.66,13
187,198.24,199.53,13
186,198.00,199.40,13
187,197.78,199.27,13
186,197.54,199.14,13
185,197.29,199.00,13
185,197.05,198.86,13
185,196.81,198.72,13
185,196.57,198.58,13
184,196.32,198.44,13
185,196.09,198.30,13
187,195.91,198.19,13
185,195.69,198.06,13
185,195.48,197.93,13
185,195.27,197.80,13
186,195.08,197.68,13
185,194.88,197.55,13
184,194.66,197.42,13
185,194.47,197.29,13
184,194.26,197.16,13
184,194.06,197.03,13
184,193.86,196.90,13
182,193.62,196.75,13
184,193.43,196.62,13
183,193.22,196.49,13
182,192.99,196.34,13
181,192.75,196.19,13
183,192.56,196.06,13
182,192.35,195.92,13
182,192.14,195.78,13
182,191.94,195.64,13
184,191.78,195.52,13
182,191.58,195.39,13
181,191.37,195.24,13
181,191.16,195.10,13
181,190.96,194.96,13
178,190.70,194.79,13
179,190.47,194.63,13
183,190.32,194.52,13
180,190.11,194.37,13
180,189.91,194.23,13
179,189.69,194.07,13
179,189.48,193.92,13
179,189.27,193.77,13
179,189.06,193.63,13
178,188.84,193.47,13
179,188.64,193.33,13
178,188.43,193.17,13
178,188.22,193.02,13
178,188.02,192.87,13
178,187.82,192.72,13
178,187.62,192.57,13
177,187.41,192.42,13
176,187.18,192.26,13
176,186.96,192.09,13
177,186.76,191.94,13
177,186.56,191.79,13
175,186.33,191.62,13
176,186.13,191.47,13
176,185.92,191.31,13
176,185.72,191.16,13
175,185.51,191.00,13
174,185.28,190.83,13
176,185.09,190.68,13
175,184.89,190.52,13
174,184.67,190.36,13
175,184.48,190.20,13
174,184.27,190.04,13
176,184.11,189.90,13
175,183.92,189.75,13
174,183.73,189.60,13
173,183.51,189.43,13
173,183.30,189.27,13
173,183.09,189.10,13
173,182.89,188.94,13
173,182.69,188.78,13
173,182.50,188.62,13
171,182.27,188.45,13
173,182.09,188.29,13
171,181.86,188.12,13
172,181.67,187.96,13
171,181.45,187.79,13
172,181.26,187.63,13
171,181.06,187.47,13
171,180.86,187.30,13
169,180.62,187.12,13
170,180.41,186.95,13
170,180.20,186.78,13
170,180.00,186.61,13
170,179.80,186.44,13
170,179.60,186.28,13
170,179.41,186.12,13
170,179.22,185.96,13
169,179.02,185.79,13
169,178.82,185.62,13
172,178.68,185.48,13
168,178.47,185.31,13
168,178.26,185.13,13
168,178.05,184.96,13
168,177.85,184.79,13
168,177.65,184.62,13
168,177.46,184.46,13
167,177.25,184.28,13
166,177.03,184.10,13
167,176.83,183.93,13
167,176.63,183.76,13
167,176.44,183.59,13
166,176.23,183.42,13
166,176.02,183.24,13
167,175.84,183.08,13
166,175.65,182.91,13
165,175.43,182.73,13
166,175.24,182.56,13
165,175.04,182.39,13
165,174.84,182.21,13
165,174.64,182.04,13
164,174.43,181.86,13
164,174.22,181.68,13
164,174.02,181.51,13
163,173.80,181.32,13
163,173.58,181.14,13
162,173.35,180.95,13
163,173.14,180.77,13
163,172.94,180.59,13
163,172.74,180.41,13
161,172.50,180.22,13
163,172.31,180.05,13
162,172.11,179.87,13
162,171.91,179.69,13
162,171.71,179.51,13
163,171.53,179.35,13
161,171.32,179.16,13
159,171.08,178.96,13
161,170.88,178.78,13
161,170.68,178.60,13
161,170.48,178.43,13
161,170.29,178.25,13
161,170.11,178.08,13
161,169.93,177.91,13
160,169.73,177.73,13
160,169.53,177.55,13
159,169.32,177.37,13
159,169.12,177.18,13
160,168.93,177.01,13
160,168.76,176.84,13
159,168.56,176.66,13
160,168.39,176.50,13
159,168.20,176.32,13
159,168.02,176.15,13
159,167.84,175.98,13
159,167.66,175.81,13
158,167.47,175.63,13
162,167.36,175.49,13
158,167.17,175.32,13
159,167.01,175.16,13
157,166.81,174.97,13
158,166.63,174.80,13
158,166.46,174.64,13
158,166.29,174.47,13
157,166.10,174.29,13
157,165.92,174.12,13
157,165.74,173.95,13
157,165.57,173.78,13
156,165.38,173.60,13
156,165.19,173.43,13
155,164.99,173.24,13
156,164.81,173.07,13
156,164.63,172.90,13
155,164.44,172.72,13
156,164.27,172.55,13
155,164.08,172.38,13
154,163.88,172.19,13
155,163.70,172.02,13
155,163.53,171.85,13
154,163.34,171.67,13
154,163.15,171.50,13
154,162.97,171.32,13
154,162.79,171.15,13
154,162.61,170.98,13
153,162.42,170.80,13
153,162.23,170.62,13
152,162.03,170.43,13
153,161.85,170.26,13
153,161.67,170.09,13
153,161.50,169.92,13
153,161.33,169.75,13
153,161.16,169.58,13
152,160.98,169.40,13
153,160.82,169.24,13
153,160.66,169.08,13
153,160.51,168.92,13
152,160.34,168.75,13
152,160.17,168.58,13
152,160.01,168.41,13
151,159.83,168.24,13
151,159.65,168.07,13
151,159.48,167.90,13
151,159.31,167.73,13
151,159.14,167.56,13
150,158.96,167.38,13
150,158.78,167.21,13
150,158.61,167.04,13
150,158.43,166.87,13
149,158.24,166.69,13
150,158.08,166.52,13
150,157.92,166.36,13
150,157.76,166.19,13
149,157.58,166.02,13
150,157.43,165.86,13
149,157.26,165.69,13
148,157.08,165.52,13
147,156.88,165.33,13
148,156.70,165.16,13
148,156.53,164.99,13
148,156.36,164.82,13
148,156.19,164.65,13
148,156.02,164.48,13
148,155.86,164.32,13
147,155.69,164.14,13
146,155.49,163.96,13
147,155.32,163.79,13
147,155.16,163.62,13
146,154.97,163.45,13
145,154.77,163.26,13
146,154.60,163.09,13
145,154.41,162.91,13
146,154.24,162.74,13
146,154.07,162.57,13
147,153.93,162.42,13
146,153.77,162.25,13
145,153.60,162.08,13
145,153.43,161.91,13
145,153.26,161.74,13
145,153.09,161.57,13
144,152.91,161.40,13
145,152.75,161.23,13
146,152.62,161.08,13
144,152.44,160.91,13
144,152.28,160.74,13
144,152.11,160.57,13
144,151.95,160.41,13
145,151.81,160.25,13
144,151.65,160.09,13
144,151.50,159.93,13
144,151.35,159.77,13
143,151.18,159.60,13
143,151.02,159.44,13
144,150.88,159.28,13
144,150.74,159.13,13
143,150.59,158.97,13
144,150.45,158.82,13
144,150.33,158.67,13
145,150.22,158.54,13
143,150.07,158.38,13
143,149.93,158.23,13
144,149.81,158.08,13
143,149.68,157.93,13
141,149.50,157.76,13
142,149.35,157.61,13
143,149.23,157.46,13
143,149.10,157.32,13
143,148.98,157.17,13
143,148.86,157.03,13
142,148.72,156.88,13
143,148.61,156.74,13
142,148.48,156.59,13
142,148.35,156.45,13
142,148.22,156.30,13
142,148.10,156.16,13
143,147.99,156.03,13
141,147.85,155.88,13
142,147.74,155.74,13
142,147.62,155.60,13
143,147.53,155.48,13
142,147.42,155.34,13
141,147.29,155.20,13
142,147.19,155.07,13
141,147.06,154.93,13
142,146.96,154.80,13
141,146.84,154.66,13
142,146.74,154.53,13
141,146.63,154.40,13
141,146.52,154.26,13
141,146.41,154.13,13
142,146.32,154.01,13
141,146.21,153.88,13
141,146.11,153.75,13
141,146.01,153.62,13
141,145.91,153.50,13
139,145.77,153.35,13
139,145.63,153.21,13
141,145.54,153.09,13
140,145.43,152.95,13
141,145.34,152.83,13
141,145.25,152.72,13
141,145.17,152.60,13
141,145.09,152.48,13
140,144.98,152.36,13
140,144.88,152.24,13
140,144.79,152.11,13
141,144.71,152.00,13
141,144.64,151.89,13
140,144.54,151.77,13
140,144.45,151.65,13
141,144.38,151.55,13
141,144.32,151.44,13
140,144.23,151.33,13
140,144.15,151.22,13
140,144.06,151.10,13
140,143.98,150.99,13
139,143.88,150.87,13
139,143.78,150.75,13
138,143.67,150.63,13
140,143.59,150.52,13
139,143.50,150.40,13
140,143.43,150.30,13
139,143.34,150.19,13
139,143.26,150.08,13
139,143.17,149.96,13
139,143.09,149.86,13
139,143.01,149.75,13
138,142.91,149.63,13
139,142.83,149.52,13
138,142.73,149.41,13
137,142.62,149.28,13
138,142.53,149.17,13
138,142.43,149.06,13
137,142.33,148.94,13
136,142.20,148.81,13
137,142.10,148.69,13
138,142.01,148.58,13
137,141.91,148.47,13
137,141.81,148.35,13
136,141.70,148.23,13
136,141.58,148.11,13
136,141.47,147.99,13
136,141.36,147.87,13
136,141.26,147.75,13
137,141.17,147.64,13
136,141.07,147.52,13
136,140.97,147.41,13
135,140.85,147.28,13
136,140.75,147.17,13
135,140.64,147.05,13
135,140.52,146.93,13
135,140.41,146.81,13
134,140.28,146.68,13
135,140.18,146.57,13
136,140.09,146.46,13
134,139.97,146.34,13
135,139.87,146.22,13
136,139.80,146.12,13
135,139.70,146.01,13
136,139.63,145.91,13
136,139.55,145.81,13
134,139.44,145.69,13
135,139.35,145.58,13
134,139.25,145.47,13
134,139.14,145.35,13
134,139.04,145.24,13
134,138.94,145.13,13
134,138.84,145.02,13
133,138.72,144.90,13
134,138.63,144.79,13
134,138.54,144.68,13
134,138.44,144.57,13
134,138.36,144.47,13
134,138.27,144.36,13
134,138.18,144.26,13
134,138.10,144.16,13
133,138.00,144.04,13
134,137.92,143.94,13
133,137.82,143.83,13
138,137.82,143.78,13
134,137.75,143.68,13
133,137.65,143.57,13
133,137.56,143.47,13
133,137.47,143.36,13
133,137.38,143.26,13
133,137.29,143.16,13
134,137.22,143.06,13
131,137.10,142.94,13
133,137.02,142.84,13
132,136.92,142.74,13
133,136.84,142.64,13
132,136.74,142.53,13
133,136.67,142.44,13
132,136.57,142.33,13
131,136.46,142.22,13
131,136.35,142.11,13
133,136.29,142.02,13
132,136.20,141.92,13
132,136.12,141.82,13
131,136.01,141.71,13
131,135.91,141.60,13
132,135.84,141.50,13
133,135.78,141.42,13
131,135.68,141.32,13
131,135.59,141.21,13
130,135.48,141.10,13
131,135.39,141.00,13
130,135.28,140.89,13
130,135.18,140.78,13
130,135.07,140.67,13
132,135.01,140.59,13
130,134.91,140.48,13
128,134.77,140.36,13
129,134.66,140.24,13
127,134.50,140.11,13
129,134.39,140.00,13
130,134.31,139.90,13
129,134.20,139.79,13
130,134.12,139.69,13
130,134.03,139.59,13
129,133.93,139.49,13
129,133.83,139.38,13
130,133.76,139.29,13
129,133.66,139.19,13
129,133.57,139.08,13
129,133.48,138.98,13
130,133.41,138.89,13
129,133.32,138.80,13
128,133.21,138.69,13
128,133.11,138.58,13
128,133.01,138.47,13
128,132.91,138.37,13
129,132.83,138.28,13
128,132.73,138.17,13
128,132.64,138.07,13
130,132.58,137.99,13
128,132.49,137.89,13
128,132.40,137.79,13
128,132.31,137.69,13
128,132.23,137.60,13
128,132.14,137.50,13
128,132.06,137.41,13
128,131.98,137.31,13
127,131.88,137.21,13
128,131.80,137.12,13
128,131.73,137.03,13
128,131.65,136.94,13
127,131.56,136.84,13
128,131.49,136.75,13
129,131.44,136.67,13
129,131.39,136.59,13
128,131.32,136.51,13
129,131.28,136.43,13
130,131.25,136.37,13
128,131.18,136.28,13
129,131.14,136.21,13
130,131.12,136.15,13
130,131.10,136.09,13
129,131.05,136.02,13
129,131.01,135.95,13
130,130.99,135.89,13
129,130.95,135.82,13
129,130.91,135.75,13
129,130.88,135.68,13
130,130.86,135.63,13
130,130.84,135.57,13
129,130.80,135.50,13
129,130.77,135.44,13
129,130.73,135.37,13
128,130.68,135.30,13
129,130.64,135.24,13
129,130.61,135.18,13
128,130.56,135.10,13
130,130.55,135.05,13
128,130.50,134.98,13
128,130.45,134.91,13
128,130.40,134.84,13
128,130.35,134.78,13
129,130.32,134.72,13
128,130.28,134.65,13
129,130.25,134.59,13
129,130.23,134.54,13
128,130.18,134.47,13
128,130.14,134.41,13
128,130.10,134.34,13
128,130.05,134.28,13
129,130.03,134.23,13
128,129.99,134.16,13
128,129.95,134.10,13
130,129.95,134.06,13
130,129.95,134.02,13
129,129.93,133.97,13
130,129.94,133.93,13
130,129.94,133.89,13
130,129.94,133.85,13
130,129.94,133.81,13
129,129.92,133.77,13
131,129.94,133.74,13
129,129.92,133.69,13
130,129.93,133.65,13
129,129.91,133.61,13
129,129.89,133.56,13
131,129.91,133.54,13
130,129.91,133.50,13
131,129.93,133.48,13
131,129.96,133.45,13
129,129.94,133.41,13
130,129.94,133.37,13
129,129.92,133.33,13
130,129.92,133.30,13
130,129.92,133.26,13
130,129.92,133.23,13
132,129.97,133.22,13
132,130.01,133.21,13
131,130.03,133.18,13
131,130.05,133.16,13
132,130.08,133.15,13
133,130.14,133.15,13
134,130.22,133.16,13
129,130.20,133.12,13
133,130.25,133.11,13
137,130.39,133.15,13
133,130.44,133.15,13
131,130.45,133.13,13
133,130.50,133.13,13
134,130.57,133.14,13
132,130.60,133.13,13
132,130.63,133.12,13
132,130.66,133.10,13
132,130.68,133.09,13
132,130.71,133.08,13
131,130.71,133.06,13
132,130.74,133.05,13
132,130.77,133.04,13
131,130.77,133.02,13
132,130.79,133.01,13
132,130.82,133.00,13
131,130.82,132.98,13
133,130.87,132.98,13
131,130.87,132.96,13
131,130.87,132.94,13
131,130.87,132.92,13
132,130.90,132.91,13
131,130.90,132.89,13
132,130.92,132.88,13
132,130.94,132.87,13
131,130.94,132.86,13
131,130.94,132.84,13
132,130.97,132.83,13
132,130.99,132.82,13
133,131.03,132.82,13
132,131.05,132.81,13
132,131.06,132.81,13
132,131.08,132.80,13
131,131.08,132.78,13
132,131.10,132.77,13
132,131.12,132.76,13
133,131.16,132.77,13
133,131.19,132.77,13
132,131.21,132.76,13
132,131.22,132.75,13
133,131.26,132.76,13
131,131.26,132.74,13
133,131.29,132.74,13
134,131.34,132.75,13
131,131.34,132.74,13
134,131.39,132.75,13
133,131.42,132.75,13
133,131.45,132.75,13
134,131.51,132.77,13
131,131.50,132.75,13
133,131.53,132.75,13
132,131.53,132.74,13
133,131.56,132.75,13
132,131.57,132.74,13
133,131.60,132.74,13
134,131.65,132.75,13
134,131.70,132.77,13
135,131.76,132.79,13
132,131.77,132.78,13
132,131.77,132.77,13
133,131.80,132.78,13
133,131.82,132.78,13
132,131.82,132.77,13
133,131.85,132.77,13
133,131.87,132.77,13
132,131.87,132.77,13
131,131.86,132.75,13
133,131.88,132.75,13
133,131.90,132.75,13
133,131.92,132.76,13
133,131.94,132.76,13
133,131.97,132.76,13
133,131.99,132.76,13
132,131.99,132.76,13
132,131.99,132.75,13
132,131.99,132.74,13
133,132.01,132.74,13
133,132.03,132.75,13
133,132.05,132.75,13
138,132.17,132.80,13
134,132.20,132.81,13
134,132.24,132.83,13
134,132.27,132.84,13
134,132.31,132.85,13
133,132.32,132.85,13
133,132.34,132.85,13
133,132.35,132.85,13
135,132.40,132.87,13
134,132.43,132.89,13
135,132.49,132.91,13
134,132.52,132.92,13
134,132.55,132.93,13
134,132.57,132.94,13
134,132.60,132.95,13
131,132.57,132.93,13
134,132.60,132.94,13
133,132.61,132.94,13
133,132.62,132.94,13
134,132.64,132.95,13
133,132.65,132.95,13
134,132.68,132.96,13
134,132.70,132.97,13
134,132.73,132.98,13
134,132.75,132.99,13
133,132.76,132.99,13
133,132.76,133.00,13
132,132.75,132.99,13
133,132.75,132.99,13
133,132.76,132.99,13
133,132.76,132.99,13
133,132.77,132.99,13
133,132.77,132.99,13
133,132.78,132.99,13
133,132.78,132.99,13
137,132.87,133.03,13
134,132.89,133.04,13
133,132.89,133.04,13
133,132.89,133.04,13
135,132.94,133.05,14
134,132.96,133.06,14
133,132.96,133.06,15
134,132.98,133.07,15
134,133.00,133.08,16
134,133.02,133.09,16
134,133.04,133.10,17
134,133.06,133.11,17
132,133.04,133.10,18
133,133.04,133.10,18
134,133.06,133.11,19
133,133.05,133.11,19
133,133.05,133.10,20
132,133.03,133.09,20
134,133.05,133.10,21
131,133.01,133.08,21
133,133.01,133.08,22
135,133.05,133.10,22
135,133.09,133.12,23
135,133.13,133.14,23
136,133.18,133.17,24
137,133.26,133.20,24
136,133.32,133.23,25
136,133.37,133.26,25
136,133.42,133.29,25
136,133.47,133.31,25
137,133.54,133.35,25
136,133.59,133.38,25
136,133.64,133.40,25
137,133.71,133.44,25
137,133.77,133.48,25
135,133.80,133.49,25
136,133.84,133.52,25
139,133.95,133.57,25
137,134.01,133.61,25
137,134.07,133.64,25
137,134.13,133.67,25
138,134.20,133.72,25
139,134.30,133.77,25
140,134.41,133.83,25
138,134.48,133.87,25
139,134.58,133.92,25
139,134.66,133.97,25
138,134.73,134.02,25
139,134.82,134.07,25
138,134.88,134.10,25
138,134.94,134.14,25
138,135.00,134.18,25
139,135.08,134.23,25
139,135.16,134.28,25
137,135.20,134.31,25
139,135.27,134.35,25
137,135.31,134.38,25
138,135.36,134.41,25
139,135.44,134.46,25
138,135.49,134.50,25
138,135.54,134.53,25
138,135.59,134.57,25
137,135.61,134.59,25
137,135.64,134.61,25
137,135.67,134.64,25
139,135.74,134.68,25
139,135.80,134.72,25
138,135.85,134.76,25
139,135.91,134.80,25
139,135.97,134.84,25
135,135.95,134.84,25
139,136.01,134.89,25
139,136.07,134.93,25
139,136.13,134.97,25
140,136.21,135.02,25
139,136.26,135.06,25
140,136.34,135.11,25
140,136.41,135.16,25
139,136.46,135.19,25
140,136.53,135.24,25
140,136.60,135.29,25
141,136.69,135.35,25
142,136.80,135.41,25
142,136.90,135.48,25
142,137.00,135.54,25
141,137.08,135.60,25
142,137.18,135.66,25
143,137.30,135.74,25
143,137.41,135.81,25
143,137.52,135.88,25
142,137.61,135.94,25
144,137.74,136.02,25
143,137.85,136.09,25
143,137.95,136.16,25
143,138.05,136.23,25
144,138.17,136.31,25
143,138.27,136.37,25
143,138.36,136.44,25
143,138.45,136.51,25
143,138.54,136.57,25
146,138.69,136.67,25
145,138.82,136.75,25
145,138.94,136.83,25
146,139.08,136.92,25
146,139.22,137.01,25
144,139.32,137.08,25
147,139.47,137.18,25
147,139.62,137.28,25
148,139.79,137.39,25
147,139.93,137.48,25
148,140.10,137.59,25
146,140.21,137.67,25
147,140.35,137.77,25
147,140.48,137.86,25
147,140.61,137.95,25
148,140.76,138.05,25
149,140.93,138.16,25
147,141.05,138.25,25
149,141.21,138.36,25
148,141.34,138.45,25
150,141.51,138.57,25
150,141.68,138.68,25
150,141.85,138.80,25
150,142.01,138.91,25
151,142.19,139.03,25
152,142.39,139.16,25
152,142.58,139.29,25
153,142.79,139.42,25
151,142.95,139.54,25
152,143.14,139.66,25
153,143.33,139.80,25
152,143.51,139.92,25
152,143.68,140.04,25
152,143.84,140.16,25
152,144.01,140.28,25
154,144.21,140.42,25
154,144.40,140.55,25
153,144.57,140.68,25
153,144.74,140.80,25
154,144.93,140.93,25
152,145.07,141.04,25
153,145.23,141.16,25
154,145.40,141.29,25
155,145.59,141.43,25
153,145.74,141.54,25
154,145.91,141.67,25
154,146.07,141.79,25
153,146.21,141.90,25
155,146.38,142.03,25
156,146.58,142.17,25
155,146.74,142.30,25
157,146.95,142.45,25
157,147.15,142.59,25
155,147.31,142.72,25
157,147.50,142.86,25
156,147.67,142.99,25
155,147.82,143.11,25
157,148.00,143.25,25
158,148.20,143.40,25
161,148.46,143.58,25
161,148.71,143.75,25
159,148.91,143.90,25
160,149.14,144.06,25
163,149.41,144.25,25
166,149.75,144.47,25
164,150.03,144.66,25
166,150.35,144.88,25
166,150.66,145.09,25
166,150.97,145.30,25
169,151.33,145.54,25
168,151.66,145.76,25
168,151.99,145.98,25
169,152.33,146.21,25
168,152.64,146.43,25
168,152.95,146.65,25
168,153.25,146.86,25
169,153.57,147.08,25
171,153.92,147.32,25
171,154.26,147.56,25
171,154.59,147.79,25
175,155.00,148.06,25
175,155.40,148.33,25
176,155.81,148.61,25
175,156.20,148.87,25
175,156.57,149.14,25
175,156.94,149.39,25
174,157.28,149.64,25
174,157.62,149.88,25
174,157.94,150.12,25
174,158.27,150.36,25
175,158.60,150.61,25
175,158.93,150.85,25
175,159.25,151.10,25
178,159.62,151.36,25
179,160.01,151.64,25
178,160.37,151.90,25
178,160.72,152.17,25
181,161.13,152.45,25
180,161.51,152.73,25
179,161.86,152.99,25
183,162.28,153.29,25
181,162.65,153.57,25
180,163.00,153.83,25
181,163.36,154.10,25
183,163.75,154.39,25
182,164.12,154.67,25
183,164.50,154.95,25
183,164.87,155.23,25
181,165.19,155.49,25
183,165.55,155.77,25
187,165.97,156.08,25
183,166.31,156.35,25
184,166.67,156.62,25
182,166.98,156.88,25
183,167.30,157.14,25
182,167.59,157.39,25
183,167.90,157.64,25
183,168.20,157.90,25
187,168.58,158.19,25
187,168.94,158.48,25
188,169.33,158.77,25
192,169.78,159.10,25
187,170.12,159.38,25
190,170.52,159.69,25
192,170.95,160.01,25
195,171.43,160.36,25
194,171.88,160.70,25
192,172.29,161.01,25
192,172.68,161.32,25
194,173.11,161.65,25
194,173.52,161.97,25
195,173.95,162.30,25
196,174.39,162.64,25
198,174.87,162.99,25
199,175.35,163.35,25
197,175.78,163.69,25
196,176.19,164.01,25
195,176.56,164.32,25
196,176.95,164.64,25
195,177.31,164.94,25
194,177.65,165.23,25
196,178.01,165.54,25
198,178.41,165.87,25
196,178.76,166.17,25
197,179.13,166.48,25
197,179.49,166.78,25
200,179.90,167.11,25
199,180.28,167.43,25
203,180.73,167.79,25
204,181.20,168.15,25
203,181.64,168.50,25
202,182.04,168.83,25
200,182.40,169.14,25
203,182.81,169.48,25
204,183.24,169.83,25
203,183.63,170.16,25
203,184.02,170.49,25
204,184.42,170.82,25
204,184.81,171.16,25
204,185.19,171.48,25
204,185.57,171.81,25
205,185.96,172.14,25
204,186.32,172.46,25
204,186.67,172.77,25
203,187.00,173.08,25
204,187.34,173.39,25
204,187.67,173.69,25
204,188.00,174.00,25
204,188.32,174.30,25
204,188.63,174.59,25
206,188.98,174.91,25
206,189.32,175.22,25
204,189.62,175.51,25
207,189.96,175.82,25
207,190.30,176.13,25
208,190.66,176.45,25
206,190.96,176.75,25
207,191.29,177.05,25
207,191.60,177.35,25
206,191.89,177.63,25
208,192.21,177.94,25
206,192.49,178.22,25
205,192.74,178.49,25
205,192.98,178.75,25
205,193.22,179.01,25
205,193.46,179.27,25
206,193.71,179.54,25
203,193.89,179.78,25
206,194.14,180.04,25
206,194.37,180.30,25
205,194.59,180.55,25
203,194.75,180.77,25
204,194.94,181.00,25
204,195.12,181.23,25
205,195.32,181.47,25
203,195.47,181.68,25
204,195.64,181.91,25
202,195.77,182.11,25
203,195.91,182.32,25
203,196.06,182.52,25
203,196.19,182.73,25
205,196.37,182.95,25
203,196.50,183.15,25
203,196.63,183.35,25
202,196.74,183.54,25
202,196.85,183.72,25
201,196.93,183.90,25
201,197.01,184.07,25
201,197.09,184.24,25
201,197.17,184.40,25
202,197.26,184.58,25
201,197.34,184.74,25
201,197.41,184.91,25
201,197.48,185.07,25
201,197.55,185.23,25
201,197.62,185.38,25
201,197.69,185.54,25
201,197.76,185.69,25
200,197.80,185.84,25
200,197.85,185.98,25
199,197.87,186.11,25
199,197.89,186.24,25
198,197.89,186.36,25
200,197.94,186.49,25
198,197.94,186.61,25
199,197.96,186.73,25
197,197.94,186.83,25
199,197.96,186.96,25
198,197.96,187.07,25
197,197.94,187.17,25
198,197.94,187.27,25
197,197.92,187.37,25
197,197.91,187.47,25
198,197.91,187.57,25
199,197.93,187.69,25
197,197.91,187.78,25
196,197.87,187.86,25
196,197.84,187.94,25
195,197.78,188.01,25
195,197.72,188.08,25
194,197.65,188.14,25
196,197.62,188.22,25
196,197.58,188.30,25
193,197.49,188.35,25
193,197.40,188.39,25
193,197.31,188.44,25
194,197.25,188.49,25
194,197.18,188.55,25
192,197.08,188.58,25
193,197.00,188.63,25
193,196.92,188.67,25
192,196.82,188.71,25
191,196.70,188.73,25
191,196.59,188.75,25
192,196.50,188.78,25
192,196.41,188.82,25
190,196.28,188.83,25
190,196.15,188.84,25
191,196.05,188.86,25
191,195.95,188.88,25
189,195.81,188.88,25
187,195.63,188.86,25
192,195.56,188.90,25
189,195.43,188.90,25
188,195.28,188.89,25
188,195.14,188.88,25
188,194.99,188.87,25
188,194.85,188.86,25
187,194.70,188.84,25
187,194.54,188.82,25
188,194.41,188.82,25
186,194.24,188.79,25
190,194.16,188.80,25
186,194.00,188.77,25
185,193.82,188.73,25
185,193.64,188.70,25
184,193.45,188.65,25
185,193.28,188.61,25
185,193.11,188.58,25
184,192.93,188.53,25
184,192.75,188.49,25
183,192.56,188.43,25
184,192.38,188.39,25
183,192.20,188.33,25
183,192.01,188.28,25
182,191.81,188.22,25
183,191.64,188.17,25
183,191.46,188.11,25
182,191.27,188.05,25
182,191.09,187.99,25
182,190.91,187.93,25
181,190.71,187.86,25
181,190.52,187.79,25
181,190.32,187.73,25
182,190.16,187.67,25
180,189.96,187.59,25
180,189.76,187.52,25
179,189.54,187.43,25
179,189.33,187.35,25
179,189.12,187.26,25
179,188.92,187.18,25
179,188.72,187.10,25
178,188.51,187.01,25
178,188.30,186.92,25
179,188.11,186.84,25
178,187.91,186.75,25
177,187.69,186.65,25
178,187.50,186.57,25
177,187.29,186.47,25
177,187.08,186.38,25
177,186.88,186.28,25
175,186.64,186.17,25
176,186.43,186.07,25
176,186.22,185.97,25
175,186.00,185.86,25
175,185.78,185.75,26
174,185.54,185.63,26
175,185.33,185.53,26
175,185.12,185.42,26
175,184.92,185.32,26
174,184.70,185.20,26
174,184.49,185.09,26
174,184.28,184.98,26
173,184.05,184.86,26
173,183.83,184.74,26
174,183.64,184.63,26
173,183.42,184.52,26
172,183.19,184.39,26
173,182.99,184.28,26
173,182.79,184.17,26
173,182.60,184.05,26
173,182.40,183.94,26
171,182.18,183.81,26
173,181.99,183.71,26
173,181.81,183.60,26
172,181.62,183.48,26
172,181.42,183.37,26
171,181.22,183.24,26
171,181.01,183.12,26
171,180.81,183.00,26
171,180.61,182.88,26
171,180.42,182.76,26
173,180.27,182.66,26
171,180.09,182.55,26
170,179.89,182.42,26
170,179.69,182.30,26
170,179.49,182.17,26
171,179.33,182.06,26
170,179.14,181.94,26
170,178.96,181.82,26
169,178.76,181.69,26
169,178.56,181.57,26
169,178.37,181.44,26
169,178.18,181.32,26
169,178.00,181.19,26
169,177.82,181.07,26
169,177.64,180.95,26
169,177.47,180.83,26
168,177.28,180.70,26
168,177.10,180.58,26
168,176.91,180.45,26
167,176.71,180.32,26
168,176.54,180.19,26
167,176.35,180.06,26
166,176.14,179.92,26
167,175.96,179.79,26
167,175.78,179.66,26
166,175.59,179.53,26
167,175.41,179.40,26
166,175.23,179.27,26
166,175.04,179.14,26
166,174.86,179.00,26
166,174.68,178.87,26
165,174.49,178.74,26
165,174.30,178.60,26
165,174.11,178.46,26
166,173.95,178.34,26
165,173.77,178.20,26
166,173.62,178.08,26
167,173.48,177.97,26
165,173.31,177.84,26
165,173.15,177.71,26
165,172.99,177.59,26
165,172.83,177.46,26
163,172.63,177.32,26
165,172.48,177.19,26
165,172.33,177.07,26
165,172.18,176.95,26
168,172.10,176.86,26
166,171.97,176.75,26
164,171.82,176.62,26
166,171.70,176.52,26
165,171.57,176.40,26
166,171.45,176.30,26
165,171.32,176.19,26
165,171.20,176.07,26
165,171.07,175.96,26
166,170.97,175.86,26
165,170.85,175.75,26
164,170.72,175.64,26
165,170.60,175.53,26
163,170.45,175.41,26
164,170.32,175.29,26
164,170.19,175.18,26
164,170.07,175.07,26
162,169.91,174.94,26
163,169.77,174.82,26
163,169.64,174.70,26
163,169.50,174.58,26
163,169.37,174.47,26
164,169.27,174.36,26
164,169.16,174.26,26
163,169.04,174.14,26
165,168.96,174.05,26
164,168.86,173.95,26
163,168.74,173.84,26
163,168.63,173.73,26
164,168.53,173.64,26
164,168.44,173.54,26
164,168.35,173.45,26
164,168.27,173.35,26
164,168.18,173.26,26
162,168.06,173.15,26
162,167.94,173.03,26
162,167.82,172.92,26
163,167.72,172.82,26
163,167.63,172.73,26
164,167.55,172.64,26
163,167.46,172.54,26
163,167.37,172.45,26
162,167.27,172.34,26
162,167.16,172.24,26
162,167.06,172.14,26
161,166.94,172.03,26
161,166.82,171.91,26
159,166.66,171.79,26
161,166.55,171.68,26
161,166.44,171.57,26
161,166.33,171.47,26
161,166.22,171.36,26
161,166.12,171.26,26
161,166.02,171.15,26
160,165.89,171.04,26
159,165.76,170.92,26
160,165.64,170.81,26
160,165.53,170.71,26
161,165.44,170.61,26
159,165.31,170.49,26
159,165.18,170.38,26
159,165.06,170.26,26
159,164.94,170.15,26
160,164.84,170.05,26
160,164.74,169.95,26
159,164.63,169.84,26
159,164.52,169.73,26
159,164.41,169.62,26
159,164.30,169.52,26
159,164.19,169.41,26
159,164.09,169.31,26
159,163.99,169.21,26
159,163.89,169.10,26
158,163.77,168.99,26
158,163.65,168.88,26
158,163.54,168.77,26
158,163.43,168.67,26
157,163.30,168.55,26
157,163.17,168.43,26
157,163.05,168.32,26
158,162.95,168.22,26
158,162.85,168.11,26
157,162.73,168.00,26
156,162.60,167.88,26
157,162.49,167.77,26
157,162.38,167.67,26
157,162.27,167.56,26
156,162.14,167.44,26
157,162.04,167.34,26
157,161.94,167.24,26
157,161.84,167.13,26
155,161.71,167.01,26
158,161.63,166.92,26
157,161.54,166.82,26
155,161.41,166.70,26
156,161.30,166.60,26
158,161.23,166.51,26
158,161.17,166.43,26
158,161.11,166.34,26
158,161.04,166.26,26
157,160.96,166.17,26
158,160.90,166.08,26
157,160.83,165.99,26
159,160.79,165.92,26
158,160.73,165.84,26
158,160.68,165.77,26
157,160.60,165.68,26
157,160.53,165.59,26
157,160.46,165.51,26
157,160.39,165.42,26
156,160.30,165.33,26
156,160.22,165.23,26
155,160.11,165.13,26
156,160.03,165.04,26
155,159.93,164.94,26
155,159.83,164.84,26
156,159.76,164.75,26
155,159.66,164.65,26
155,159.57,164.56,26
155,159.48,164.46,26
154,159.37,164.36,26
154,159.26,164.25,26
154,159.15,164.15,26
155,159.07,164.06,26
154,158.97,163.96,26
154,158.87,163.86,26
154,158.77,163.76,26
157,158.74,163.69,26
154,158.64,163.60,26
154,158.55,163.50,26
154,158.46,163.41,26
155,158.39,163.32,26
154,158.30,163.23,26
153,158.20,163.13,26
154,158.11,163.03,26
153,158.01,162.93,26
154,157.93,162.84,26
152,157.81,162.74,26
154,157.73,162.65,26
155,157.68,162.57,26
154,157.61,162.49,26
153,157.51,162.39,26
152,157.40,162.29,26
153,157.32,162.20,26
154,157.25,162.11,26
153,157.16,162.02,26
153,157.08,161.93,26
152,156.98,161.83,26
152,156.88,161.73,26
152,156.78,161.64,26
152,156.69,161.54,26
152,156.59,161.45,26
153,156.52,161.36,26
151,156.41,161.26,26
151,156.30,161.15,26
151,156.20,161.05,26
151,156.09,160.95,26
151,155.99,160.85,26
151,155.89,160.75,26
150,155.77,160.65,26
151,155.68,160.55,26
151,155.58,160.45,26
150,155.47,160.35,26
150,155.36,160.25,26
151,155.28,160.15,26
151,155.19,160.06,26
151,155.11,159.97,26
150,155.00,159.87,26
152,154.94,159.79,26
151,154.87,159.71,26
150,154.77,159.61,26
151,154.69,159.52,26
151,154.62,159.44,26
151,154.55,159.35,26
152,154.50,159.28,26
155,154.51,159.24,26
151,154.44,159.15,26
151,154.37,159.07,26
151,154.30,158.99,26
150,154.21,158.90,26
151,154.15,158.82,26
151,154.09,158.74,26
152,154.04,158.68,26
151,153.98,158.60,26
152,153.94,158.53,26
151,153.89,158.46,26
151,153.83,158.38,26
151,153.77,158.31,26
151,153.72,158.24,26
150,153.64,158.16,26
150,153.57,158.07,26
150,153.50,157.99,26
152,153.47,157.93,26
150,153.40,157.85,26
151,153.35,157.79,26
151,153.30,157.72,26
150,153.24,157.64,26
150,153.17,157.56,26
150,153.11,157.49,26
150,153.05,157.41,26
151,153.01,157.35,26
150,152.95,157.28,26
150,152.89,157.20,26
152,152.87,157.15,26
152,152.85,157.10,26
153,152.85,157.06,26
151,152.82,157.00,26
152,152.80,156.95,26
151,152.76,156.89,26
152,152.75,156.84,26
150,152.69,156.77,26
151,152.66,156.71,26
151,152.63,156.66,26
152,152.62,156.61,26
152,152.60,156.56,26
152,152.59,156.52,26
152,152.58,156.47,26
152,152.57,156.43,26
152,152.56,156.38,26
152,152.54,156.34,26
151,152.51,156.29,26
151,152.48,156.23,26
151,152.45,156.18,26
152,152.44,156.14,26
152,152.44,156.10,26
151,152.41,156.05,26
151,152.38,156.00,26
151,152.35,155.95,26
152,152.34,155.91,26
151,152.32,155.86,26
151,152.29,155.81,26
151,152.27,155.76,26
152,152.26,155.72,26
151,152.23,155.68,26
151,152.21,155.63,26
152,152.21,155.59,26
151,152.18,155.55,26
151,152.16,155.50,26
151,152.14,155.46,26
151,152.11,155.41,26
151,152.09,155.37,26
151,152.07,155.32,26
151,152.05,155.28,26
151,152.03,155.24,26
151,152.01,155.20,26
151,151.99,155.15,26
151,151.97,155.11,26
150,151.93,155.06,26
151,151.91,155.02,26
151,151.89,154.98,26
151,151.87,154.94,26
151,151.85,154.90,26
151,151.84,154.86,26
151,151.82,154.82,26
151,151.80,154.79,26
151,151.79,154.75,26
151,151.77,154.71,26
150,151.74,154.66,26
151,151.72,154.63,26
151,151.71,154.59,26
151,151.69,154.55,26
151,151.68,154.52,26
150,151.65,154.47,26
152,151.65,154.45,26
151,151.64,154.41,26
151,151.63,154.38,26
150,151.59,154.34,26
152,151.60,154.31,26
151,151.59,154.28,26
150,151.56,154.24,26
151,151.55,154.20,26
150,151.52,154.16,26
152,151.53,154.14,26
151,151.52,154.11,26
150,151.49,154.07,26
151,151.48,154.04,26
152,151.49,154.02,26
151,151.48,153.99,26
151,151.47,153.96,26
151,151.46,153.93,26
150,151.43,153.89,26
152,151.44,153.87,26
151,151.43,153.84,26
151,151.42,153.81,26
152,151.43,153.79,26
151,151.43,153.77,26
151,151.42,153.74,26
151,151.41,153.71,26
151,151.40,153.68,26
153,151.43,153.68,26
151,151.42,153.65,26
151,151.42,153.62,26
151,151.41,153.60,26
152,151.42,153.58,26
152,151.43,153.57,26
152,151.44,153.55,26
152,151.45,153.54,26
151,151.44,153.51,26
152,151.46,153.49,26
152,151.47,153.48,26
152,151.48,153.46,26
152,151.49,153.45,26
151,151.48,153.43,26
152,151.49,153.41,26
152,151.50,153.40,26
151,151.49,153.37,26
151,151.48,153.35,26
152,151.49,153.34,26
152,151.50,153.32,26
151,151.49,153.30,26
151,151.48,153.28,26
153,151.51,153.27,26
152,151.52,153.26,26
151,151.51,153.24,26
151,151.50,153.22,26
152,151.51,153.20,26
152,151.52,153.19,26
151,151.51,153.17,26
151,151.50,153.15,26
151,151.49,153.13,26
151,151.48,153.11,26
152,151.49,153.09,26
151,151.48,153.07,26
151,151.47,153.05,26
151,151.46,153.03,26
151,151.45,153.01,26
151,151.44,152.99,26
150,151.41,152.96,26
151,151.40,152.94,26
151,151.40,152.92,26
150,151.37,152.89,26
151,151.36,152.87,26
151,151.35,152.86,26
151,151.35,152.84,26
151,151.34,152.82,26
149,151.29,152.78,26
151,151.29,152.76,26
150,151.26,152.74,26
151,151.26,152.72,26
151,151.25,152.70,26
151,151.25,152.68,26
150,151.22,152.66,26
151,151.22,152.64,26
151,151.21,152.62,26
150,151.19,152.60,26
151,151.18,152.58,26
151,151.18,152.57,26
151,151.18,152.55,26
151,151.17,152.53,26
150,151.15,152.51,26
148,151.09,152.46,26
151,151.09,152.45,26
151,151.08,152.44,26
150,151.06,152.41,26
150,151.04,152.39,26
151,151.04,152.37,26
151,151.04,152.36,26
151,151.04,152.35,26
150,151.02,152.32,26
150,151.00,152.30,26
151,151.00,152.29,26
151,151.00,152.27,26
150,150.98,152.25,26
150,150.96,152.23,26
151,150.96,152.22,26
152,150.98,152.21,26
151,150.98,152.20,26
150,150.96,152.18,26
150,150.94,152.16,26
151,150.94,152.15,26
151,150.94,152.13,26
151,150.94,152.12,26
151,150.95,152.11,26
151,150.95,152.10,26
151,150.95,152.09,26
151,150.95,152.08,26
151,150.95,152.07,26
151,150.95,152.06,26
151,150.95,152.05,26
151,150.95,152.04,26
151,150.95,152.03,26
151,150.96,152.02,26
151,150.96,152.01,26
151,150.96,152.00,26
151,150.96,151.99,26
151,150.96,151.98,26
150,150.94,151.96,26
151,150.94,151.95,26
151,150.94,151.94,26
150,150.92,151.92,26
150,150.90,151.90,26
150,150.89,151.88,26
152,150.91,151.88,26
150,150.89,151.86,26
150,150.87,151.84,26
150,150.86,151.82,26
154,150.92,151.85,26
150,150.90,151.83,26
150,150.88,151.81,26
150,150.86,151.79,26
150,150.85,151.77,26
150,150.83,151.76,26
150,150.81,151.74,26
150,150.80,151.72,26
151,150.80,151.71,26
151,150.81,151.71,26
151,150.81,151.70,26
150,150.79,151.68,26
151,150.80,151.68,26
151,150.80,151.67,26
150,150.79,151.65,26
150,150.77,151.64,26
151,150.77,151.63,26
150,150.76,151.61,26
150,150.74,151.60,26
151,150.75,151.59,26
152,150.77,151.60,26
150,150.76,151.58,26
150,150.74,151.56,26
151,150.75,151.56,26
151,150.75,151.55,26
150,150.74,151.54,26
151,150.74,151.53,26
151,150.75,151.53,26
150,150.73,151.51,26
150,150.72,151.50,26
150,150.70,151.48,26
151,150.71,151.48,26
151,150.72,151.47,26
150,150.70,151.46,26
150,150.69,151.44,26
150,150.67,151.43,26
150,150.66,151.41,26
150,150.65,151.40,26
150,150.63,151.38,26
150,150.62,151.37,26
151,150.63,151.37,26
150,150.62,151.35,26
149,150.58,151.33,26
149,150.55,151.31,26
151,150.56,151.30,26
151,150.57,151.30,26
150,150.56,151.29,26
150,150.55,151.27,26
150,150.54,151.26,26
150,150.53,151.25,26
150,150.52,151.24,26
150,150.51,151.22,26
150,150.50,151.21,26
150,150.49,151.20,26
150,150.48,151.19,26
150,150.47,151.18,26
149,150.44,151.15,26
150,150.43,151.14,26
150,150.42,151.13,26
150,150.41,151.12,26
150,150.40,151.11,26
148,150.35,151.08,26
150,150.35,151.07,26
151,150.36,151.07,26
150,150.35,151.06,26
150,150.35,151.05,26
150,150.34,151.03,26
149,150.31,151.01,26
151,150.33,151.01,26
150,150.32,151.00,26
148,150.27,150.97,26
151,150.29,150.97,26
150,150.28,150.96,26
149,150.26,150.95,26
149,150.23,150.93,26
150,150.23,150.92,26
151,150.24,150.92,26
150,150.24,150.91,26
150,150.23,150.90,26
150,150.23,150.89,26
149,150.20,150.87,26
150,150.20,150.86,26
149,150.18,150.84,26
149,150.15,150.83,26
150,150.15,150.82,26
150,150.15,150.81,26
150,150.14,150.80,26
149,150.12,150.78,26
150,150.12,150.78,26
151,150.14,150.78,26
149,150.11,150.76,26
149,150.09,150.74,26
150,150.09,150.73,26
149,150.07,150.72,26
150,150.07,150.71,26
149,150.04,150.69,26
149,150.02,150.68,26
150,150.02,150.67,26
149,150.00,150.65,26
150,150.00,150.65,26
148,149.96,150.62,26
150,149.96,150.61,26
150,149.96,150.61,26
149,149.94,150.59,26
149,149.93,150.58,26
147,149.87,150.54,26
149,149.85,150.52,26
149,149.83,150.51,26
149,149.82,150.49,26
149,149.80,150.48,26
149,149.78,150.46,26
149,149.77,150.45,26
149,149.75,150.43,26
148,149.72,150.41,26
148,149.68,150.39,26
149,149.67,150.37,26
149,149.66,150.36,26
148,149.62,150.34,26
151,149.65,150.34,26
149,149.64,150.33,26
149,149.63,150.32,26
149,149.61,150.30,26
