Teste de posicionamento 3(EMG tendao-inervacao (Vermelho A, Verde C) + Ref no pulso) - 19/10/2024 - teste7 - 5 contrações
long frequencia = 1000;                 //frequência de aquisição do sinal, neste caso, 1000 sinais por segundo
float fator1 = 0.02, fator2 = 0.01;
float incerteza = 0.13;
float pico_basal = 130; // Mínimo para ser considerado um pico de contração
int filtro_horizontal=200000; //intervalo de 200ms valores não pode ter mais de 1 contração

Biceps_D,mediaMovel_1,mediaMovel_2,Contracao
109,2.18,1.09,0
109,4.32,2.17,0
110,6.43,3.25,0
110,8.50,4.31,0
109,10.51,5.36,0
109,12.48,6.40,0
110,14.43,7.43,0
110,16.34,8.46,0
109,18.20,9.47,0
108,19.99,10.45,0
109,21.77,11.44,0
110,23.54,12.42,0
109,25.25,13.39,0
109,26.92,14.34,0
109,28.56,15.29,0
109,30.17,16.23,0
109,31.75,17.16,0
109,33.29,18.07,0
110,34.83,18.99,0
109,36.31,19.89,0
109,37.76,20.78,0
109,39.19,21.67,0
112,40.65,22.57,0
113,42.09,23.47,0
109,43.43,24.33,0
109,44.74,25.18,0
109,46.03,26.01,0
109,47.29,26.84,0
109,48.52,27.67,0
109,49.73,28.48,0
109,50.92,29.28,0
109,52.08,30.08,0
109,53.22,30.87,0
110,54.35,31.66,0
109,55.44,32.43,0
109,56.52,33.20,0
109,57.57,33.96,0
109,58.59,34.71,0
108,59.58,35.44,0
109,60.57,36.18,0
109,61.54,36.91,0
108,62.47,37.62,0
110,63.42,38.34,0
109,64.33,39.05,0
108,65.20,39.74,0
109,66.08,40.43,0
109,66.94,41.11,0
108,67.76,41.78,0
109,68.58,42.46,0
108,69.37,43.11,0
108,70.15,43.76,0
108,70.90,44.40,0
108,71.64,45.04,0
108,72.37,45.67,0
108,73.08,46.29,0
108,73.78,46.91,0
108,74.47,47.52,0
107,75.12,48.11,0
108,75.78,48.71,0
108,76.42,49.31,0
108,77.05,49.89,0
108,77.67,50.47,0
107,78.26,51.04,0
109,78.87,51.62,0
109,79.47,52.19,0
108,80.04,52.75,0
107,80.58,53.29,0
108,81.13,53.84,0
107,81.65,54.37,0
107,82.16,54.90,0
108,82.67,55.43,0
108,83.18,55.96,0
107,83.66,56.47,0
108,84.14,56.98,0
107,84.60,57.48,0
108,85.07,57.99,0
108,85.53,58.49,0
107,85.96,58.97,0
107,86.38,59.45,0
108,86.81,59.94,0
112,87.31,60.46,0
107,87.71,60.92,0
107,88.09,61.38,0
107,88.47,61.84,0
108,88.86,62.30,0
108,89.24,62.76,0
107,89.60,63.20,0
107,89.95,63.64,0
108,90.31,64.08,0
108,90.66,64.52,0
107,90.99,64.95,0
107,91.31,65.37,0
107,91.62,65.78,0
107,91.93,66.20,0
108,92.25,66.61,0
107,92.55,67.02,0
107,92.84,67.42,0
107,93.12,67.81,0
107,93.40,68.21,0
107,93.67,68.59,0
108,93.96,68.99,0
107,94.22,69.37,0
107,94.47,69.74,0
108,94.74,70.13,0
108,95.01,70.50,0
108,95.27,70.88,0
106,95.48,71.23,0
107,95.71,71.59,0
105,95.90,71.92,0
108,96.14,72.28,0
107,96.36,72.63,0
106,96.55,72.96,0
108,96.78,73.31,0
107,96.98,73.65,0
107,97.18,73.99,0
107,97.38,74.32,0
106,97.55,74.63,0
105,97.70,74.94,0
113,98.01,75.32,0
106,98.17,75.62,0
107,98.34,75.94,0
107,98.52,76.25,0
106,98.67,76.55,0
105,98.79,76.83,0
108,98.98,77.14,0
106,99.12,77.43,0
107,99.28,77.73,0
105,99.39,78.00,0
106,99.52,78.28,0
106,99.65,78.56,0
106,99.78,78.83,0
107,99.92,79.11,0
105,100.03,79.37,0
106,100.14,79.64,0
106,100.26,79.90,0
106,100.38,80.16,0
106,100.49,80.42,0
106,100.60,80.68,0
105,100.69,80.92,0
106,100.79,81.17,0
106,100.90,81.42,0
107,101.02,81.67,0
106,101.12,81.92,0
106,101.22,82.16,0
106,101.31,82.40,0
106,101.41,82.63,0
106,101.50,82.87,0
106,101.59,83.10,0
106,101.68,83.33,0
106,101.76,83.55,0
106,101.85,83.78,0
106,101.93,84.00,0
106,102.01,84.22,0
106,102.09,84.44,0
106,102.17,84.65,0
106,102.25,84.87,0
104,102.28,85.06,0
105,102.34,85.26,0
106,102.41,85.47,0
105,102.46,85.66,0
106,102.53,85.86,0
106,102.60,86.07,0
106,102.67,86.26,0
105,102.72,86.45,0
104,102.74,86.63,0
106,102.81,86.82,0
104,102.83,86.99,0
105,102.87,87.17,0
106,102.94,87.36,0
105,102.98,87.54,0
106,103.04,87.72,0
106,103.10,87.91,0
106,103.16,88.09,0
105,103.19,88.26,0
104,103.21,88.41,0
106,103.26,88.59,0
106,103.32,88.76,0
106,103.37,88.93,0
105,103.41,89.10,0
108,103.50,89.28,0
106,103.55,89.45,0
106,103.60,89.62,0
106,103.64,89.78,0
108,103.73,89.96,0
104,103.74,90.10,0
105,103.76,90.25,0
108,103.85,90.43,0
105,103.87,90.58,0
106,103.91,90.73,0
105,103.93,90.87,0
104,103.94,91.00,0
105,103.96,91.14,0
104,103.96,91.27,0
105,103.98,91.41,0
104,103.98,91.54,0
104,103.98,91.66,0
104,103.98,91.78,0
105,104.00,91.92,0
104,104.00,92.04,0
105,104.02,92.17,0
106,104.06,92.30,0
105,104.08,92.43,0
106,104.12,92.57,0
106,104.15,92.70,0
106,104.19,92.83,0
106,104.23,92.97,0
105,104.24,93.09,0
105,104.26,93.21,0
104,104.25,93.31,0
106,104.29,93.44,0
106,104.32,93.57,0
106,104.36,93.69,0
104,104.35,93.79,0
105,104.36,93.91,0
104,104.35,94.01,0
106,104.39,94.13,0
104,104.38,94.23,0
105,104.39,94.33,0
104,104.38,94.43,0
106,104.42,94.55,0
106,104.45,94.66,0
106,104.48,94.77,0
106,104.51,94.89,0
106,104.54,95.00,0
106,104.57,95.11,0
107,104.62,95.23,0
106,104.65,95.33,0
108,104.71,95.46,0
106,104.74,95.57,0
108,104.80,95.69,0
106,104.83,95.79,0
105,104.83,95.89,0
106,104.85,95.99,0
108,104.92,96.11,0
106,104.94,96.21,0
108,105.00,96.32,0
105,105.00,96.41,0
107,105.04,96.52,0
108,105.10,96.63,0
105,105.10,96.71,0
107,105.14,96.82,0
109,105.21,96.94,0
108,105.27,97.05,0
110,105.36,97.18,0
107,105.40,97.28,0
108,105.45,97.38,0
108,105.50,97.49,0
108,105.55,97.60,0
108,105.60,97.70,0
110,105.69,97.82,0
108,105.73,97.92,0
107,105.76,98.02,0
107,105.78,98.11,0
107,105.81,98.19,0
106,105.81,98.27,0
106,105.81,98.35,0
108,105.86,98.45,0
110,105.94,98.56,0
106,105.94,98.64,0
108,105.98,98.73,0
108,106.02,98.82,0
107,106.04,98.90,0
108,106.08,99.00,0
109,106.14,99.10,0
108,106.18,99.18,0
108,106.21,99.27,0
108,106.25,99.36,0
108,106.28,99.45,0
108,106.32,99.53,0
108,106.35,99.62,0
108,106.39,99.70,0
108,106.42,99.78,0
110,106.49,99.89,0
110,106.56,99.99,0
110,106.63,100.09,0
111,106.72,100.20,0
111,106.80,100.30,0
111,106.89,100.41,0
111,106.97,100.52,0
109,107.01,100.60,0
110,107.07,100.70,0
110,107.13,100.79,0
110,107.18,100.88,0
110,107.24,100.97,0
110,107.30,101.06,0
109,107.33,101.14,0
111,107.40,101.24,0
111,107.48,101.34,0
110,107.53,101.42,0
110,107.58,101.51,0
110,107.62,101.59,0
111,107.69,101.69,0
111,107.76,101.78,0
111,107.82,101.87,0
111,107.89,101.97,0
111,107.95,102.06,0
111,108.01,102.15,0
111,108.07,102.23,0
111,108.13,102.32,0
112,108.21,102.42,0
111,108.26,102.50,0
113,108.36,102.61,0
113,108.45,102.71,0
113,108.54,102.82,0
113,108.63,102.92,0
114,108.74,103.03,0
113,108.82,103.13,0
113,108.91,103.23,0
113,108.99,103.32,0
113,109.07,103.42,0
114,109.17,103.53,0
113,109.24,103.62,0
115,109.36,103.74,0
113,109.43,103.83,0
114,109.52,103.93,0
113,109.59,104.02,0
114,109.68,104.12,0
113,109.75,104.21,0
114,109.83,104.31,0
113,109.89,104.39,0
114,109.98,104.49,0
114,110.06,104.59,0
113,110.12,104.67,0
114,110.19,104.76,0
115,110.29,104.87,0
115,110.38,104.97,0
114,110.46,105.06,0
116,110.57,105.17,0
115,110.66,105.26,0
116,110.76,105.37,0
113,110.81,105.45,0
116,110.91,105.55,0
117,111.03,105.67,0
116,111.13,105.77,0
116,111.23,105.87,0
117,111.35,105.99,0
116,111.44,106.09,0
116,111.53,106.18,0
117,111.64,106.29,0
115,111.71,106.38,0
116,111.79,106.48,0
116,111.88,106.57,0
116,111.96,106.67,0
115,112.02,106.75,0
116,112.10,106.84,0
116,112.18,106.93,0
115,112.23,107.01,0
117,112.33,107.11,0
117,112.42,107.21,0
117,112.51,107.31,0
116,112.58,107.40,0
117,112.67,107.49,0
119,112.80,107.61,0
117,112.88,107.70,0
118,112.99,107.81,0
119,113.11,107.92,0
119,113.22,108.03,0
119,113.34,108.14,0
119,113.45,108.25,0
121,113.60,108.37,0
121,113.75,108.50,0
123,113.94,108.65,0
123,114.12,108.79,0
122,114.27,108.92,0
124,114.47,109.07,0
124,114.66,109.22,0
123,114.83,109.36,0
124,115.01,109.50,0
123,115.17,109.64,0
124,115.35,109.78,0
126,115.56,109.95,0
125,115.75,110.10,0
125,115.93,110.25,0
125,116.11,110.39,0
126,116.31,110.55,0
125,116.49,110.69,0
125,116.66,110.84,0
125,116.82,110.98,0
128,117.05,111.15,0
127,117.25,111.31,0
128,117.46,111.47,0
127,117.65,111.63,0
129,117.88,111.80,0
127,118.06,111.95,0
128,118.26,112.12,0
128,118.45,112.27,0
129,118.67,112.44,0
129,118.87,112.61,0
130,119.10,112.78,0
131,119.33,112.96,0
131,119.57,113.14,0
131,119.80,113.32,0
135,120.10,113.54,0
133,120.36,113.73,0
132,120.59,113.92,0
133,120.84,114.11,0
133,121.08,114.30,0
133,121.32,114.48,0
133,121.55,114.67,0
134,121.80,114.86,0
135,122.07,115.06,0
133,122.29,115.24,0
135,122.54,115.44,0
136,122.81,115.65,0
137,123.09,115.86,0
135,123.33,116.05,0
136,123.58,116.25,0
137,123.85,116.46,0
136,124.10,116.65,0
136,124.33,116.85,0
136,124.57,117.04,0
136,124.80,117.23,0
136,125.02,117.42,0
136,125.24,117.60,0
137,125.47,117.79,0
137,125.70,117.99,0
137,125.93,118.18,0
137,126.15,118.37,0
137,126.37,118.55,0
137,126.58,118.74,0
137,126.79,118.92,0
138,127.01,119.11,0
139,127.25,119.31,0
137,127.45,119.49,0
138,127.66,119.67,0
137,127.85,119.84,0
138,128.05,120.03,0
138,128.25,120.21,0
141,128.50,120.41,0
140,128.73,120.61,0
139,128.94,120.79,0
140,129.16,120.98,0
141,129.40,121.19,0
142,129.65,121.39,0
141,129.88,121.59,0
143,130.14,121.80,0
142,130.38,122.01,0
142,130.61,122.21,0
142,130.84,122.40,0
142,131.06,122.60,0
143,131.30,122.80,0
143,131.53,123.01,0
143,131.76,123.21,0
143,131.99,123.40,0
143,132.21,123.60,0
143,132.42,123.79,0
143,132.63,123.99,0
143,132.84,124.18,0
145,133.08,124.38,0
143,133.28,124.57,0
145,133.52,124.77,0
145,133.75,124.98,0
145,133.97,125.18,0
145,134.19,125.37,0
145,134.41,125.57,0
145,134.62,125.77,0
145,134.83,125.96,0
145,135.03,126.15,0
145,135.23,126.34,0
145,135.43,126.52,0
145,135.62,126.71,0
145,135.81,126.89,0
145,135.99,127.07,0
145,136.17,127.25,0
146,136.37,127.44,0
148,136.60,127.64,0
145,136.77,127.82,0
146,136.95,128.00,0
147,137.15,128.19,0
148,137.37,128.39,0
147,137.56,128.57,0
148,137.77,128.77,0
148,137.98,128.96,0
147,138.16,129.14,0
148,138.35,129.33,0
149,138.57,129.53,0
148,138.75,129.71,0
148,138.94,129.89,0
148,139.12,130.07,0
147,139.28,130.24,0
149,139.47,130.43,0
149,139.66,130.62,0
150,139.87,130.81,0
151,140.09,131.01,0
150,140.29,131.20,0
150,140.48,131.39,0
151,140.70,131.59,0
151,140.90,131.78,0
151,141.10,131.97,0
151,141.30,132.16,0
151,141.50,132.35,0
152,141.71,132.55,0
153,141.93,132.75,0
154,142.17,132.97,0
153,142.39,133.17,0
153,142.60,133.36,0
154,142.83,133.57,0
156,143.09,133.79,0
153,143.29,133.99,0
155,143.52,134.20,0
156,143.77,134.42,0
155,144.00,134.62,0
151,144.14,134.78,0
157,144.40,135.01,0
155,144.61,135.21,0
154,144.80,135.39,0
153,144.96,135.57,0
155,145.16,135.77,0
154,145.34,135.95,0
154,145.51,136.13,0
153,145.66,136.30,0
154,145.83,136.47,0
153,145.97,136.64,0
153,146.11,136.80,0
153,146.25,136.96,0
155,146.42,137.14,0
154,146.58,137.31,0
154,146.72,137.48,0
155,146.89,137.66,0
153,147.01,137.81,0
155,147.17,137.98,0
153,147.29,138.13,0
155,147.44,138.30,0
155,147.59,138.47,0
155,147.74,138.63,0
155,147.89,138.80,0
157,148.07,138.98,0
157,148.25,139.16,0
158,148.44,139.35,0
160,148.67,139.55,0
160,148.90,139.76,0
160,149.12,139.96,0
159,149.32,140.15,0
161,149.55,140.36,0
160,149.76,140.56,0
161,149.99,140.76,0
161,150.21,140.96,0
162,150.44,141.17,0
162,150.67,141.38,0
162,150.90,141.59,0
162,151.12,141.79,0
167,151.44,142.04,0
164,151.69,142.26,0
163,151.92,142.47,0
165,152.18,142.70,0
164,152.42,142.91,0
165,152.67,143.13,0
167,152.95,143.37,0
167,153.24,143.60,0
168,153.53,143.85,0
172,153.90,144.13,0
171,154.24,144.40,0
175,154.66,144.70,0
172,155.00,144.98,0
174,155.38,145.27,0
175,155.78,145.57,0
175,156.16,145.86,0
174,156.52,146.14,0
177,156.93,146.45,0
177,157.33,146.76,0
178,157.74,147.07,0
177,158.13,147.37,0
180,158.56,147.69,0
180,158.99,148.02,0
180,159.41,148.34,0
181,159.85,148.66,0
183,160.31,149.01,0
183,160.76,149.35,0
181,161.17,149.66,0
185,161.64,150.02,0
185,162.11,150.37,0
185,162.57,150.71,0
188,163.08,151.09,0
191,163.64,151.48,0
192,164.20,151.89,0
191,164.74,152.28,0
192,165.28,152.68,0
193,165.84,153.08,0
193,166.38,153.48,0
193,166.91,153.88,0
192,167.42,154.26,0
193,167.93,154.64,0
193,168.43,155.03,0
193,168.92,155.41,0
196,169.46,155.81,0
195,169.97,156.20,0
196,170.49,156.60,0
195,170.98,156.99,0
196,171.48,157.38,0
195,171.95,157.75,0
197,172.45,158.15,0
195,172.91,158.51,0
197,173.39,158.90,0
196,173.84,159.27,0
195,174.26,159.63,0
196,174.70,159.99,0
196,175.12,160.35,0
197,175.56,160.72,0
197,175.99,161.08,0
199,176.45,161.46,0
199,176.90,161.84,0
199,177.34,162.21,0
198,177.76,162.56,0
198,178.16,162.92,0
199,178.58,163.28,0
200,179.01,163.65,0
200,179.43,164.01,0
201,179.86,164.38,0
201,180.28,164.75,0
202,180.72,165.12,0
201,181.12,165.48,0
201,181.52,165.83,0
202,181.93,166.19,0
202,182.33,166.55,0
201,182.70,166.90,0
202,183.09,167.25,0
203,183.49,167.61,0
201,183.84,167.94,0
204,184.24,168.30,0
205,184.66,168.67,0
207,185.10,169.05,0
205,185.50,169.41,0
206,185.91,169.78,0
207,186.33,170.15,0
209,186.79,170.54,0
211,187.27,170.94,0
211,187.74,171.34,0
211,188.21,171.74,0
212,188.69,172.14,0
209,189.09,172.51,0
209,189.49,172.87,0
209,189.88,173.24,0
209,190.26,173.59,0
209,190.64,173.95,0
209,191.00,174.30,0
209,191.36,174.65,0
208,191.70,174.98,0
209,192.04,175.32,0
208,192.36,175.65,0
209,192.70,175.98,0
208,193.00,176.30,0
208,193.30,176.62,0
207,193.58,176.92,0
207,193.84,177.22,0
206,194.09,177.51,0
208,194.37,177.81,0
205,194.58,178.09,0
206,194.81,178.37,0
205,195.01,178.63,0
205,195.21,178.90,0
205,195.41,179.16,0
203,195.56,179.39,0
204,195.73,179.64,0
204,195.89,179.88,0
204,196.05,180.13,0
203,196.19,180.35,0
203,196.33,180.58,0
203,196.46,180.80,0
203,196.59,181.03,0
201,196.68,181.23,0
203,196.81,181.44,0
201,196.89,181.64,0
202,196.99,181.84,0
201,197.07,182.03,0
201,197.15,182.22,0
201,197.23,182.41,0
200,197.28,182.59,0
201,197.36,182.77,0
200,197.41,182.94,0
199,197.44,183.11,0
199,197.47,183.26,0
199,197.51,183.42,0
199,197.54,183.58,0
200,197.58,183.74,0
198,197.59,183.88,0
198,197.60,184.03,0
197,197.59,184.16,0
199,197.62,184.30,0
197,197.60,184.43,0
197,197.59,184.56,0
197,197.58,184.68,0
197,197.57,184.80,0
197,197.56,184.93,0
197,197.55,185.05,0
197,197.54,185.17,0
196,197.51,185.27,0
196,197.48,185.38,0
195,197.43,185.48,0
196,197.40,185.58,0
195,197.35,185.68,0
197,197.34,185.79,0
195,197.30,185.88,0
195,197.25,185.97,0
195,197.20,186.06,0
195,197.16,186.15,0
194,197.10,186.23,0
194,197.04,186.31,0
193,196.95,186.38,0
193,196.88,186.44,0
193,196.80,186.51,0
193,196.72,186.57,0
193,196.65,186.64,0
192,196.55,186.69,0
192,196.46,186.74,0
192,196.37,186.80,0
193,196.31,186.86,0
192,196.22,186.91,0
192,196.14,186.96,0
191,196.03,187.00,0
191,195.93,187.04,0
191,195.83,187.08,0
192,195.76,187.13,0
189,195.62,187.15,0
190,195.51,187.18,0
189,195.38,187.20,0
190,195.27,187.22,0
189,195.15,187.24,0
189,195.02,187.26,0
189,194.90,187.28,0
189,194.79,187.29,0
189,194.67,187.31,0
188,194.54,187.32,0
188,194.41,187.32,0
187,194.26,187.32,0
188,194.13,187.33,0
187,193.99,187.32,0
187,193.85,187.32,0
187,193.71,187.32,0
188,193.60,187.33,0
186,193.45,187.31,0
185,193.28,187.29,0
185,193.11,187.27,0
185,192.95,187.24,0
185,192.79,187.22,0
185,192.63,187.20,0
185,192.48,187.18,0
185,192.33,187.15,0
185,192.19,187.13,0
185,192.04,187.11,0
184,191.88,187.08,0
184,191.72,187.05,0
184,191.57,187.02,0
184,191.42,186.99,0
185,191.29,186.97,0
183,191.12,186.93,0
184,190.98,186.90,0
183,190.82,186.86,0
183,190.67,186.82,0
182,190.49,186.77,0
184,190.36,186.75,0
181,190.17,186.69,0
181,189.99,186.63,0
181,189.81,186.58,0
181,189.64,186.52,0
181,189.46,186.47,0
181,189.29,186.41,0
181,189.13,186.36,0
180,188.94,186.29,0
180,188.77,186.23,0
180,188.59,186.17,0
181,188.44,186.12,0
180,188.27,186.05,0
180,188.10,185.99,0
179,187.92,185.92,0
179,187.74,185.86,0
179,187.57,185.79,0
180,187.42,185.73,0
177,187.21,185.64,0
178,187.03,185.56,0
178,186.84,185.49,0
178,186.67,185.41,0
179,186.51,185.35,0
178,186.34,185.28,0
177,186.16,185.19,0
177,185.97,185.11,0
177,185.79,185.03,0
177,185.62,184.95,0
177,185.45,184.87,0
176,185.26,184.78,0
176,185.07,184.69,0
177,184.91,184.62,0
177,184.75,184.54,0
176,184.58,184.46,1
176,184.41,184.37,1
178,184.28,184.31,2
175,184.09,184.21,2
175,183.91,184.12,2
175,183.73,184.03,2
175,183.56,183.94,2
175,183.39,183.85,2
175,183.22,183.76,2
174,183.03,183.67,2
175,182.87,183.58,2
175,182.72,183.49,2
175,182.56,183.41,2
175,182.41,183.32,2
174,182.24,183.23,2
173,182.06,183.13,2
175,181.92,183.05,2
173,181.74,182.95,2
171,181.52,182.83,2
173,181.35,182.73,2
173,181.19,182.63,2
173,181.02,182.54,2
173,180.86,182.44,2
172,180.68,182.34,2
172,180.51,182.23,2
172,180.34,182.13,2
171,180.15,182.02,2
172,179.99,181.92,2
171,179.81,181.81,2
171,179.63,181.70,2
171,179.46,181.59,2
171,179.29,181.49,2
169,179.09,181.36,2
171,178.93,181.26,2
169,178.73,181.14,2
169,178.53,181.02,2
169,178.34,180.90,2
169,178.15,180.78,2
170,177.99,180.67,2
169,177.81,180.55,2
169,177.64,180.44,2
169,177.46,180.32,2
169,177.29,180.21,2
168,177.11,180.09,2
169,176.95,179.98,2
168,176.77,179.86,2
167,176.57,179.73,2
167,176.38,179.60,2
167,176.19,179.47,2
167,176.01,179.35,2
168,175.85,179.24,2
167,175.67,179.11,2
167,175.50,178.99,2
167,175.33,178.87,2
167,175.16,178.75,2
167,175.00,178.64,2
166,174.82,178.51,2
169,174.70,178.42,2
166,174.53,178.29,2
167,174.38,178.18,2
165,174.19,178.05,2
166,174.03,177.93,2
166,173.87,177.81,2
165,173.69,177.68,2
165,173.51,177.55,2
165,173.34,177.43,2
165,173.18,177.30,2
165,173.01,177.18,2
164,172.83,177.05,2
164,172.66,176.92,2
165,172.50,176.80,2
164,172.33,176.67,2
163,172.15,176.53,2
162,171.94,176.39,2
163,171.77,176.25,2
163,171.59,176.12,2
163,171.42,175.99,2
163,171.25,175.86,2
162,171.06,175.72,2
162,170.88,175.58,2
161,170.69,175.44,2
162,170.51,175.30,2
163,170.36,175.18,2
162,170.19,175.05,2
161,170.01,174.91,2
161,169.83,174.77,2
161,169.65,174.63,2
161,169.48,174.50,2
162,169.33,174.37,2
159,169.12,174.22,2
161,168.96,174.08,2
161,168.80,173.95,2
160,168.63,173.81,2
160,168.45,173.68,2
161,168.31,173.55,2
159,168.12,173.40,2
159,167.94,173.26,2
160,167.78,173.13,2
159,167.60,172.99,2
160,167.45,172.86,2
159,167.28,172.72,2
159,167.12,172.58,2
159,166.95,172.44,2
158,166.77,172.30,2
157,166.58,172.15,2
158,166.41,172.01,2
157,166.22,171.86,2
157,166.03,171.71,2
157,165.85,171.56,2
157,165.68,171.41,2
158,165.52,171.28,2
157,165.35,171.14,2
156,165.17,170.99,2
157,165.00,170.85,2
157,164.84,170.71,2
157,164.69,170.57,2
157,164.53,170.44,2
157,164.38,170.30,2
157,164.23,170.17,2
156,164.07,170.03,2
157,163.93,169.90,2
156,163.77,169.76,2
156,163.61,169.62,2
156,163.46,169.48,2
155,163.29,169.34,2
156,163.15,169.20,2
155,162.98,169.06,2
155,162.82,168.92,2
155,162.67,168.78,2
156,162.53,168.66,2
155,162.38,168.52,2
156,162.26,168.39,2
155,162.11,168.26,2
155,161.97,168.13,2
155,161.83,168.00,2
155,161.69,167.87,2
155,161.56,167.74,2
157,161.47,167.63,2
156,161.36,167.51,2
155,161.23,167.39,2
156,161.13,167.27,2
156,161.02,167.16,2
156,160.92,167.05,2
156,160.82,166.94,2
156,160.73,166.83,2
155,160.61,166.71,2
156,160.52,166.60,2
155,160.41,166.49,2
156,160.32,166.38,2
155,160.22,166.27,2
155,160.11,166.16,2
155,160.01,166.05,2
156,159.93,165.95,2
155,159.83,165.84,2
155,159.73,165.73,2
153,159.60,165.60,2
154,159.49,165.48,2
154,159.38,165.37,2
153,159.25,165.25,2
153,159.13,165.12,2
153,159.00,165.00,2
153,158.88,164.88,2
153,158.77,164.76,2
153,158.65,164.65,2
153,158.54,164.53,2
153,158.43,164.41,2
153,158.32,164.30,2
151,158.17,164.17,2
153,158.07,164.05,2
153,157.97,163.94,2
152,157.85,163.82,2
152,157.73,163.71,2
152,157.62,163.59,2
152,157.50,163.47,2
152,157.39,163.36,2
152,157.29,163.25,2
151,157.16,163.12,2
151,157.04,163.00,2
151,156.92,162.88,2
151,156.80,162.76,2
151,156.68,162.65,2
150,156.55,162.52,2
150,156.42,162.39,2
150,156.29,162.27,2
151,156.18,162.16,2
149,156.04,162.03,2
151,155.94,161.92,2
149,155.80,161.79,2
149,155.66,161.66,2
150,155.55,161.54,2
149,155.42,161.42,2
149,155.29,161.29,2
148,155.15,161.16,2
149,155.02,161.04,2
149,154.90,160.92,2
149,154.78,160.80,2
149,154.67,160.68,2
150,154.57,160.57,2
148,154.44,160.45,2
148,154.31,160.32,2
147,154.17,160.19,2
148,154.04,160.07,2
148,153.92,159.95,2
149,153.83,159.84,2
148,153.71,159.72,2
147,153.57,159.59,2
151,153.52,159.51,2
147,153.39,159.38,2
147,153.26,159.26,2
148,153.16,159.14,2
147,153.04,159.02,2
147,152.92,158.90,2
147,152.80,158.78,2
147,152.68,158.67,2
148,152.59,158.56,2
147,152.48,158.44,2
147,152.37,158.33,2
146,152.24,158.21,2
145,152.09,158.07,2
146,151.97,157.95,2
145,151.83,157.82,2
146,151.72,157.71,2
144,151.56,157.57,2
145,151.43,157.44,2
147,151.34,157.34,2
145,151.22,157.22,2
145,151.09,157.09,2
145,150.97,156.97,2
145,150.85,156.85,2
145,150.73,156.73,2
145,150.62,156.62,2
145,150.51,156.50,2
144,150.38,156.38,2
144,150.25,156.25,2
144,150.12,156.13,2
145,150.02,156.02,2
143,149.88,155.89,2
145,149.78,155.78,2
143,149.65,155.65,2
144,149.53,155.53,2
144,149.42,155.42,2
145,149.34,155.31,2
143,149.21,155.19,2
143,149.08,155.07,2
141,148.92,154.93,2
143,148.80,154.81,2
143,148.69,154.69,2
143,148.57,154.57,2
141,148.42,154.44,2
142,148.29,154.31,2
142,148.17,154.19,2
141,148.03,154.06,2
141,147.88,153.93,2
141,147.75,153.80,2
141,147.61,153.67,2
141,147.48,153.55,2
141,147.35,153.42,2
139,147.18,153.28,2
141,147.06,153.15,2
141,146.94,153.03,2
141,146.82,152.91,2
141,146.70,152.79,2
141,146.59,152.67,2
140,146.46,152.55,2
140,146.33,152.42,2
140,146.20,152.30,2
138,146.04,152.15,2
140,145.92,152.03,2
140,145.80,151.91,2
140,145.68,151.79,2
139,145.55,151.67,2
139,145.42,151.54,2
139,145.29,151.41,2
140,145.18,151.30,2
138,145.04,151.17,2
137,144.88,151.02,2
137,144.72,150.88,2
138,144.59,150.76,2
137,144.44,150.62,2
139,144.33,150.50,2
137,144.18,150.37,2
137,144.04,150.23,2
137,143.90,150.10,2
137,143.76,149.97,2
137,143.62,149.84,2
137,143.49,149.71,2
138,143.38,149.59,2
137,143.25,149.47,2
137,143.13,149.34,2
136,142.99,149.21,2
137,142.87,149.09,2
136,142.73,148.96,2
136,142.59,148.83,2
136,142.46,148.70,2
136,142.33,148.57,2
135,142.19,148.44,2
135,142.04,148.30,2
135,141.90,148.17,2
135,141.76,148.04,2
135,141.63,147.91,2
135,141.50,147.78,2
135,141.37,147.65,2
135,141.24,147.52,2
135,141.11,147.40,2
135,140.99,147.27,2
136,140.89,147.16,2
135,140.77,147.04,2
136,140.68,146.93,2
133,140.52,146.79,2
134,140.39,146.66,2
135,140.29,146.55,2
135,140.18,146.43,2
133,140.04,146.30,2
135,139.94,146.18,2
134,139.82,146.06,2
133,139.68,145.93,2
133,139.55,145.80,2
133,139.42,145.67,2
134,139.31,145.56,2
133,139.18,145.43,2
133,139.06,145.31,2
133,138.94,145.18,2
133,138.82,145.06,2
133,138.70,144.94,2
133,138.59,144.82,2
133,138.48,144.70,2
132,138.35,144.58,2
131,138.20,144.44,2
133,138.10,144.33,2
133,137.99,144.21,2
132,137.87,144.09,2
132,137.76,143.97,2
132,137.64,143.85,2
133,137.55,143.74,2
133,137.46,143.63,2
132,137.35,143.52,2
132,137.24,143.40,2
132,137.14,143.29,2
131,137.01,143.17,2
132,136.91,143.05,2
130,136.78,142.92,2
132,136.68,142.82,2
132,136.59,142.71,2
132,136.49,142.60,2
131,136.38,142.48,2
133,136.32,142.39,2
131,136.21,142.28,2
131,136.11,142.16,2
129,135.96,142.03,2
131,135.87,141.92,2
131,135.77,141.81,2
131,135.67,141.70,2
131,135.58,141.60,2
131,135.49,141.49,2
131,135.40,141.39,2
133,135.35,141.30,2
130,135.24,141.19,2
130,135.14,141.08,2
130,135.04,140.97,2
130,134.93,140.86,2
131,134.86,140.76,2
129,134.74,140.64,2
129,134.62,140.52,2
129,134.51,140.41,2
129,134.40,140.29,2
129,134.29,140.18,2
129,134.19,140.07,2
129,134.08,139.96,2
129,133.98,139.85,2
129,133.88,139.74,2
129,133.78,139.63,2
128,133.67,139.52,2
129,133.58,139.41,2
130,133.50,139.32,2
129,133.41,139.21,2
129,133.33,139.11,2
129,133.24,139.01,2
129,133.15,138.91,2
129,133.07,138.81,2
130,133.01,138.72,2
129,132.93,138.63,2
128,132.83,138.52,2
128,132.73,138.42,2
129,132.66,138.32,2
128,132.57,138.22,2
128,132.48,138.12,2
127,132.37,138.00,2
127,132.26,137.89,2
129,132.19,137.81,2
128,132.11,137.71,2
129,132.05,137.62,2
128,131.97,137.52,2
128,131.89,137.43,2
128,131.81,137.33,2
128,131.73,137.24,2
128,131.66,137.15,2
129,131.61,137.07,2
129,131.55,136.99,2
128,131.48,136.90,2
128,131.41,136.81,2
129,131.36,136.73,2
127,131.28,136.63,2
128,131.21,136.55,2
127,131.13,136.45,2
127,131.04,136.36,2
127,130.96,136.26,2
127,130.88,136.17,2
127,130.81,136.08,2
127,130.73,135.99,2
127,130.66,135.90,2
127,130.58,135.81,2
127,130.51,135.72,2
127,130.44,135.63,2
127,130.37,135.55,2
127,130.30,135.46,2
126,130.22,135.37,2
126,130.13,135.27,2
127,130.07,135.19,2
127,130.01,135.11,2
127,129.95,135.03,2
127,129.89,134.95,2
127,129.83,134.87,2
129,129.82,134.81,2
127,129.76,134.73,2
127,129.70,134.65,2
127,129.65,134.58,2
127,129.60,134.50,2
127,129.55,134.43,2
127,129.49,134.35,2
127,129.45,134.28,2
126,129.38,134.20,2
127,129.33,134.12,2
127,129.28,134.05,2
127,129.24,133.98,2
127,129.19,133.91,2
125,129.11,133.82,2
127,129.07,133.76,2
127,129.02,133.69,2
127,128.98,133.62,2
127,128.94,133.55,2
127,128.91,133.49,2
125,128.83,133.40,2
126,128.77,133.33,2
127,128.74,133.27,2
126,128.68,133.19,2
126,128.63,133.12,2
126,128.57,133.05,2
127,128.54,132.99,2
126,128.49,132.92,2
126,128.44,132.85,2
127,128.41,132.79,2
126,128.37,132.72,2
125,128.30,132.65,2
126,128.25,132.58,2
127,128.23,132.53,2
127,128.20,132.47,2
127,128.18,132.42,2
126,128.13,132.35,2
127,128.11,132.30,2
125,128.05,132.22,2
126,128.01,132.16,2
125,127.95,132.09,2
126,127.91,132.03,2
125,127.85,131.96,2
125,127.79,131.89,2
123,127.70,131.80,2
127,127.68,131.75,2
125,127.63,131.69,2
125,127.58,131.62,2
125,127.53,131.55,2
126,127.50,131.50,2
126,127.47,131.44,2
125,127.42,131.38,2
125,127.37,131.31,2
125,127.32,131.25,2
125,127.27,131.19,2
125,127.23,131.13,2
126,127.20,131.07,2
125,127.16,131.01,2
125,127.12,130.95,2
124,127.06,130.88,2
125,127.01,130.83,2
123,126.93,130.75,2
125,126.90,130.69,2
124,126.84,130.62,2
124,126.78,130.56,2
125,126.74,130.50,2
127,126.75,130.47,2
125,126.71,130.41,2
125,126.68,130.36,2
125,126.65,130.30,2
125,126.61,130.25,2
125,126.58,130.20,2
125,126.55,130.15,2
125,126.52,130.09,2
125,126.49,130.04,2
125,126.46,129.99,2
125,126.43,129.94,2
125,126.40,129.89,2
125,126.37,129.85,2
125,126.35,129.80,2
125,126.32,129.75,2
125,126.29,129.70,2
125,126.27,129.65,2
129,126.32,129.65,2
125,126.29,129.60,2
125,126.27,129.56,2
125,126.24,129.51,2
125,126.22,129.46,2
126,126.21,129.43,2
126,126.21,129.40,2
126,126.21,129.36,2
126,126.20,129.33,2
127,126.22,129.30,2
126,126.21,129.27,2
127,126.23,129.25,2
127,126.24,129.23,2
128,126.28,129.21,2
127,126.29,129.19,2
127,126.31,129.17,2
128,126.34,129.16,2
129,126.40,129.16,2
127,126.41,129.14,2
128,126.44,129.12,2
129,126.49,129.12,2
128,126.52,129.11,2
127,126.53,129.09,2
127,126.54,129.07,2
127,126.55,129.05,2
127,126.56,129.03,2
127,126.57,129.01,2
127,126.58,128.99,2
128,126.60,128.98,2
128,126.63,128.97,2
128,126.66,128.96,2
128,126.69,128.95,2
127,126.69,128.93,2
127,126.70,128.91,2
129,126.74,128.91,2
128,126.77,128.90,2
128,126.79,128.89,2
128,126.82,128.88,2
128,126.84,128.88,2
127,126.85,128.86,2
127,126.85,128.84,2
128,126.87,128.83,2
128,126.89,128.82,2
129,126.94,128.82,2
129,126.98,128.82,2
130,127.04,128.84,2
130,127.10,128.85,2
129,127.13,128.85,2
130,127.19,128.86,2
130,127.25,128.87,2
129,127.28,128.87,2
131,127.36,128.90,2
129,127.39,128.90,2
130,127.44,128.91,2
130,127.49,128.92,2
132,127.58,128.95,2
129,127.61,128.95,2
129,127.64,128.95,2
129,127.67,128.95,2
129,127.69,128.95,2
129,127.72,128.95,2
129,127.75,128.95,2
131,127.81,128.97,2
130,127.85,128.98,2
131,127.92,129.00,2
131,127.98,129.02,2
133,128.08,129.06,2
131,128.14,129.08,2
132,128.22,129.11,2
133,128.31,129.15,2
133,128.40,129.19,2
132,128.48,129.22,2
132,128.55,129.24,2
132,128.62,129.27,2
131,128.66,129.29,2
133,128.75,129.33,2
133,128.84,129.36,2
132,128.90,129.39,2
132,128.96,129.42,2
133,129.04,129.45,2
132,129.10,129.48,2
133,129.18,129.51,2
132,129.24,129.54,2
133,129.31,129.57,2
133,129.38,129.61,2
133,129.46,129.64,2
133,129.53,129.67,2
135,129.64,129.73,2
133,129.70,129.76,2
134,129.79,129.80,2
133,129.85,129.83,2
133,129.92,129.87,2
133,129.98,129.90,2
133,130.04,129.93,3
134,130.12,129.97,3
134,130.20,130.01,3
133,130.25,130.04,3
133,130.31,130.07,3
133,130.36,130.10,3
135,130.45,130.15,3
135,130.54,130.20,3
133,130.59,130.22,3
135,130.68,130.27,3
135,130.77,130.32,3
137,130.89,130.39,3
137,131.02,130.45,3
137,131.13,130.52,3
137,131.25,130.58,3
137,131.37,130.65,3
138,131.50,130.72,3
136,131.59,130.77,3
137,131.70,130.83,3
137,131.80,130.90,3
137,131.91,130.96,3
137,132.01,131.02,3
138,132.13,131.09,3
137,132.23,131.15,3
138,132.34,131.22,3
141,132.52,131.31,3
141,132.69,131.41,3
143,132.89,131.53,3
146,133.15,131.67,3
145,133.39,131.80,3
147,133.66,131.96,3
145,133.89,132.09,3
146,134.13,132.23,3
147,134.39,132.37,3
146,134.62,132.51,3
146,134.85,132.64,3
145,135.05,132.77,3
145,135.25,132.89,3
145,135.45,133.01,3
145,135.64,133.13,3
146,135.84,133.26,3
145,136.03,133.38,3
145,136.21,133.49,3
146,136.40,133.62,3
145,136.57,133.73,3
145,136.74,133.85,3
145,136.91,133.96,3
147,137.11,134.09,3
148,137.33,134.23,3
148,137.54,134.36,3
147,137.73,134.49,3
147,137.92,134.62,3
148,138.12,134.75,3
149,138.34,134.89,3
149,138.55,135.03,3
149,138.76,135.17,3
151,139.00,135.33,3
149,139.20,135.47,3
149,139.40,135.60,3
151,139.63,135.76,3
152,139.88,135.92,3
150,140.08,136.06,3
151,140.30,136.21,3
151,140.51,136.36,3
150,140.70,136.49,3
151,140.91,136.64,3
151,141.11,136.78,3
151,141.31,136.92,3
151,141.50,137.07,3
151,141.69,137.20,3
150,141.86,137.33,3
153,142.08,137.49,3
152,142.28,137.63,3
152,142.47,137.78,3
152,142.66,137.92,3
153,142.87,138.07,3
151,143.03,138.20,3
153,143.23,138.35,3
151,143.39,138.47,3
152,143.56,138.61,3
152,143.73,138.74,3
151,143.87,138.87,3
153,144.06,139.01,3
155,144.28,139.17,3
153,144.45,139.31,3
153,144.62,139.44,3
155,144.83,139.60,3
155,145.03,139.75,3
156,145.25,139.92,3
157,145.49,140.09,3
157,145.72,140.26,3
156,145.92,140.41,3
156,146.12,140.57,3
157,146.34,140.73,3
159,146.59,140.92,3
158,146.82,141.09,3
160,147.09,141.28,3
158,147.30,141.44,3
160,147.56,141.63,3
159,147.79,141.80,3
159,148.01,141.97,3
159,148.23,142.14,3
159,148.45,142.31,3
159,148.66,142.48,3
159,148.86,142.64,3
160,149.09,142.82,3
162,149.35,143.01,3
164,149.64,143.22,3
162,149.89,143.41,3
162,150.13,143.59,3
165,150.43,143.81,3
165,150.72,144.02,3
164,150.98,144.22,3
167,151.30,144.45,3
167,151.62,144.67,3
169,151.96,144.92,3
171,152.35,145.18,3
170,152.70,145.43,3
170,153.04,145.67,3
169,153.36,145.90,3
171,153.72,146.16,3
170,154.04,146.39,3
172,154.40,146.65,3
173,154.77,146.91,3
173,155.14,147.17,3
175,155.54,147.45,3
175,155.92,147.73,3
175,156.31,148.00,3
175,156.68,148.27,3
176,157.07,148.55,3
177,157.46,148.83,3
177,157.86,149.11,3
180,158.30,149.42,3
183,158.79,149.76,3
184,159.30,150.10,3
181,159.73,150.41,3
183,160.20,150.74,3
186,160.71,151.09,3
187,161.24,151.45,3
188,161.77,151.81,3
187,162.28,152.17,3
188,162.79,152.52,3
191,163.36,152.91,3
189,163.87,153.27,3
189,164.37,153.63,3
189,164.86,153.98,3
191,165.39,154.35,3
192,165.92,154.73,3
192,166.44,155.10,3
192,166.95,155.47,3
193,167.47,155.84,3
193,167.98,156.22,3
193,168.48,156.58,3
193,168.97,156.95,3
193,169.45,157.31,3
194,169.95,157.68,3
193,170.41,158.03,3
196,170.92,158.41,3
197,171.44,158.79,3
197,171.95,159.18,3
198,172.47,159.56,3
198,172.98,159.95,3
199,173.50,160.34,3
200,174.03,160.74,3
201,174.57,161.14,3
201,175.10,161.54,3
202,175.64,161.94,3
204,176.21,162.36,3
204,176.76,162.78,3
207,177.37,163.22,3
207,177.96,163.66,3
207,178.54,164.09,3
207,179.11,164.52,3
207,179.67,164.95,3
208,180.23,165.38,3
211,180.85,165.83,3
211,181.45,166.28,3
210,182.02,166.72,3
211,182.60,167.16,3
211,183.17,167.60,3
212,183.75,168.05,3
209,184.25,168.46,3
211,184.79,168.88,3
212,185.33,169.31,3
213,185.89,169.75,3
213,186.43,170.18,3
213,186.96,170.61,3
216,187.54,171.06,3
216,188.11,171.51,3
219,188.73,171.99,3
219,189.33,172.46,3
218,189.91,172.91,3
221,190.53,173.39,3
221,191.14,173.87,3
220,191.71,174.33,3
220,192.28,174.79,3
222,192.87,175.26,3
221,193.44,175.72,3
223,194.03,176.19,3
223,194.61,176.66,3
223,195.18,177.12,3
224,195.75,177.59,3
223,196.30,178.05,3
221,196.79,178.48,3
221,197.28,178.90,3
223,197.79,179.34,3
221,198.25,179.76,3
222,198.73,180.18,3
222,199.19,180.60,3
222,199.65,181.01,3
221,200.08,181.41,3
221,200.50,181.81,3
221,200.91,182.20,3
221,201.31,182.59,3
220,201.68,182.96,3
221,202.07,183.34,3
220,202.43,183.71,3
220,202.78,184.07,3
219,203.10,184.42,3
220,203.44,184.78,3
220,203.77,185.13,3
218,204.06,185.46,3
220,204.38,185.80,3
219,204.67,186.14,3
219,204.95,186.46,3
219,205.24,186.79,3
218,205.49,187.10,3
217,205.72,187.40,3
217,205.95,187.70,3
217,206.17,187.99,3
217,206.38,188.28,3
217,206.60,188.57,3
217,206.80,188.85,3
217,207.01,189.13,3
217,207.21,189.41,3
217,207.40,189.69,3
217,207.60,189.96,3
216,207.76,190.22,3
216,207.93,190.48,3
216,208.09,190.73,3
215,208.23,190.98,3
215,208.36,191.22,3
214,208.48,191.44,3
214,208.59,191.67,3
213,208.68,191.88,3
213,208.76,192.09,3
213,208.85,192.30,3
213,208.93,192.51,3
213,209.01,192.72,3
213,209.09,192.92,3
212,209.15,193.11,3
212,209.21,193.30,3
211,209.24,193.48,3
210,209.26,193.64,3
212,209.31,193.82,3
211,209.35,194.00,3
209,209.34,194.15,3
210,209.35,194.30,3
211,209.38,194.47,3
210,209.40,194.63,3
213,209.47,194.81,3
209,209.46,194.95,3
209,209.45,195.09,3
209,209.44,195.23,3
207,209.39,195.35,3
208,209.37,195.48,3
207,209.32,195.59,3
208,209.29,195.72,3
209,209.29,195.85,3
208,209.26,195.97,3
209,209.25,196.10,3
207,209.21,196.21,3
207,209.17,196.32,3
207,209.12,196.42,3
206,209.06,196.52,3
206,209.00,196.61,3
206,208.94,196.71,3
205,208.86,196.79,3
205,208.78,196.87,3
205,208.71,196.95,3
205,208.63,197.04,3
204,208.54,197.10,3
204,208.45,197.17,3
204,208.36,197.24,3
203,208.25,197.30,3
204,208.17,197.37,3
203,208.06,197.42,3
203,207.96,197.48,3
203,207.86,197.53,3
202,207.75,197.58,3
201,207.61,197.61,3
203,207.52,197.67,3
201,207.39,197.70,3
201,207.26,197.73,3
201,207.14,197.77,3
200,206.99,197.79,3
201,206.87,197.82,3
200,206.74,197.84,3
199,206.58,197.85,3
199,206.43,197.86,3
200,206.30,197.89,3
199,206.16,197.90,3
200,206.03,197.92,3
198,205.87,197.92,3
197,205.69,197.91,3
199,205.56,197.92,3
198,205.41,197.92,3
197,205.24,197.91,3
199,205.12,197.92,3
197,204.95,197.91,3
197,204.79,197.91,3
197,204.64,197.90,3
197,204.49,197.89,3
196,204.32,197.87,3
197,204.17,197.86,3
197,204.03,197.85,3
196,203.87,197.83,3
196,203.71,197.81,3
196,203.55,197.80,3
196,203.40,197.78,3
196,203.26,197.76,3
195,203.09,197.73,3
194,202.91,197.70,3
194,202.73,197.66,3
194,202.56,197.62,3
194,202.38,197.59,3
193,202.20,197.54,3
194,202.03,197.50,3
194,201.87,197.47,3
194,201.71,197.43,3
192,201.52,197.38,3
193,201.35,197.34,3
193,201.18,197.29,3
193,201.02,197.25,3
192,200.84,197.20,3
191,200.64,197.14,3
192,200.47,197.08,3
191,200.28,197.02,3
191,200.09,196.96,3
191,199.91,196.90,3
192,199.75,196.85,3
191,199.58,196.80,3
191,199.41,196.74,3
189,199.20,196.66,3
190,199.02,196.59,3
190,198.84,196.53,3
190,198.66,196.46,3
189,198.47,196.39,3
189,198.28,196.31,3
189,198.09,196.24,3
189,197.91,196.17,3
189,197.73,196.10,3
189,197.56,196.03,3
188,197.36,195.95,3
187,197.16,195.86,3
188,196.97,195.78,3
187,196.78,195.69,3
189,196.62,195.62,3
187,196.43,195.54,3
186,196.22,195.44,3
185,195.99,195.34,3
186,195.79,195.24,3
186,195.60,195.15,3
185,195.39,195.05,3
185,195.18,194.95,3
185,194.98,194.85,4
185,194.78,194.75,4
185,194.58,194.65,5
184,194.37,194.55,5
185,194.18,194.45,5
183,193.96,194.34,5
183,193.74,194.22,5
184,193.54,194.12,5
183,193.33,194.01,5
182,193.11,193.89,5
183,192.90,193.78,5
182,192.69,193.66,5
182,192.47,193.55,5
181,192.24,193.42,5
181,192.02,193.30,5
181,191.80,193.17,5
181,191.58,193.05,5
181,191.37,192.93,5
181,191.16,192.81,5
180,190.94,192.68,5
180,190.72,192.56,5
179,190.49,192.42,5
180,190.28,192.30,5
179,190.05,192.17,5
180,189.85,192.04,5
179,189.63,191.91,5
177,189.38,191.76,5
179,189.17,191.64,5
179,188.97,191.51,5
178,188.75,191.37,5
179,188.55,191.25,5
177,188.32,191.11,5
178,188.12,190.98,5
177,187.89,190.84,5
177,187.68,190.70,5
178,187.48,190.57,5
177,187.27,190.44,5
177,187.07,190.30,5
177,186.87,190.17,5
177,186.67,190.04,5
176,186.46,189.90,5
177,186.27,189.77,5
176,186.06,189.63,5
175,185.84,189.48,5
177,185.66,189.36,5
176,185.47,189.23,5
175,185.26,189.08,5
175,185.06,188.94,5
173,184.81,188.78,5
174,184.60,188.64,5
173,184.37,188.48,5
174,184.16,188.33,5
174,183.96,188.19,5
173,183.74,188.04,5
173,183.52,187.89,5
173,183.31,187.74,5
173,183.11,187.59,5
171,182.86,187.43,5
172,182.65,187.27,5
172,182.43,187.12,5
170,182.18,186.95,5
171,181.96,186.79,5
173,181.78,186.65,5
171,181.57,186.49,5
172,181.37,186.35,5
171,181.17,186.20,5
171,180.96,186.04,5
171,180.76,185.89,5
170,180.55,185.73,5
170,180.34,185.58,5
170,180.13,185.42,5
169,179.91,185.26,5
169,179.69,185.09,5
169,179.48,184.93,5
168,179.25,184.76,5
169,179.04,184.61,5
169,178.84,184.45,5
169,178.64,184.30,5
168,178.43,184.13,5
168,178.22,183.97,5
168,178.02,183.81,5
168,177.82,183.65,5
168,177.62,183.50,5
167,177.41,183.33,5
167,177.20,183.17,5
167,177.00,183.01,5
166,176.78,182.84,5
166,176.56,182.67,5
167,176.37,182.51,5
167,176.18,182.36,5
166,175.98,182.19,5
166,175.78,182.03,5
165,175.56,181.86,5
165,175.35,181.69,5
165,175.15,181.53,5
165,174.94,181.36,5
165,174.74,181.20,5
165,174.55,181.04,5
165,174.36,180.87,5
161,174.09,180.68,5
165,173.91,180.52,5
164,173.71,180.35,5
164,173.52,180.19,5
164,173.33,180.03,5
163,173.12,179.86,5
164,172.94,179.70,5
164,172.76,179.54,5
164,172.58,179.39,5
163,172.39,179.22,5
164,172.22,179.07,5
163,172.04,178.91,5
164,171.88,178.76,5
163,171.70,178.60,5
163,171.53,178.45,5
161,171.32,178.27,5
162,171.13,178.11,5
163,170.97,177.96,5
164,170.83,177.82,5
162,170.65,177.66,5
162,170.48,177.51,5
161,170.29,177.34,5
161,170.10,177.18,5
161,169.92,177.01,5
161,169.74,176.85,5
161,169.57,176.70,5
161,169.40,176.54,5
161,169.23,176.38,5
161,169.06,176.23,5
161,168.90,176.08,5
161,168.75,175.93,5
160,168.57,175.77,5
159,168.38,175.60,5
160,168.21,175.44,5
159,168.03,175.28,5
160,167.87,175.13,5
159,167.69,174.97,5
159,167.52,174.81,5
159,167.34,174.65,5
159,167.18,174.49,5
160,167.03,174.35,5
159,166.87,174.19,5
159,166.72,174.04,5
158,166.54,173.88,5
157,166.35,173.71,5
157,166.16,173.54,5
158,166.00,173.39,5
157,165.82,173.23,5
157,165.64,173.06,5
157,165.47,172.90,5
157,165.30,172.74,5
158,165.16,172.60,5
157,164.99,172.44,5
157,164.83,172.29,5
157,164.68,172.13,5
158,164.54,171.99,5
157,164.39,171.84,5
158,164.26,171.70,5
157,164.12,171.56,5
158,164.00,171.42,5
157,163.86,171.28,5
157,163.72,171.13,5
157,163.59,170.99,5
157,163.45,170.85,5
157,163.32,170.71,5
157,163.20,170.58,5
157,163.07,170.44,5
159,162.99,170.33,5
157,162.87,170.19,5
157,162.76,170.06,5
157,162.64,169.93,5
157,162.53,169.80,5
157,162.42,169.67,5
158,162.33,169.56,5
157,162.22,169.43,5
157,162.12,169.31,5
156,162.00,169.17,5
156,161.88,169.04,5
157,161.78,168.92,5
155,161.64,168.78,5
156,161.53,168.65,5
156,161.42,168.53,5
157,161.33,168.41,5
155,161.20,168.28,5
156,161.10,168.16,5
155,160.98,168.02,5
155,160.86,167.89,5
153,160.70,167.75,5
155,160.59,167.62,5
155,160.48,167.49,5
155,160.37,167.37,5
154,160.24,167.23,5
155,160.13,167.11,5
155,160.03,166.99,5
157,159.97,166.89,5
153,159.83,166.75,5
155,159.73,166.63,5
154,159.62,166.51,5
154,159.51,166.38,5
154,159.40,166.26,5
153,159.27,166.13,5
153,159.14,165.99,5
153,159.02,165.86,5
153,158.90,165.74,5
153,158.78,165.61,5
153,158.67,165.48,5
153,158.55,165.36,5
153,158.44,165.23,5
155,158.37,165.13,5
153,158.27,165.01,5
152,158.14,164.88,5
153,158.04,164.76,5
153,157.94,164.64,5
153,157.84,164.53,5
153,157.74,164.41,5
153,157.65,164.30,5
153,157.55,164.18,5
152,157.44,164.06,5
153,157.35,163.95,5
152,157.25,163.83,5
152,157.14,163.71,5
153,157.06,163.61,5
151,156.94,163.48,5
152,156.84,163.37,5
152,156.74,163.25,5
151,156.63,163.13,5
151,156.52,163.01,5
152,156.42,162.90,5
151,156.32,162.78,5
151,156.21,162.66,5
150,156.09,162.54,5
152,156.00,162.43,5
151,155.90,162.32,5
150,155.79,162.19,5
150,155.67,162.07,5
149,155.54,161.94,5
149,155.41,161.81,5
151,155.32,161.70,5
149,155.19,161.58,5
150,155.09,161.46,5
149,154.97,161.34,5
149,154.85,161.21,5
149,154.73,161.09,5
149,154.62,160.97,5
149,154.50,160.85,5
149,154.39,160.73,5
149,154.28,160.61,5
149,154.18,160.50,5
149,154.08,160.38,5
148,153.95,160.26,5
149,153.86,160.15,5
148,153.74,160.02,5
148,153.62,159.90,5
148,153.51,159.79,5
149,153.42,159.68,5
146,153.27,159.54,5
147,153.15,159.42,5
148,153.04,159.30,5
147,152.92,159.18,5
148,152.82,159.07,5
147,152.71,158.95,5
147,152.59,158.83,5
147,152.48,158.71,5
147,152.37,158.59,5
147,152.26,158.47,5
148,152.18,158.37,5
147,152.08,158.26,5
147,151.97,158.14,5
147,151.87,158.03,5
147,151.78,157.92,5
147,151.68,157.81,5
147,151.59,157.70,5
146,151.48,157.59,5
147,151.39,157.48,5
145,151.26,157.36,5
145,151.13,157.23,5
147,151.05,157.13,5
145,150.93,157.01,5
145,150.81,156.89,5
147,150.74,156.79,5
145,150.62,156.67,5
145,150.51,156.56,5
145,150.40,156.44,5
145,150.29,156.33,5
145,150.18,156.21,5
145,150.08,156.10,5
145,149.98,155.99,5
145,149.88,155.88,5
148,149.84,155.80,5
145,149.75,155.69,5
145,149.65,155.59,5
145,149.56,155.48,5
144,149.45,155.37,5
145,149.36,155.26,5
145,149.27,155.16,5
144,149.16,155.05,5
143,149.04,154.93,5
144,148.94,154.82,5
143,148.82,154.70,5
143,148.71,154.58,5
143,148.59,154.47,5
143,148.48,154.35,5
143,148.37,154.24,5
143,148.26,154.13,5
143,148.16,154.02,5
143,148.05,153.90,5
143,147.95,153.80,5
142,147.83,153.68,5
141,147.70,153.55,5
142,147.58,153.44,5
142,147.47,153.32,5
141,147.34,153.20,5
141,147.22,153.08,5
141,147.09,152.96,5
141,146.97,152.84,5
141,146.85,152.72,5
142,146.75,152.61,5
142,146.66,152.50,5
141,146.54,152.39,5
141,146.43,152.28,5
141,146.33,152.16,5
141,146.22,152.05,5
141,146.11,151.94,5
141,146.01,151.83,5
140,145.89,151.71,5
141,145.79,151.61,5
142,145.72,151.51,5
141,145.62,151.40,5
141,145.53,151.30,5
139,145.40,151.18,5
140,145.29,151.07,5
141,145.21,150.96,5
141,145.12,150.87,5
140,145.02,150.76,5
140,144.92,150.65,5
141,144.84,150.55,5
140,144.74,150.45,5
141,144.67,150.35,5
140,144.58,150.25,5
140,144.48,150.15,5
140,144.40,150.05,5
140,144.31,149.94,5
139,144.20,149.84,5
143,144.18,149.77,5
140,144.09,149.67,5
140,144.01,149.57,5
140,143.93,149.48,5
139,143.83,149.37,5
139,143.74,149.27,5
139,143.64,149.17,5
140,143.57,149.07,5
139,143.48,148.97,5
140,143.41,148.88,5
139,143.32,148.78,5
140,143.25,148.70,5
139,143.17,148.60,5
139,143.08,148.50,5
139,143.00,148.41,5
140,142.94,148.32,5
138,142.84,148.22,5
141,142.81,148.15,5
139,142.73,148.06,5
139,142.66,147.97,5
140,142.60,147.89,5
140,142.55,147.81,5
140,142.50,147.73,5
138,142.41,147.63,5
139,142.34,147.55,5
139,142.28,147.46,5
140,142.23,147.39,5
139,142.17,147.30,5
139,142.10,147.22,5
139,142.04,147.14,5
139,141.98,147.06,5
139,141.92,146.98,5
139,141.86,146.90,5
139,141.80,146.82,5
139,141.75,146.74,5
139,141.69,146.66,5
138,141.62,146.57,5
137,141.53,146.48,5
138,141.46,146.39,5
137,141.37,146.30,5
138,141.30,146.22,5
137,141.21,146.13,5
137,141.13,146.03,5
137,141.05,145.94,5
137,140.97,145.85,5
137,140.89,145.77,5
137,140.81,145.68,5
137,140.73,145.59,5
137,140.66,145.51,5
137,140.58,145.42,5
137,140.51,145.34,5
136,140.42,145.24,5
137,140.35,145.16,5
136,140.27,145.07,5
137,140.20,144.99,5
135,140.10,144.89,5
136,140.02,144.80,5
136,139.94,144.71,5
136,139.86,144.62,5
136,139.78,144.54,5
136,139.70,144.45,5
136,139.63,144.37,5
135,139.54,144.27,5
136,139.47,144.19,5
136,139.40,144.11,5
135,139.31,144.02,5
135,139.22,143.93,5
135,139.14,143.84,5
134,139.04,143.74,5
135,138.96,143.65,5
134,138.86,143.56,5
134,138.76,143.46,5
135,138.68,143.38,5
133,138.57,143.27,5
134,138.48,143.18,5
134,138.39,143.09,5
133,138.28,142.99,5
134,138.20,142.90,5
133,138.09,142.80,5
133,137.99,142.70,5
133,137.89,142.60,5
133,137.79,142.51,5
133,137.70,142.41,5
133,137.60,142.32,5
133,137.51,142.23,5
133,137.42,142.13,5
131,137.29,142.02,5
134,137.23,141.94,5
132,137.12,141.84,5
133,137.04,141.75,5
131,136.92,141.65,5
132,136.82,141.55,5
132,136.72,141.45,5
131,136.61,141.35,5
133,136.54,141.27,5
131,136.43,141.16,5
132,136.34,141.07,5
131,136.23,140.97,5
132,136.15,140.88,5
132,136.06,140.79,5
131,135.96,140.69,5
132,135.88,140.61,5
131,135.79,140.51,5
131,135.69,140.42,5
131,135.60,140.32,5
130,135.48,140.22,5
130,135.37,140.12,5
129,135.25,140.01,5
129,135.12,139.90,5
130,135.02,139.80,5
128,134.88,139.68,5
129,134.76,139.57,5
129,134.65,139.47,5
129,134.53,139.36,5
129,134.42,139.26,5
129,134.31,139.16,5
129,134.21,139.05,5
129,134.10,138.95,5
129,134.00,138.85,5
130,133.92,138.77,5
129,133.82,138.67,5
130,133.75,138.58,5
129,133.65,138.48,5
128,133.54,138.38,5
129,133.45,138.29,5
129,133.36,138.19,5
129,133.27,138.10,5
129,133.19,138.01,5
129,133.10,137.92,5
129,133.02,137.83,5
129,132.94,137.74,5
129,132.86,137.66,5
129,132.78,137.57,5
129,132.71,137.48,5
128,132.61,137.39,5
129,132.54,137.30,5
129,132.47,137.22,5
128,132.38,137.13,5
129,132.31,137.05,5
127,132.21,136.95,5
128,132.12,136.86,5
128,132.04,136.77,5
128,131.96,136.68,5
128,131.88,136.59,5
128,131.80,136.51,5
128,131.73,136.42,5
128,131.65,136.34,5
127,131.56,136.25,5
128,131.49,136.16,5
127,131.40,136.07,5
128,131.33,135.99,5
128,131.26,135.91,5
128,131.20,135.83,5
127,131.12,135.74,5
127,131.03,135.66,5
127,130.95,135.57,5
127,130.87,135.48,5
128,130.82,135.41,5
127,130.74,135.33,5
128,130.68,135.25,5
127,130.61,135.17,5
127,130.54,135.09,5
128,130.49,135.02,5
127,130.42,134.94,5
127,130.35,134.86,5
128,130.30,134.79,5
128,130.26,134.72,5
129,130.23,134.66,5
129,130.21,134.61,5
128,130.16,134.54,5
129,130.14,134.49,5
129,130.12,134.43,5
129,130.09,134.38,5
129,130.07,134.32,5
129,130.05,134.27,5
129,130.03,134.22,5
130,130.03,134.17,5
129,130.01,134.12,5
129,129.99,134.07,5
129,129.97,134.02,5
128,129.93,133.96,5
127,129.87,133.89,5
129,129.85,133.84,5
128,129.82,133.78,5
128,129.78,133.73,5
128,129.74,133.67,5
128,129.71,133.61,5
128,129.68,133.56,5
128,129.64,133.50,5
128,129.61,133.45,5
129,129.60,133.40,5
130,129.61,133.37,5
129,129.59,133.32,5
129,129.58,133.28,5
129,129.57,133.24,5
130,129.58,133.20,5
131,129.61,133.18,5
130,129.61,133.15,5
130,129.62,133.12,5
130,129.63,133.09,5
129,129.62,133.05,5
130,129.62,133.02,5
129,129.61,132.98,5
130,129.62,132.95,5
130,129.63,132.92,5
130,129.64,132.89,5
129,129.62,132.85,5
129,129.61,132.81,5
131,129.64,132.79,5
129,129.62,132.75,5
129,129.61,132.72,5
129,129.60,132.68,5
129,129.59,132.64,5
131,129.62,132.63,5
130,129.62,132.60,5
130,129.63,132.57,5
131,129.66,132.56,5
131,129.69,132.54,5
131,129.71,132.53,5
129,129.70,132.49,5
130,129.70,132.47,5
130,129.71,132.44,5
131,129.74,132.43,5
133,129.80,132.43,5
131,129.82,132.42,5
131,129.85,132.41,5
132,129.89,132.40,5
133,129.95,132.41,5
133,130.01,132.41,5
133,130.07,132.42,5
133,130.13,132.43,5
132,130.17,132.42,5
133,130.23,132.43,5
132,130.26,132.42,5
132,130.30,132.42,5
131,130.31,132.40,5
132,130.34,132.40,5
131,130.36,132.39,5
132,130.39,132.38,5
132,130.42,132.38,5
133,130.47,132.38,5
132,130.51,132.38,5
133,130.55,132.39,5
135,130.64,132.41,5
131,130.65,132.40,5
132,130.68,132.40,5
132,130.70,132.39,5
132,130.73,132.39,5
131,130.74,132.37,5
131,130.74,132.36,5
131,130.75,132.35,5
132,130.77,132.34,5
131,130.78,132.33,5
130,130.76,132.31,5
131,130.77,132.29,5
131,130.77,132.28,5
130,130.75,132.26,5
130,130.74,132.23,5
129,130.70,132.20,5
128,130.65,132.16,5
129,130.62,132.13,5
130,130.61,132.11,5
131,130.61,132.10,5
130,130.60,132.08,5
129,130.57,132.04,5
130,130.56,132.02,5
130,130.55,132.00,5
129,130.52,131.97,5
131,130.52,131.96,5
130,130.51,131.94,5
131,130.52,131.93,5
131,130.53,131.93,5
132,130.56,131.93,5
132,130.59,131.93,5
132,130.62,131.93,5
131,130.63,131.92,5
131,130.64,131.91,5
131,130.64,131.90,5
133,130.69,131.91,5
132,130.72,131.91,5
131,130.72,131.90,5
132,130.75,131.90,5
132,130.77,131.90,5
132,130.80,131.91,5
131,130.80,131.90,5
132,130.82,131.90,5
132,130.85,131.90,5
133,130.89,131.91,5
132,130.91,131.91,5
132,130.94,131.91,5
131,130.94,131.90,5
132,130.96,131.90,5
133,131.00,131.91,5
132,131.02,131.92,5
131,131.02,131.91,5
133,131.06,131.92,5
131,131.06,131.91,5
133,131.10,131.92,5
135,131.17,131.95,5
133,131.21,131.96,5
132,131.23,131.96,5
133,131.26,131.97,5
133,131.30,131.98,5
133,131.33,131.99,5
133,131.36,132.00,5
133,131.40,132.01,5
133,131.43,132.02,5
134,131.48,132.04,5
133,131.51,132.05,5
133,131.54,132.06,5
134,131.59,132.08,5
134,131.64,132.10,5
134,131.68,132.12,5
135,131.75,132.15,5
135,131.82,132.18,5
133,131.84,132.18,5
135,131.90,132.21,5
135,131.96,132.24,5
134,132.01,132.26,5
134,132.05,132.27,5
135,132.10,132.30,5
135,132.16,132.33,5
135,132.22,132.36,5
136,132.29,132.39,6
137,132.39,132.44,6
136,132.46,132.47,7
137,132.55,132.52,7
137,132.64,132.56,8
137,132.73,132.61,8
137,132.81,132.65,8
136,132.88,132.69,8
136,132.94,132.72,8
136,133.00,132.75,8
138,133.10,132.80,8
137,133.18,132.85,8
137,133.26,132.89,8
137,133.33,132.93,8
138,133.42,132.98,8
140,133.56,133.05,8
139,133.66,133.11,8
139,133.77,133.17,8
139,133.88,133.23,8
140,134.00,133.29,8
141,134.14,133.37,8
140,134.26,133.44,8
141,134.39,133.51,8
141,134.52,133.59,8
141,134.65,133.66,8
141,134.78,133.74,8
141,134.90,133.81,8
142,135.05,133.89,8
140,135.14,133.95,8
142,135.28,134.03,8
141,135.40,134.10,8
141,135.51,134.17,8
141,135.62,134.24,8
141,135.73,134.31,8
140,135.81,134.36,8
141,135.91,134.43,8
141,136.02,134.50,8
141,136.12,134.56,8
141,136.21,134.62,8
139,136.27,134.67,8
140,136.34,134.72,8
139,136.40,134.76,8
140,136.47,134.82,8
140,136.54,134.87,8
140,136.61,134.92,8
139,136.66,134.96,8
139,136.70,135.00,8
140,136.77,135.05,8
139,136.81,135.09,8
140,136.88,135.14,8
139,136.92,135.18,8
139,136.96,135.22,8
139,137.00,135.25,8
140,137.06,135.30,8
141,137.14,135.36,8
141,137.22,135.42,8
141,137.29,135.47,8
143,137.41,135.55,8
142,137.50,135.61,8
143,137.61,135.68,8
142,137.70,135.75,8
141,137.76,135.80,8
141,137.83,135.85,8
141,137.89,135.90,8
141,137.95,135.95,8
141,138.02,136.01,8
142,138.10,136.07,8
141,138.15,136.11,8
141,138.21,136.16,8
141,138.27,136.21,8
141,138.32,136.26,8
141,138.37,136.31,8
141,138.43,136.35,8
141,138.48,136.40,8
141,138.53,136.45,8
141,138.58,136.49,8
141,138.63,136.54,8
142,138.69,136.59,8
142,138.76,136.65,8
141,138.80,136.69,8
142,138.87,136.74,8
141,138.91,136.79,8
141,138.95,136.83,8
142,139.01,136.88,8
143,139.09,136.94,8
143,139.17,137.00,8
143,139.25,137.06,8
145,139.36,137.14,8
145,139.48,137.22,8
145,139.59,137.30,8
145,139.70,137.37,8
144,139.78,137.44,8
145,139.89,137.52,8
147,140.03,137.61,8
146,140.15,137.69,8
145,140.24,137.77,8
145,140.34,137.84,8
145,140.43,137.91,8
148,140.58,138.01,8
148,140.73,138.11,8
147,140.86,138.20,8
147,140.98,138.29,8
150,141.16,138.41,8
150,141.34,138.52,8
149,141.49,138.63,8
149,141.64,138.73,8
149,141.79,138.83,8
149,141.93,138.93,8
149,142.07,139.04,8
149,142.21,139.14,8
152,142.41,139.26,8
151,142.58,139.38,8
151,142.75,139.50,8
152,142.93,139.62,8
153,143.13,139.76,8
155,143.37,139.91,8
153,143.56,140.04,8
153,143.75,140.17,8
154,143.96,140.31,8
156,144.20,140.46,8
156,144.44,140.62,8
156,144.67,140.77,8
155,144.87,140.92,8
157,145.12,141.08,8
161,145.43,141.28,8
157,145.66,141.43,8
157,145.89,141.59,8
159,146.15,141.76,8
157,146.37,141.92,8
159,146.62,142.09,8
157,146.83,142.24,8
158,147.05,142.39,8
157,147.25,142.54,8
157,147.45,142.68,8
158,147.66,142.84,8
160,147.91,143.01,8
161,148.17,143.19,8
161,148.42,143.37,8
164,148.74,143.57,8
164,149.04,143.78,8
164,149.34,143.98,8
164,149.63,144.18,8
165,149.94,144.39,8
163,150.20,144.57,8
163,150.46,144.76,8
165,150.75,144.96,8
166,151.05,145.17,8
166,151.35,145.38,8
167,151.67,145.60,8
167,151.97,145.81,8
167,152.27,146.02,8
168,152.59,146.24,8
167,152.88,146.45,8
168,153.18,146.66,8
167,153.45,146.87,8
168,153.75,147.08,8
167,154.01,147.28,8
168,154.29,147.49,8
169,154.58,147.70,8
168,154.85,147.90,8
169,155.14,148.11,8
168,155.39,148.31,8
168,155.65,148.51,8
167,155.87,148.70,8
167,156.09,148.88,8
169,156.35,149.08,8
167,156.57,149.26,8
168,156.79,149.45,8
168,157.02,149.63,8
168,157.24,149.82,8
168,157.45,150.00,8
170,157.70,150.20,8
171,157.97,150.41,8
170,158.21,150.60,8
174,158.53,150.83,8
174,158.84,151.07,8
173,159.12,151.29,8
175,159.44,151.52,8
175,159.75,151.76,8
174,160.03,151.98,8
178,160.39,152.24,8
178,160.75,152.50,8
178,161.09,152.75,8
177,161.41,153.00,8
179,161.76,153.26,8
181,162.14,153.53,8
181,162.52,153.81,8
181,162.89,154.08,8
181,163.25,154.35,8
181,163.61,154.62,8
180,163.94,154.87,8
181,164.28,155.13,8
179,164.57,155.37,8
180,164.88,155.62,8
181,165.20,155.87,8
181,165.52,156.12,8
181,165.83,156.37,8
181,166.13,156.62,8
182,166.45,156.87,8
183,166.78,157.13,8
181,167.06,157.37,8
184,167.40,157.64,8
184,167.74,157.90,8
183,168.04,158.15,8
184,168.36,158.41,8
185,168.69,158.67,8
185,169.02,158.94,8
184,169.32,159.19,8
188,169.69,159.48,8
188,170.06,159.76,8
188,170.42,160.04,8
187,170.75,160.31,8
188,171.09,160.59,8
187,171.41,160.86,8
190,171.78,161.15,8
191,172.17,161.45,8
192,172.56,161.75,8
191,172.93,162.04,8
194,173.35,162.36,8
194,173.77,162.68,8
193,174.15,162.98,8
193,174.53,163.28,8
193,174.90,163.58,8
193,175.26,163.87,8
193,175.62,164.17,8
193,175.96,164.45,8
194,176.32,164.75,8
194,176.68,165.04,8
194,177.02,165.33,8
195,177.38,165.63,8
193,177.70,165.90,8
194,178.02,166.18,8
195,178.36,166.47,8
197,178.73,166.78,8
197,179.10,167.08,8
197,179.46,167.38,8
200,179.87,167.70,8
202,180.31,168.05,8
203,180.76,168.40,8
203,181.21,168.74,8
203,181.65,169.08,8
204,182.09,169.43,8
206,182.57,169.80,8
206,183.04,170.16,8
207,183.52,170.53,8
207,183.99,170.89,8
207,184.45,171.26,8
206,184.88,171.60,8
209,185.36,171.98,8
207,185.79,172.33,8
207,186.22,172.67,8
208,186.65,173.03,8
209,187.10,173.39,8
207,187.50,173.72,8
208,187.91,174.07,8
209,188.33,174.42,8
209,188.74,174.76,8
209,189.15,175.10,8
209,189.55,175.44,8
208,189.92,175.77,8
207,190.26,176.08,8
208,190.61,176.40,8
208,190.96,176.72,8
209,191.32,177.04,8
207,191.63,177.34,8
208,191.96,177.64,8
211,192.34,177.98,8
210,192.70,178.30,8
209,193.02,178.61,8
211,193.38,178.93,8
211,193.73,179.25,8
210,194.06,179.56,8
209,194.36,179.85,8
212,194.71,180.17,8
210,195.02,180.47,8
210,195.32,180.77,8
209,195.59,181.05,8
209,195.86,181.33,8
209,196.12,181.61,8
208,196.36,181.87,8
208,196.59,182.13,8
207,196.80,182.38,8
207,197.00,182.63,8
208,197.22,182.88,8
209,197.46,183.14,8
208,197.67,183.39,8
207,197.86,183.63,8
207,198.04,183.86,8
207,198.22,184.09,8
205,198.35,184.30,8
207,198.53,184.53,8
206,198.68,184.74,8
205,198.80,184.94,8
205,198.93,185.14,8
205,199.05,185.34,8
205,199.17,185.54,8
205,199.28,185.73,8
205,199.40,185.93,8
205,199.51,186.12,8
205,199.62,186.31,8
204,199.71,186.48,8
203,199.77,186.65,8
205,199.88,186.83,8
204,199.96,187.00,8
204,200.04,187.17,8
204,200.12,187.34,8
204,200.20,187.51,8
203,200.25,187.66,8
203,200.31,187.82,8
202,200.34,187.96,8
203,200.40,188.11,8
202,200.43,188.25,8
202,200.46,188.39,8
202,200.49,188.52,8
203,200.54,188.67,8
201,200.55,188.79,8
201,200.56,188.91,8
201,200.57,189.03,8
201,200.58,189.15,8
200,200.56,189.26,8
200,200.55,189.37,8
200,200.54,189.47,8
199,200.51,189.57,8
200,200.50,189.67,8
199,200.47,189.77,8
199,200.44,189.86,8
198,200.39,189.94,8
199,200.37,190.03,8
197,200.30,190.10,8
198,200.25,190.18,8
197,200.19,190.25,8
197,200.12,190.32,8
197,200.06,190.38,8
197,200.00,190.45,8
196,199.92,190.50,8
195,199.82,190.55,8
196,199.74,190.60,8
196,199.67,190.66,8
196,199.60,190.71,8
196,199.52,190.76,8
195,199.43,190.81,8
194,199.33,190.84,8
193,199.20,190.86,8
193,199.07,190.88,8
193,198.95,190.90,8
193,198.83,190.92,8
193,198.72,190.94,8
193,198.60,190.97,8
193,198.49,190.99,8
192,198.36,191.00,8
193,198.25,191.02,8
192,198.13,191.03,8
191,197.99,191.03,8
192,197.87,191.04,8
191,197.73,191.03,8
192,197.61,191.04,8
192,197.50,191.05,8
190,197.35,191.04,8
190,197.21,191.03,8
189,197.04,191.01,8
189,196.88,190.99,8
189,196.72,190.97,8
189,196.57,190.95,8
189,196.42,190.93,8
189,196.27,190.91,8
189,196.12,190.89,8
188,195.96,190.87,8
188,195.80,190.84,8
187,195.63,190.80,8
188,195.47,190.77,8
187,195.30,190.73,8
187,195.14,190.70,8
187,194.97,190.66,8
188,194.84,190.63,8
187,194.68,190.60,8
186,194.51,190.55,8
185,194.32,190.49,8
185,194.13,190.44,8
186,193.97,190.40,8
186,193.81,190.35,8
185,193.63,190.30,8
185,193.46,190.24,8
185,193.29,190.19,8
183,193.08,190.12,8
185,192.92,190.07,8
184,192.74,190.01,8
184,192.57,189.95,8
184,192.40,189.89,8
183,192.21,189.82,8
183,192.02,189.75,8
183,191.84,189.68,8
183,191.67,189.62,8
183,191.49,189.55,8
183,191.32,189.49,8
183,191.16,189.42,8
182,190.97,189.35,8
182,190.80,189.27,8
182,190.62,189.20,8
181,190.43,189.12,8
182,190.26,189.05,8
181,190.07,188.97,8
181,189.89,188.89,8
181,189.71,188.81,8
180,189.52,188.72,8
180,189.33,188.63,8
181,189.16,188.56,8
180,188.98,188.47,8
179,188.78,188.38,8
179,188.58,188.28,8
179,188.39,188.19,8
180,188.22,188.11,9
179,188.04,188.02,9
178,187.84,187.92,10
178,187.64,187.82,10
178,187.45,187.72,10
178,187.26,187.62,10
177,187.06,187.52,10
177,186.85,187.41,10
177,186.66,187.31,10
177,186.46,187.20,10
176,186.25,187.09,10
175,186.03,186.97,10
175,185.81,186.85,10
175,185.59,186.73,10
175,185.38,186.62,10
175,185.17,186.50,10
175,184.97,186.38,10
175,184.77,186.27,10
175,184.58,186.16,10
174,184.36,186.04,10
174,184.16,185.92,10
174,183.95,185.80,10
174,183.75,185.68,10
174,183.56,185.56,10
173,183.35,185.44,10
173,183.14,185.31,10
173,182.94,185.19,10
173,182.74,185.07,10
174,182.56,184.96,10
172,182.35,184.83,10
172,182.15,184.70,10
172,181.94,184.57,10
172,181.74,184.45,10
172,181.55,184.32,10
172,181.36,184.20,10
171,181.15,184.07,10
171,180.95,183.94,10
171,180.75,183.81,10
171,180.55,183.68,10
171,180.36,183.55,10
172,180.20,183.44,10
171,180.01,183.31,10
170,179.81,183.18,10
170,179.62,183.05,10
171,179.44,182.93,10
170,179.25,182.80,10
169,179.05,182.66,10
169,178.85,182.52,10
170,178.67,182.40,10
169,178.48,182.26,10
168,178.27,182.12,10
169,178.08,181.99,10
168,177.88,181.85,10
168,177.68,181.71,10
168,177.49,181.57,10
167,177.28,181.43,10
167,177.07,181.28,10
167,176.87,181.14,10
167,176.68,181.00,10
167,176.48,180.86,10
168,176.31,180.73,10
166,176.11,180.58,10
166,175.90,180.44,10
167,175.73,180.30,10
167,175.55,180.17,10
165,175.34,180.02,10
166,175.15,179.88,10
166,174.97,179.74,10
166,174.79,179.60,10
165,174.60,179.46,10
165,174.40,179.31,10
165,174.22,179.17,10
165,174.03,179.03,10
164,173.83,178.88,10
165,173.65,178.74,10
168,173.54,178.63,10
164,173.35,178.48,10
163,173.14,178.33,10
162,172.92,178.17,10
163,172.72,178.01,10
163,172.53,177.86,10
163,172.34,177.72,10
163,172.15,177.57,10
162,171.95,177.41,10
162,171.75,177.26,10
163,171.57,177.12,10
162,171.38,176.96,10
161,171.17,176.81,10
161,170.97,176.65,10
161,170.77,176.49,10
159,170.54,176.32,10
160,170.33,176.15,10
161,170.14,176.00,10
161,169.96,175.85,10
160,169.76,175.69,10
160,169.56,175.54,10
159,169.35,175.37,10
160,169.16,175.22,10
159,168.96,175.05,10
160,168.78,174.90,10
160,168.61,174.75,10
159,168.41,174.60,10
158,168.20,174.43,10
159,168.02,174.28,10
159,167.84,174.12,10
159,167.66,173.97,10
159,167.49,173.82,10
160,167.34,173.68,10
159,167.17,173.54,10
158,166.99,173.38,10
158,166.81,173.23,10
159,166.65,173.09,10
158,166.48,172.94,10
158,166.31,172.79,10
158,166.15,172.64,10
158,165.98,172.49,10
158,165.82,172.35,10
157,165.65,172.19,10
156,165.45,172.03,10
159,165.32,171.90,10
157,165.16,171.75,10
157,164.99,171.61,10
156,164.81,171.45,10
157,164.66,171.30,10
157,164.51,171.16,10
156,164.34,171.01,10
156,164.17,170.86,10
155,163.99,170.70,10
156,163.83,170.55,10
156,163.67,170.41,10
155,163.50,170.25,10
156,163.35,170.11,10
155,163.18,169.96,10
154,163.00,169.80,10
154,162.82,169.64,10
155,162.66,169.50,10
154,162.49,169.34,10
154,162.32,169.19,10
154,162.15,169.04,10
154,161.99,168.89,10
154,161.83,168.74,10
153,161.65,168.58,10
152,161.46,168.41,10
153,161.29,168.26,10
153,161.12,168.11,10
152,160.94,167.95,10
152,160.76,167.79,10
153,160.61,167.64,10
153,160.45,167.49,10
152,160.28,167.34,10
151,160.10,167.17,10
152,159.94,167.02,10
152,159.78,166.87,10
152,159.62,166.72,10
151,159.45,166.57,10
152,159.30,166.42,10
152,159.16,166.28,10
151,158.99,166.12,10
151,158.83,165.97,10
151,158.68,165.82,10
151,158.52,165.67,10
151,158.37,165.53,10
151,158.22,165.38,10
151,158.08,165.24,10
151,157.94,165.10,10
150,157.78,164.95,10
150,157.62,164.80,10
150,157.47,164.65,10
151,157.34,164.51,10
149,157.18,164.36,10
149,157.01,164.20,10
150,156.87,164.06,10
150,156.73,163.92,10
149,156.58,163.77,10
150,156.45,163.63,10
149,156.30,163.49,10
149,156.15,163.34,10
149,156.01,163.20,10
149,155.87,163.06,10
150,155.75,162.93,10
147,155.58,162.77,10
149,155.45,162.63,10
148,155.30,162.48,10
149,155.17,162.35,10
148,155.03,162.20,10
148,154.89,162.06,10
148,154.75,161.92,10
148,154.61,161.78,10
148,154.48,161.64,10
148,154.35,161.51,10
146,154.19,161.35,10
148,154.06,161.22,10
148,153.94,161.09,10
147,153.80,160.95,10
147,153.67,160.81,10
148,153.55,160.68,10
147,153.42,160.54,10
147,153.29,160.41,10
146,153.15,160.26,10
147,153.02,160.13,10
147,152.90,160.00,10
145,152.75,159.85,10
146,152.61,159.71,10
146,152.48,159.57,10
146,152.35,159.44,10
145,152.20,159.29,10
145,152.06,159.15,10
145,151.92,159.01,10
145,151.78,158.87,10
144,151.62,158.72,10
145,151.49,158.58,10
146,151.38,158.46,10
144,151.23,158.31,10
145,151.11,158.18,10
144,150.97,158.04,10
144,150.83,157.90,10
144,150.69,157.76,10
144,150.56,157.62,10
144,150.43,157.48,10
144,150.30,157.35,10
144,150.17,157.22,10
144,150.05,157.08,10
143,149.91,156.94,10
144,149.79,156.81,10
144,149.67,156.69,10
143,149.54,156.55,10
143,149.41,156.41,10
143,149.28,156.28,10
143,149.15,156.15,10
143,149.03,156.01,10
143,148.91,155.88,10
143,148.79,155.76,10
143,148.68,155.63,10
143,148.56,155.50,10
143,148.45,155.38,10
143,148.34,155.25,10
143,148.24,155.13,10
143,148.13,155.01,10
143,148.03,154.89,10
143,147.93,154.77,10
142,147.81,154.64,10
142,147.69,154.52,10
141,147.56,154.38,10
141,147.43,154.25,10
141,147.30,154.11,10
142,147.19,153.99,10
141,147.07,153.86,10
141,146.95,153.74,10
141,146.83,153.61,10
141,146.71,153.48,10
140,146.58,153.35,10
142,146.49,153.23,10
142,146.40,153.12,10
141,146.29,153.00,10
141,146.18,152.88,10
143,146.12,152.78,10
141,146.02,152.66,10
141,145.92,152.55,10
141,145.82,152.43,10
141,145.72,152.32,10
141,145.63,152.20,10
140,145.52,152.08,10
140,145.41,151.96,10
141,145.32,151.85,10
140,145.21,151.73,10
140,145.11,151.62,10
140,145.00,151.50,10
140,144.90,151.38,10
140,144.81,151.27,10
140,144.71,151.16,10
139,144.60,151.04,10
139,144.48,150.92,10
139,144.37,150.80,10
140,144.29,150.69,10
139,144.18,150.57,10
138,144.06,150.45,10
139,143.96,150.33,10
138,143.84,150.21,10
138,143.72,150.09,10
136,143.57,149.95,10
139,143.47,149.84,10
137,143.35,149.71,10
137,143.22,149.58,10
137,143.09,149.45,10
137,142.97,149.33,10
136,142.83,149.20,10
137,142.72,149.07,10
137,142.60,148.95,10
137,142.49,148.83,10
138,142.40,148.73,10
137,142.29,148.61,10
136,142.17,148.48,10
136,142.04,148.36,10
137,141.94,148.24,10
141,141.92,148.17,10
136,141.80,148.05,10
140,141.77,147.97,10
136,141.65,147.85,10
137,141.56,147.74,10
136,141.45,147.62,10
136,141.34,147.51,10
136,141.23,147.39,10
136,141.13,147.28,10
136,141.03,147.17,10
136,140.93,147.05,10
135,140.81,146.93,10
136,140.71,146.82,10
135,140.60,146.71,10
134,140.46,146.58,10
134,140.34,146.45,10
134,140.21,146.33,10
134,140.08,146.21,10
135,139.98,146.09,10
134,139.86,145.97,10
135,139.77,145.86,10
134,139.65,145.74,10
134,139.54,145.63,10
134,139.43,145.51,10
134,139.32,145.40,10
133,139.19,145.27,10
134,139.09,145.16,10
134,138.99,145.05,10
135,138.91,144.95,10
132,138.77,144.82,10
132,138.63,144.69,10
134,138.54,144.58,10
134,138.45,144.48,10
133,138.34,144.36,10
134,138.25,144.26,10
133,138.15,144.15,10
133,138.05,144.03,10
130,137.88,143.89,10
133,137.79,143.78,10
132,137.67,143.67,10
132,137.56,143.55,10
132,137.45,143.43,10
133,137.36,143.33,10
133,137.27,143.23,10
132,137.17,143.11,10
132,137.06,143.00,10
131,136.94,142.88,10
131,136.82,142.76,10
132,136.73,142.66,10
132,136.63,142.55,10
133,136.56,142.46,10
132,136.47,142.35,10
133,136.40,142.26,10
131,136.29,142.14,10
131,136.18,142.03,10
132,136.10,141.93,10
131,136.00,141.82,10
131,135.90,141.72,10
132,135.82,141.62,10
131,135.72,141.51,10
131,135.63,141.41,10
130,135.52,141.29,10
131,135.43,141.19,10
131,135.34,141.09,10
130,135.23,140.98,10
130,135.13,140.87,10
131,135.04,140.77,10
131,134.96,140.67,10
129,134.84,140.55,10
129,134.73,140.44,10
130,134.63,140.33,10
129,134.52,140.22,10
129,134.41,140.11,10
129,134.30,140.00,10
128,134.18,139.88,10
130,134.09,139.78,10
129,133.99,139.67,10
129,133.89,139.56,10
128,133.77,139.45,10
129,133.68,139.34,10
129,133.58,139.24,10
128,133.47,139.13,10
128,133.36,139.02,10
128,133.26,138.91,10
129,133.17,138.81,10
128,133.07,138.70,10
128,132.97,138.59,10
128,132.87,138.49,10
128,132.77,138.38,10
128,132.67,138.28,10
128,132.58,138.18,10
129,132.51,138.08,10
128,132.42,137.98,10
128,132.33,137.88,10
128,132.24,137.78,10
128,132.16,137.69,10
129,132.10,137.60,10
128,132.01,137.50,10
129,131.95,137.42,10
130,131.91,137.34,10
130,131.88,137.27,10
129,131.82,137.19,10
128,131.74,137.10,10
129,131.69,137.02,10
129,131.63,136.93,10
128,131.56,136.85,10
129,131.51,136.77,10
128,131.44,136.68,10
129,131.39,136.60,10
129,131.34,136.53,10
128,131.28,136.44,10
128,131.21,136.36,10
128,131.15,136.27,10
127,131.06,136.18,10
128,131.00,136.10,10
128,130.94,136.02,10
128,130.88,135.94,10
128,130.83,135.86,10
128,130.77,135.78,10
126,130.67,135.68,10
128,130.62,135.61,10
127,130.55,135.52,10
127,130.48,135.43,10
128,130.43,135.36,10
128,130.38,135.29,10
128,130.33,135.21,10
128,130.28,135.14,10
127,130.22,135.06,10
127,130.15,134.98,10
128,130.11,134.91,10
129,130.09,134.85,10
129,130.07,134.79,10
128,130.03,134.72,10
128,129.99,134.66,10
128,129.95,134.59,10
128,129.91,134.52,10
128,129.87,134.46,10
128,129.83,134.39,10
128,129.79,134.33,10
129,129.78,134.28,10
129,129.76,134.22,10
128,129.73,134.16,10
128,129.69,134.10,10
129,129.68,134.05,10
128,129.65,133.99,10
128,129.61,133.93,10
129,129.60,133.88,10
129,129.59,133.83,10
129,129.58,133.78,10
129,129.57,133.73,10
130,129.57,133.70,10
131,129.60,133.67,10
130,129.61,133.63,10
130,129.62,133.60,10
130,129.63,133.56,10
130,129.63,133.53,10
131,129.66,133.50,10
128,129.63,133.45,10
130,129.64,133.41,10
129,129.62,133.37,10
128,129.59,133.31,10
129,129.58,133.27,10
129,129.57,133.23,10
130,129.58,133.20,10
129,129.56,133.15,10
129,129.55,133.11,10
130,129.56,133.08,10
130,129.57,133.05,10
131,129.60,133.03,10
132,129.65,133.02,10
132,129.69,133.01,10
132,129.74,133.00,10
135,129.85,133.02,10
133,129.91,133.02,10
133,129.97,133.02,10
132,130.01,133.01,10
133,130.07,133.01,10
132,130.11,133.00,10
134,130.19,133.01,10
134,130.26,133.02,10
133,130.32,133.02,10
132,130.35,133.01,10
132,130.38,133.00,10
133,130.44,133.00,10
132,130.47,132.99,10
133,130.52,132.99,10
133,130.57,132.99,10
133,130.62,132.99,10
131,130.62,132.97,10
131,130.63,132.95,10
131,130.64,132.93,10
132,130.67,132.92,10
132,130.69,132.91,10
132,130.72,132.90,10
133,130.77,132.90,10
131,130.77,132.88,10
133,130.81,132.88,10
131,130.82,132.87,10
131,130.82,132.85,10
131,130.83,132.83,10
131,130.83,132.81,10
131,130.83,132.79,10
131,130.84,132.77,10
131,130.84,132.76,10
132,130.86,132.75,10
130,130.84,132.72,10
130,130.83,132.69,10
129,130.79,132.66,10
130,130.78,132.63,10
130,130.76,132.60,10
129,130.72,132.57,10
131,130.73,132.55,10
131,130.74,132.54,10
129,130.70,132.50,10
129,130.67,132.47,10
129,130.63,132.43,10
129,130.60,132.40,10
129,130.57,132.36,10
130,130.56,132.34,10
129,130.53,132.31,10
129,130.50,132.27,10
128,130.45,132.23,10
129,130.42,132.20,10
133,130.47,132.21,10
128,130.42,132.16,10
129,130.39,132.13,10
129,130.36,132.10,10
129,130.34,132.07,10
129,130.31,132.04,10
128,130.26,132.00,10
129,130.24,131.97,10
128,130.19,131.93,10
128,130.15,131.89,10
127,130.09,131.84,10
128,130.04,131.80,10
129,130.02,131.78,10
129,130.00,131.75,10
128,129.96,131.71,10
128,129.92,131.67,10
128,129.89,131.64,10
129,129.87,131.61,10
129,129.85,131.58,10
129,129.83,131.56,10
129,129.82,131.53,10
131,129.84,131.53,10
127,129.78,131.48,10
130,129.79,131.47,10
129,129.77,131.44,10
129,129.76,131.42,10
129,129.74,131.39,10
130,129.75,131.38,10
131,129.77,131.38,10
130,129.78,131.36,10
130,129.78,131.35,10
130,129.79,131.33,10
130,129.79,131.32,10
130,129.79,131.31,10
129,129.78,131.29,10
134,129.86,131.31,10
131,129.89,131.31,10
131,129.91,131.31,10
130,129.91,131.29,10
130,129.91,131.28,10
131,129.93,131.28,10
130,129.93,131.26,10
130,129.94,131.25,10
130,129.94,131.24,10
131,129.96,131.24,10
132,130.00,131.24,10
130,130.00,131.23,10
130,130.00,131.22,10
130,130.00,131.21,10
130,130.00,131.20,10
129,129.98,131.17,10
130,129.98,131.16,10
130,129.98,131.15,10
130,129.98,131.14,10
130,129.98,131.13,10
128,129.94,131.10,10
129,129.92,131.08,10
130,129.92,131.06,10
129,129.91,131.04,10
130,129.91,131.03,10
130,129.91,131.02,10
130,129.91,131.01,10
130,129.91,131.00,10
130,129.91,130.99,10
130,129.92,130.98,10
130,129.92,130.97,10
130,129.92,130.96,10
131,129.94,130.96,10
130,129.94,130.95,10
132,129.98,130.96,10
132,130.02,130.97,10
130,130.02,130.97,10
131,130.04,130.97,10
131,130.06,130.97,10
131,130.08,130.97,10
132,130.12,130.98,10
132,130.16,130.99,10
133,130.21,131.01,10
131,130.23,131.01,10
132,130.26,131.02,10
131,130.28,131.02,10
131,130.29,131.02,10
131,130.31,131.02,10
132,130.34,131.03,10
131,130.36,131.03,10
132,130.39,131.04,10
130,130.38,131.03,10
130,130.37,131.01,10
130,130.37,131.00,10
130,130.36,130.99,10
130,130.35,130.98,10
131,130.36,130.98,10
131,130.38,130.99,10
132,130.41,131.00,10
131,130.42,131.00,10
130,130.41,130.99,10
131,130.42,130.99,10
131,130.44,130.99,10
131,130.45,130.99,10
131,130.46,130.99,10
131,130.47,130.99,10
132,130.50,131.00,10
130,130.49,130.99,10
130,130.48,130.98,10
131,130.49,130.98,10
131,130.50,130.98,10
131,130.51,130.98,10
131,130.52,130.98,10
131,130.53,130.98,10
133,130.58,131.00,10
131,130.59,131.00,10
131,130.60,131.00,10
131,130.60,131.00,10
131,130.61,131.00,10
130,130.60,130.99,10
131,130.61,130.99,10
131,130.62,130.99,10
133,130.66,131.01,10
131,130.67,131.01,10
131,130.68,131.01,10
131,130.68,131.01,10
131,130.69,131.01,10
133,130.74,131.03,10
132,130.76,131.04,10
132,130.79,131.05,10
133,130.83,131.07,10
132,130.85,131.08,10
132,130.88,131.09,10
133,130.92,131.10,10
133,130.96,131.12,10
133,131.00,131.14,10
132,131.02,131.15,11
133,131.06,131.17,11
134,131.12,131.20,12
133,131.16,131.22,12
131,131.15,131.21,13
132,131.17,131.22,13
133,131.21,131.24,14
131,131.20,131.24,14
133,131.24,131.25,15
131,131.23,131.25,15
133,131.27,131.27,16
132,131.28,131.28,16
133,131.32,131.29,17
132,131.33,131.30,17
132,131.35,131.31,18
133,131.38,131.32,18
132,131.39,131.33,19
133,131.42,131.35,19
134,131.47,131.37,20
133,131.51,131.39,20
134,131.56,131.42,20
135,131.62,131.45,20
135,131.69,131.49,20
136,131.78,131.53,20
136,131.86,131.58,20
139,132.01,131.65,20
138,132.12,131.72,20
137,132.22,131.77,20
137,132.32,131.82,20
136,132.39,131.86,20
137,132.48,131.91,20
138,132.59,131.98,20
137,132.68,132.03,20
137,132.77,132.08,20
137,132.85,132.12,20
138,132.96,132.18,20
138,133.06,132.24,20
138,133.16,132.30,20
138,133.25,132.36,20
138,133.35,132.41,20
138,133.44,132.47,20
139,133.55,132.53,20
141,133.70,132.62,20
140,133.83,132.69,20
137,133.89,132.74,20
141,134.03,132.82,20
142,134.19,132.91,20
143,134.37,133.01,20
144,134.56,133.12,20
145,134.77,133.24,20
145,134.97,133.36,20
146,135.19,133.48,20
146,135.41,133.61,20
147,135.64,133.74,20
146,135.85,133.86,20
149,136.11,134.02,20
148,136.35,134.16,20
147,136.56,134.28,20
146,136.75,134.40,20
147,136.96,134.53,20
147,137.16,134.65,20
148,137.37,134.79,20
150,137.63,134.94,20
152,137.91,135.11,20
150,138.16,135.26,20
151,138.41,135.41,20
152,138.69,135.58,20
153,138.97,135.75,20
154,139.27,135.94,20
153,139.55,136.11,20
153,139.82,136.28,20
153,140.08,136.44,20
154,140.36,136.62,20
156,140.67,136.81,20
155,140.96,137.00,20
156,141.26,137.19,20
157,141.57,137.38,20
157,141.88,137.58,20
156,142.16,137.76,20
157,142.46,137.96,20
157,142.75,138.15,20
156,143.02,138.33,20
157,143.30,138.51,20
158,143.59,138.71,20
159,143.90,138.91,20
159,144.20,139.11,20
161,144.54,139.33,20
162,144.89,139.56,20
163,145.25,139.79,20
163,145.60,140.02,20
165,145.99,140.27,20
161,146.29,140.48,20
162,146.61,140.70,20
162,146.91,140.91,20
163,147.23,141.13,20
161,147.51,141.33,20
164,147.84,141.55,20
165,148.18,141.79,20
165,148.52,142.02,20
166,148.87,142.26,20
167,149.23,142.51,20
169,149.63,142.77,20
170,150.03,143.05,20
171,150.45,143.33,20
172,150.88,143.61,20
171,151.29,143.89,20
171,151.68,144.16,20
171,152.07,144.43,20
171,152.45,144.69,20
171,152.82,144.95,20
171,153.18,145.21,20
173,153.58,145.49,20
173,153.97,145.77,20
173,154.35,146.04,20
174,154.74,146.32,20
174,155.12,146.60,20
174,155.50,146.87,20
177,155.93,147.17,20
175,156.31,147.45,20
175,156.69,147.73,20
177,157.09,148.02,20
178,157.51,148.32,20
177,157.90,148.60,20
178,158.30,148.90,20
179,158.72,149.20,20
181,159.16,149.52,20
179,159.56,149.81,20
182,160.01,150.13,20
182,160.45,150.45,20
181,160.86,150.76,20
185,161.34,151.10,20
185,161.82,151.44,20
186,162.30,151.79,20
186,162.77,152.13,20
186,163.24,152.47,20
188,163.73,152.82,20
186,164.18,153.15,20
188,164.65,153.50,20
189,165.14,153.86,20
188,165.60,154.20,20
189,166.07,154.55,20
189,166.53,154.89,20
189,166.98,155.23,20
191,167.46,155.59,20
194,167.99,155.97,20
199,168.61,156.40,20
195,169.13,156.79,20
196,169.67,157.18,20
199,170.26,157.60,20
202,170.89,158.04,20
201,171.50,158.47,20
200,172.07,158.89,20
201,172.64,159.31,20
202,173.23,159.74,20
204,173.85,160.18,20
202,174.41,160.60,20
204,175.00,161.03,20
203,175.56,161.45,20
203,176.11,161.87,20
202,176.63,162.27,20
203,177.16,162.68,20
203,177.67,163.08,20
203,178.18,163.48,20
204,178.70,163.88,20
203,179.18,164.27,20
202,179.64,164.65,20
202,180.09,165.03,20
203,180.54,165.41,20
203,180.99,165.78,20
203,181.43,166.15,20
204,181.88,166.53,20
204,182.33,166.91,20
205,182.78,167.29,20
205,183.22,167.66,20
204,183.64,168.03,20
204,184.05,168.39,20
204,184.45,168.74,20
204,184.84,169.10,20
203,185.20,169.44,20
204,185.58,169.78,20
204,185.94,170.12,20
205,186.33,170.47,20
204,186.68,170.81,20
204,187.03,171.14,20
204,187.37,171.47,20
205,187.72,171.80,20
205,188.06,172.14,20
204,188.38,172.45,20
206,188.73,172.79,20
206,189.08,173.12,20
205,189.40,173.44,20
205,189.71,173.76,20
207,190.06,174.09,20
206,190.38,174.41,20
207,190.71,174.73,20
207,191.03,175.06,20
207,191.35,175.38,20
207,191.67,175.69,20
207,191.97,176.00,20
207,192.27,176.31,20
207,192.57,176.62,20
207,192.86,176.93,20
206,193.12,177.22,20
206,193.38,177.50,20
206,193.63,177.79,20
205,193.86,178.06,20
205,194.08,178.33,20
205,194.30,178.60,20
204,194.49,178.85,20
205,194.70,179.11,20
205,194.91,179.37,20
204,195.09,179.62,20
203,195.25,179.85,20
204,195.42,180.09,20
204,195.59,180.33,20
204,195.76,180.57,20
204,195.93,180.80,20
205,196.11,181.05,20
207,196.33,181.30,20
206,196.52,181.55,20
206,196.71,181.80,20
206,196.90,182.04,20
206,197.08,182.28,20
207,197.28,182.52,20
207,197.47,182.77,20
207,197.66,183.01,20
206,197.83,183.24,20
206,197.99,183.47,20
205,198.13,183.68,20
205,198.27,183.90,20
203,198.36,184.09,20
206,198.52,184.31,20
205,198.65,184.51,20
205,198.77,184.72,20
206,198.92,184.93,20
206,199.06,185.14,20
206,199.20,185.35,20
205,199.31,185.55,20
205,199.43,185.74,20
205,199.54,185.94,20
204,199.63,186.12,20
204,199.72,186.29,20
204,199.80,186.47,20
202,199.85,186.63,20
202,199.89,186.78,20
202,199.93,186.93,20
202,199.97,187.08,20
201,199.99,187.22,20
201,200.01,187.36,20
201,200.03,187.50,20
203,200.09,187.65,20
201,200.11,187.79,20
201,200.13,187.92,20
200,200.13,188.04,20
200,200.12,188.16,20
200,200.12,188.28,20
200,200.12,188.39,20
200,200.12,188.51,20
200,200.11,188.62,20
198,200.07,188.72,20
198,200.03,188.81,20
198,199.99,188.90,20
198,199.95,188.99,20
197,199.89,189.07,20
197,199.83,189.15,20
200,199.84,189.26,20
198,199.80,189.35,20
195,199.70,189.41,20
195,199.61,189.46,20
196,199.54,189.53,20
195,199.45,189.58,20
194,199.34,189.63,20
196,199.27,189.69,20
198,199.25,189.77,20
195,199.16,189.83,20
194,199.06,189.87,20
194,198.96,189.91,20
194,198.86,189.95,20
194,198.76,189.99,20
192,198.62,190.01,20
192,198.49,190.03,20
195,198.42,190.08,20
194,198.33,190.12,20
192,198.21,190.14,20
191,198.06,190.15,20
193,197.96,190.17,20
192,197.84,190.19,20
191,197.71,190.20,20
191,197.57,190.21,20
191,197.44,190.22,20
192,197.33,190.23,20
190,197.18,190.23,20
190,197.04,190.23,20
189,196.88,190.22,20
190,196.74,190.22,20
190,196.61,190.21,20
190,196.48,190.21,20
191,196.37,190.22,20
190,196.24,190.22,20
187,196.05,190.18,20
188,195.89,190.16,20
187,195.72,190.13,20
187,195.54,190.10,20
187,195.37,190.07,20
188,195.22,190.05,20
189,195.10,190.04,20
187,194.94,190.01,20
186,194.76,189.97,20
186,194.58,189.93,20
187,194.43,189.90,20
186,194.26,189.86,20
188,194.14,189.84,20
185,193.95,189.79,20
187,193.82,189.76,20
187,193.68,189.74,20
184,193.49,189.68,20
184,193.30,189.62,20
184,193.11,189.57,20
184,192.93,189.51,20
183,192.73,189.45,20
184,192.55,189.39,20
185,192.40,189.35,20
184,192.24,189.29,20
182,192.03,189.22,20
182,191.83,189.15,20
182,191.63,189.08,20
182,191.44,189.01,20
182,191.25,188.94,20
181,191.05,188.86,20
183,190.89,188.80,20
183,190.73,188.74,20
180,190.51,188.65,20
179,190.28,188.56,20
180,190.08,188.47,20
179,189.86,188.38,20
180,189.66,188.29,20
180,189.47,188.21,20
179,189.26,188.12,20
181,189.09,188.05,20
178,188.87,187.95,20
179,188.67,187.86,20
178,188.46,187.76,20
178,188.25,187.66,20
178,188.04,187.56,20
178,187.84,187.47,20
177,187.63,187.36,20
180,187.47,187.29,20
177,187.26,187.19,21
177,187.06,187.09,21
177,186.86,186.98,22
176,186.64,186.87,22
175,186.41,186.76,22
175,186.18,186.64,22
176,185.98,186.53,22
175,185.76,186.42,22
175,185.54,186.30,22
175,185.33,186.19,22
174,185.10,186.07,22
174,184.88,185.95,22
174,184.66,185.83,22
174,184.45,185.71,22
174,184.24,185.59,22
173,184.02,185.47,22
173,183.80,185.34,22
173,183.58,185.22,22
173,183.37,185.10,22
173,183.16,184.97,22
173,182.96,184.85,22
173,182.76,184.74,22
172,182.54,184.61,22
172,182.33,184.48,22
171,182.11,184.35,22
171,181.88,184.21,22
171,181.67,184.08,22
171,181.45,183.95,22
172,181.26,183.83,22
171,181.06,183.70,22
170,180.84,183.57,22
172,180.66,183.45,22
171,180.47,183.33,22
171,180.28,183.20,22
170,180.07,183.07,22
170,179.87,182.94,22
170,179.67,182.81,22
170,179.48,182.68,22
170,179.29,182.56,22
169,179.09,182.42,22
169,178.88,182.29,22
168,178.67,182.14,22
168,178.45,182.00,22
168,178.24,181.86,22
168,178.04,181.72,22
168,177.84,181.59,22
167,177.62,181.44,22
167,177.41,181.30,22
167,177.20,181.15,22
166,176.98,181.00,22
167,176.78,180.86,22
166,176.56,180.71,22
167,176.37,180.58,22
166,176.16,180.43,22
165,175.94,180.28,22
165,175.72,180.12,22
166,175.53,179.98,22
165,175.32,179.83,22
165,175.11,179.68,22
165,174.91,179.54,22
166,174.73,179.40,22
164,174.51,179.25,22
164,174.30,179.09,22
164,174.10,178.94,22
163,173.88,178.78,22
164,173.68,178.64,22
163,173.47,178.48,22
163,173.26,178.33,22
164,173.07,178.18,22
164,172.89,178.04,22
163,172.69,177.89,22
162,172.48,177.73,22
162,172.27,177.57,22
163,172.08,177.43,22
162,171.88,177.27,22
162,171.68,177.12,22
163,171.51,176.98,22
161,171.30,176.82,22
162,171.11,176.67,22
162,170.93,176.53,22
162,170.75,176.38,22
161,170.56,176.23,22
161,170.37,176.07,22
161,170.18,175.92,22
162,170.02,175.78,22
160,169.82,175.63,22
160,169.62,175.47,22
159,169.41,175.31,22
159,169.20,175.14,22
159,168.99,174.98,22
159,168.79,174.82,22
159,168.60,174.66,22
160,168.43,174.52,22
159,168.24,174.36,22
160,168.07,174.22,22
158,167.87,174.06,22
159,167.69,173.90,22
158,167.50,173.75,22
158,167.31,173.59,22
158,167.12,173.43,22
159,166.96,173.29,22
158,166.78,173.13,22
158,166.61,172.98,22
158,166.44,172.83,22
155,166.21,172.66,22
157,166.02,172.50,22
157,165.84,172.34,22
156,165.65,172.18,22
158,165.49,172.04,22
157,165.32,171.89,22
156,165.14,171.73,22
155,164.93,171.56,22
155,164.73,171.40,22
156,164.56,171.24,22
155,164.37,171.08,22
155,164.18,170.92,22
156,164.02,170.77,22
156,163.86,170.62,22
154,163.66,170.46,22
154,163.47,170.29,22
154,163.28,170.13,22
154,163.09,169.97,22
154,162.91,169.81,22
153,162.71,169.64,22
154,162.54,169.48,22
153,162.35,169.32,22
154,162.18,169.17,22
154,162.02,169.01,22
154,161.86,168.86,22
154,161.70,168.71,22
153,161.53,168.56,22
153,161.35,168.40,22
152,161.17,168.24,22
153,161.00,168.09,22
153,160.84,167.93,22
153,160.69,167.79,22
152,160.51,167.63,22
152,160.34,167.47,22
151,160.16,167.31,22
152,159.99,167.15,22
152,159.83,167.00,22
152,159.68,166.85,22
151,159.50,166.69,22
150,159.31,166.53,22
151,159.15,166.37,22
151,158.98,166.22,22
150,158.80,166.06,22
149,158.61,165.88,22
151,158.46,165.74,22
151,158.31,165.59,22
150,158.14,165.43,22
150,157.98,165.28,22
150,157.82,165.13,22
150,157.66,164.97,22
149,157.49,164.81,22
149,157.32,164.66,22
150,157.17,164.51,22
147,156.97,164.33,22
148,156.79,164.17,22
148,156.61,164.01,22
147,156.42,163.84,22
148,156.25,163.68,22
147,156.07,163.51,22
147,155.89,163.35,22
148,155.73,163.20,22
148,155.57,163.04,22
146,155.38,162.87,22
146,155.20,162.70,22
147,155.03,162.55,22
147,154.87,162.39,22
147,154.71,162.24,22
146,154.54,162.08,22
146,154.37,161.92,22
147,154.22,161.77,22
144,154.02,161.59,22
146,153.86,161.43,22
146,153.70,161.28,22
146,153.55,161.13,22
145,153.37,160.96,22
145,153.21,160.80,22
146,153.06,160.66,22
146,152.92,160.51,22
144,152.74,160.34,22
144,152.57,160.18,22
145,152.42,160.03,22
144,152.25,159.87,22
144,152.08,159.71,22
144,151.92,159.55,22
143,151.74,159.39,22
145,151.61,159.24,22
145,151.48,159.10,22
143,151.31,158.94,22
144,151.16,158.79,22
144,151.02,158.64,22
144,150.88,158.50,22
143,150.72,158.34,22
143,150.57,158.19,22
143,150.41,158.04,22
144,150.29,157.90,22
143,150.14,157.75,22
143,150.00,157.60,22
142,149.84,157.44,22
143,149.70,157.30,22
142,149.55,157.15,22
143,149.42,157.00,22
143,149.29,156.86,22
142,149.14,156.72,22
142,149.00,156.57,22
142,148.86,156.42,22
141,148.70,156.27,22
141,148.55,156.12,22
142,148.42,155.98,22
142,148.29,155.84,22
141,148.14,155.69,22
141,148.00,155.54,22
141,147.86,155.39,22
141,147.72,155.25,22
139,147.55,155.09,22
139,147.38,154.93,22
140,147.23,154.78,22
145,147.18,154.68,22
140,147.04,154.53,22
140,146.90,154.39,22
140,146.76,154.24,22
140,146.63,154.10,22
139,146.47,153.95,22
139,146.33,153.80,22
138,146.16,153.64,22
139,146.02,153.50,22
139,145.88,153.35,22
140,145.76,153.22,22
139,145.62,153.08,22
139,145.49,152.94,22
139,145.36,152.80,22
139,145.23,152.66,22
139,145.11,152.52,22
139,144.99,152.39,22
138,144.85,152.24,22
139,144.73,152.11,22
139,144.61,151.98,22
138,144.48,151.84,22
138,144.35,151.70,22
138,144.23,151.56,22
138,144.10,151.43,22
137,143.96,151.28,22
137,143.82,151.14,22
139,143.72,151.02,22
138,143.61,150.89,22
137,143.48,150.75,22
138,143.37,150.62,22
138,143.26,150.50,22
138,143.16,150.37,22
138,143.05,150.25,22
138,142.95,150.13,22
138,142.85,150.00,22
139,142.77,149.89,22
138,142.68,149.78,22
138,142.59,149.66,22
138,142.49,149.54,22
138,142.40,149.43,22
137,142.30,149.30,22
137,142.19,149.18,22
137,142.09,149.06,22
138,142.00,148.95,22
136,141.88,148.82,22
136,141.77,148.69,22
136,141.65,148.56,22
137,141.56,148.45,22
136,141.45,148.32,22
136,141.34,148.20,22
136,141.23,148.08,22
136,141.13,147.96,22
135,141.00,147.83,22
135,140.88,147.70,22
136,140.79,147.58,22
136,140.69,147.47,22
134,140.56,147.33,22
135,140.45,147.21,22
136,140.36,147.10,22
135,140.25,146.97,22
135,140.14,146.85,22
135,140.04,146.74,22
135,139.94,146.62,22
136,139.86,146.51,22
135,139.77,146.40,22
134,139.65,146.27,22
134,139.54,146.15,22
134,139.43,146.03,22
134,139.32,145.91,22
133,139.19,145.78,22
134,139.09,145.66,22
134,138.99,145.55,22
133,138.87,145.42,22
133,138.75,145.30,22
134,138.65,145.18,22
133,138.54,145.06,22
131,138.39,144.92,22
132,138.26,144.79,22
133,138.16,144.67,22
133,138.05,144.56,22
132,137.93,144.43,22
132,137.81,144.31,22
133,137.72,144.19,22
133,137.62,144.08,22
132,137.51,143.96,22
132,137.40,143.84,22
131,137.27,143.71,22
133,137.19,143.61,22
132,137.08,143.49,22
131,136.96,143.36,22
132,136.86,143.25,22
132,136.77,143.14,22
132,136.67,143.03,22
132,136.58,142.92,22
132,136.48,142.81,22
132,136.40,142.70,22
132,136.31,142.59,22
132,136.22,142.49,22
132,136.14,142.38,22
134,136.09,142.30,22
132,136.01,142.20,22
132,135.93,142.09,22
132,135.85,141.99,22
132,135.78,141.89,22
132,135.70,141.79,22
130,135.59,141.68,22
133,135.54,141.59,22
132,135.46,141.49,22
132,135.40,141.40,22
131,135.31,141.29,22
132,135.24,141.20,22
133,135.20,141.12,22
131,135.11,141.02,22
131,135.03,140.92,22
131,134.95,140.82,22
131,134.87,140.72,22
131,134.79,140.62,22
131,134.72,140.53,22
131,134.64,140.43,22
131,134.57,140.34,22
130,134.48,140.23,22
130,134.39,140.13,22
130,134.30,140.03,22
130,134.22,139.93,22
130,134.13,139.83,22
130,134.05,139.73,22
130,133.97,139.63,22
131,133.91,139.55,22
130,133.83,139.45,22
130,133.75,139.36,22
129,133.66,139.26,22
130,133.59,139.16,22
129,133.49,139.06,22
129,133.40,138.96,22
129,133.32,138.86,22
129,133.23,138.76,22
129,133.14,138.66,22
128,133.04,138.56,22
130,132.98,138.47,22
129,132.90,138.38,22
128,132.80,138.27,22
128,132.71,138.17,22
129,132.63,138.08,22
128,132.54,137.98,22
128,132.45,137.88,22
127,132.34,137.77,22
127,132.23,137.66,22
128,132.15,137.57,22
127,132.05,137.46,22
127,131.95,137.36,22
127,131.85,137.25,22
127,131.75,137.15,22
126,131.63,137.04,22
126,131.52,136.93,22
127,131.43,136.83,22
126,131.32,136.72,22
126,131.22,136.61,22
126,131.11,136.51,22
126,131.01,136.40,22
127,130.93,136.31,22
125,130.81,136.19,22
125,130.69,136.08,22
126,130.60,135.98,22
126,130.51,135.88,22
126,130.42,135.78,22
125,130.31,135.68,22
126,130.22,135.58,22
127,130.16,135.49,22
126,130.08,135.40,22
126,129.99,135.30,22
126,129.91,135.21,22
126,129.84,135.12,22
125,129.74,135.02,22
126,129.67,134.93,22
125,129.57,134.83,22
124,129.46,134.72,22
125,129.37,134.62,22
125,129.28,134.53,22
125,129.20,134.43,22
126,129.13,134.35,22
125,129.05,134.25,22
126,128.99,134.17,22
125,128.91,134.08,22
126,128.85,134.00,22
125,128.78,133.91,22
126,128.72,133.83,22
126,128.67,133.75,22
126,128.61,133.67,22
126,128.56,133.60,22
125,128.49,133.51,22
127,128.46,133.45,22
127,128.43,133.38,22
126,128.38,133.31,22
126,128.33,133.23,22
127,128.31,133.17,22
126,128.26,133.10,22
126,128.22,133.03,22
126,128.17,132.96,22
125,128.11,132.88,22
126,128.07,132.81,22
126,128.02,132.74,22
126,127.98,132.67,22
125,127.92,132.60,22
126,127.89,132.53,22
125,127.83,132.46,22
126,127.79,132.39,22
126,127.76,132.33,22
126,127.72,132.26,22
125,127.67,132.19,22
125,127.61,132.12,22
125,127.56,132.05,22
125,127.51,131.98,22
125,127.46,131.91,22
125,127.41,131.84,22
125,127.36,131.77,22
126,127.33,131.71,22
124,127.27,131.64,22
124,127.20,131.56,22
125,127.16,131.49,22
124,127.10,131.42,22
124,127.03,131.35,22
128,127.05,131.31,22
126,127.03,131.26,22
125,126.99,131.20,22
125,126.95,131.13,22
125,126.91,131.07,22
125,126.87,131.01,22
125,126.84,130.95,22
124,126.78,130.88,22
125,126.74,130.82,22
126,126.73,130.78,22
126,126.71,130.73,22
125,126.68,130.67,22
125,126.65,130.61,22
125,126.61,130.56,22
126,126.60,130.51,22
126,126.59,130.47,22
126,126.58,130.42,22
126,126.57,130.38,22
127,126.57,130.34,22
126,126.56,130.30,22
125,126.53,130.25,22
126,126.52,130.21,22
125,126.49,130.15,22
125,126.46,130.10,22
125,126.43,130.05,22
126,126.42,130.01,22
126,126.41,129.97,22
125,126.39,129.92,22
125,126.36,129.87,22
124,126.31,129.81,22
124,126.27,129.75,22
124,126.22,129.70,22
124,126.18,129.64,22
124,126.13,129.58,22
125,126.11,129.54,22
125,126.09,129.49,22
124,126.05,129.44,22
124,126.00,129.38,22
124,125.96,129.33,22
124,125.93,129.28,22
124,125.89,129.22,22
125,125.87,129.18,22
124,125.83,129.13,22
124,125.80,129.08,22
123,125.74,129.02,22
124,125.70,128.97,22
124,125.67,128.92,22
123,125.62,128.86,22
124,125.58,128.81,22
124,125.55,128.76,22
124,125.52,128.71,22
124,125.49,128.67,22
124,125.46,128.62,22
125,125.45,128.58,22
124,125.42,128.54,22
124,125.39,128.49,22
125,125.39,128.46,22
124,125.36,128.41,22
126,125.37,128.39,22
126,125.38,128.37,22
124,125.36,128.32,22
125,125.35,128.29,22
125,125.34,128.26,22
125,125.34,128.22,22
125,125.33,128.19,22
126,125.34,128.17,22
125,125.34,128.14,22
124,125.31,128.10,22
124,125.28,128.05,22
124,125.26,128.01,22
124,125.23,127.97,22
124,125.21,127.93,22
124,125.18,127.89,22
124,125.16,127.86,22
124,125.14,127.82,22
123,125.09,127.77,22
122,125.03,127.71,22
124,125.01,127.67,22
124,124.99,127.64,22
124,124.97,127.60,22
124,124.95,127.57,22
124,124.93,127.53,22
125,124.93,127.50,22
124,124.92,127.47,22
122,124.86,127.41,22
123,124.82,127.37,22
124,124.80,127.34,22
124,124.79,127.30,22
125,124.79,127.28,22
124,124.78,127.25,22
124,124.76,127.22,22
124,124.75,127.18,22
124,124.73,127.15,22
124,124.72,127.12,22
124,124.70,127.09,22
124,124.69,127.06,22
124,124.67,127.03,22
125,124.68,127.01,22
124,124.67,126.98,22
122,124.61,126.93,22
123,124.58,126.89,22
124,124.57,126.86,22
124,124.56,126.83,22
125,124.57,126.81,22
124,124.56,126.78,22
124,124.54,126.76,22
124,124.53,126.73,22
124,124.52,126.70,22
122,124.47,126.65,22
124,124.46,126.63,22
123,124.43,126.59,22
124,124.43,126.57,22
124,124.42,126.54,22
124,124.41,126.51,22
123,124.38,126.48,22
124,124.37,126.45,22
124,124.37,126.43,22
123,124.34,126.40,22
124,124.33,126.37,22
124,124.32,126.35,22
124,124.32,126.32,22
124,124.31,126.30,22
124,124.31,126.28,22
124,124.30,126.26,22
124,124.29,126.23,22
125,124.31,126.22,22
123,124.28,126.19,22
124,124.28,126.17,22
123,124.25,126.13,22
124,124.25,126.11,22
125,124.26,126.10,22
124,124.25,126.08,22
124,124.25,126.06,22
124,124.24,126.04,22
124,124.24,126.02,22
124,124.24,126.00,22
124,124.23,125.98,22
124,124.23,125.96,22
124,124.22,125.94,22
124,124.22,125.92,22
120,124.13,125.86,22
124,124.13,125.84,22
124,124.13,125.82,22
125,124.14,125.82,22
124,124.14,125.80,22
126,124.18,125.80,22
126,124.22,125.80,22
126,124.25,125.80,22
126,124.29,125.81,22
126,124.32,125.81,22
127,124.37,125.82,22
131,124.51,125.87,22
127,124.56,125.88,22
127,124.61,125.89,22
127,124.65,125.90,22
126,124.68,125.91,22
127,124.73,125.92,22
127,124.77,125.93,22
126,124.80,125.93,22
127,124.84,125.94,22
127,124.88,125.95,22
128,124.95,125.97,22
127,124.99,125.98,22
127,125.03,125.99,22
126,125.05,125.99,22
127,125.09,126.00,22
127,125.12,126.01,22
127,125.16,126.02,22
127,125.20,126.03,22
127,125.23,126.04,22
127,125.27,126.05,22
127,125.30,126.06,22
127,125.34,126.07,22
127,125.37,126.08,22
126,125.38,126.08,22
127,125.42,126.09,22
127,125.45,126.10,22
127,125.48,126.10,22
128,125.53,126.12,22
126,125.54,126.12,22
127,125.57,126.13,22
126,125.58,126.13,22
126,125.59,126.13,22
126,125.59,126.13,22
126,125.60,126.13,22
127,125.63,126.13,22
127,125.66,126.14,22
125,125.64,126.13,22
127,125.67,126.14,22
127,125.70,126.15,22
127,125.72,126.16,22
126,125.73,126.16,22
126,125.73,126.15,22
127,125.76,126.16,22
127,125.78,126.17,22
125,125.77,126.16,22
126,125.77,126.16,22
126,125.78,126.16,22
126,125.78,126.15,22
125,125.77,126.14,22
125,125.75,126.13,22
127,125.78,126.14,22
127,125.80,126.15,22
126,125.81,126.15,22
126,125.81,126.15,22
127,125.83,126.15,22
128,125.88,126.17,22
128,125.92,126.19,22
128,125.96,126.21,22
129,126.02,126.24,22
129,126.08,126.27,22
128,126.12,126.28,22
130,126.20,126.32,22
130,126.27,126.36,22
130,126.35,126.39,22
130,126.42,126.43,22
131,126.51,126.47,22
130,126.58,126.51,22
132,126.69,126.56,22
130,126.76,126.60,22
130,126.82,126.63,22
134,126.96,126.71,22
130,127.03,126.74,22
130,127.08,126.77,22
130,127.14,126.80,22
131,127.22,126.85,22
131,127.30,126.89,22
130,127.35,126.92,22
131,127.42,126.96,22
131,127.49,127.00,22
131,127.56,127.04,22
130,127.61,127.07,22
130,127.66,127.10,22
131,127.73,127.14,22
132,127.81,127.19,22
130,127.86,127.22,22
130,127.90,127.24,22
130,127.94,127.27,22
130,127.98,127.30,22
130,128.02,127.32,22
131,128.08,127.36,22
131,128.14,127.40,22
131,128.20,127.43,22
130,128.23,127.46,22
130,128.27,127.49,22
130,128.30,127.51,22
130,128.34,127.54,22
129,128.35,127.55,22
130,128.38,127.57,22
132,128.46,127.62,22
131,128.51,127.65,22
130,128.54,127.68,22
129,128.55,127.69,22
130,128.58,127.71,22
130,128.60,127.74,22
130,128.63,127.76,22
134,128.74,127.82,22
132,128.80,127.86,22
132,128.87,127.90,22
132,128.93,127.94,22
133,129.01,127.99,22
133,129.09,128.04,22
133,129.17,128.09,22
136,129.31,128.17,22
137,129.46,128.26,22
137,129.61,128.35,22
139,129.80,128.46,22
137,129.94,128.54,22
137,130.08,128.63,22
137,130.22,128.71,22
137,130.36,128.79,22
137,130.49,128.87,22
137,130.62,128.96,22
137,130.75,129.04,22
137,130.87,129.12,22
137,131.00,129.19,22
137,131.12,129.27,22
138,131.25,129.36,22
138,131.39,129.45,22
139,131.54,129.54,22
141,131.73,129.66,22
141,131.92,129.77,22
143,132.14,129.90,22
143,132.36,130.03,22
142,132.55,130.15,22
142,132.74,130.27,22
142,132.92,130.39,22
142,133.10,130.50,22
141,133.26,130.61,22
141,133.42,130.71,22
141,133.57,130.82,22
143,133.76,130.94,22
142,133.92,131.05,22
142,134.08,131.16,22
141,134.22,131.26,22
141,134.36,131.35,22
141,134.49,131.45,22
143,134.66,131.57,22
141,134.79,131.66,22
142,134.93,131.76,22
142,135.07,131.87,22
142,135.21,131.97,22
142,135.35,132.07,22
143,135.50,132.18,22
141,135.61,132.27,22
141,135.72,132.35,22
143,135.86,132.46,22
143,136.01,132.56,22
145,136.19,132.69,22
144,136.34,132.80,22
145,136.52,132.92,22
148,136.75,133.07,22
148,136.97,133.22,22
148,137.19,133.37,22
149,137.43,133.53,22
151,137.70,133.70,22
151,137.96,133.88,22
152,138.25,134.06,22
151,138.50,134.23,22
151,138.75,134.39,22
152,139.02,134.57,22
152,139.28,134.74,22
152,139.53,134.92,22
153,139.80,135.10,22
154,140.08,135.29,22
154,140.36,135.47,22
151,140.57,135.63,22
155,140.86,135.82,22
156,141.17,136.02,22
158,141.50,136.24,22
159,141.85,136.47,22
157,142.16,136.68,22
158,142.47,136.89,22
159,142.80,137.11,22
161,143.17,137.35,22
162,143.54,137.60,22
161,143.89,137.83,22
164,144.29,138.09,22
165,144.71,138.36,22
164,145.09,138.62,22
164,145.47,138.87,22
166,145.88,139.14,22
168,146.33,139.43,22
171,146.82,139.75,22
170,147.28,140.05,22
173,147.80,140.38,22
173,148.30,140.71,22
174,148.81,141.04,22
174,149.32,141.37,22
175,149.83,141.70,22
176,150.36,142.05,22
175,150.85,142.38,22
176,151.35,142.71,22
179,151.90,143.08,22
180,152.47,143.45,22
181,153.04,143.82,22
181,153.60,144.19,22
181,154.14,144.56,22
182,154.70,144.94,22
182,155.25,145.31,22
181,155.76,145.66,22
181,156.27,146.02,22
183,156.80,146.39,22
181,157.29,146.73,22
181,157.76,147.08,22
181,158.23,147.41,22
181,158.68,147.75,22
181,159.13,148.08,22
181,159.56,148.41,22
182,160.01,148.75,22
184,160.49,149.10,22
183,160.94,149.44,22
183,161.38,149.77,22
184,161.84,150.12,22
185,162.30,150.47,22
183,162.71,150.79,22
185,163.16,151.13,22
186,163.62,151.48,22
188,164.10,151.85,22
188,164.58,152.21,22
185,164.99,152.54,22
186,165.41,152.87,22
186,165.82,153.20,22
186,166.23,153.53,22
187,166.64,153.87,22
189,167.09,154.22,22
189,167.53,154.56,22
190,167.98,154.92,22
191,168.44,155.28,22
191,168.89,155.64,22
191,169.33,155.99,22
189,169.72,156.32,22
190,170.13,156.66,22
190,170.53,156.99,22
191,170.94,157.33,22
190,171.32,157.66,22
188,171.65,157.96,22
191,172.04,158.29,22
193,172.46,158.64,22
194,172.89,158.99,22
193,173.29,159.33,22
195,173.72,159.69,22
197,174.19,160.06,22
195,174.61,160.41,22
194,174.99,160.75,22
195,175.39,161.09,22
198,175.85,161.46,22
200,176.33,161.84,22
196,176.72,162.19,22
197,177.13,162.53,22
197,177.53,162.88,22
196,177.90,163.21,22
199,178.32,163.57,22
198,178.71,163.91,22
198,179.10,164.25,22
198,179.47,164.59,22
198,179.85,164.92,22
200,180.25,165.28,22
202,180.68,165.64,22
198,181.03,165.97,22
198,181.37,166.29,22
197,181.68,166.59,22
198,182.01,166.91,22
200,182.37,167.24,22
201,182.74,167.58,22
202,183.13,167.92,22
201,183.48,168.25,22
203,183.87,168.60,22
203,184.26,168.94,22
202,184.61,169.27,22
203,184.98,169.61,22
204,185.36,169.95,22
204,185.73,170.29,22
203,186.08,170.62,22
205,186.46,170.97,22
202,186.77,171.28,22
204,187.11,171.60,22
203,187.43,171.92,22
203,187.74,172.23,22
202,188.03,172.53,22
201,188.29,172.81,22
203,188.58,173.11,22
206,188.93,173.44,22
203,189.21,173.74,22
205,189.53,174.05,22
208,189.89,174.39,22
205,190.20,174.70,22
205,190.49,175.00,22
205,190.78,175.30,22
208,191.13,175.63,22
207,191.44,175.94,22
207,191.76,176.25,22
207,192.06,176.56,22
207,192.36,176.86,22
207,192.65,177.16,22
207,192.94,177.46,22
206,193.20,177.75,22
206,193.46,178.03,22
205,193.69,178.30,22
205,193.91,178.57,22
205,194.14,178.83,22
206,194.37,179.10,22
206,194.61,179.37,22
205,194.81,179.63,22
205,195.02,179.88,22
205,195.22,180.13,22
205,195.41,180.38,22
206,195.62,180.64,22
207,195.85,180.90,22
206,196.05,181.15,22
205,196.23,181.39,22
207,196.45,181.65,22
207,196.66,181.90,22
206,196.85,182.14,22
205,197.01,182.37,22
205,197.17,182.60,22
205,197.33,182.82,22
208,197.54,183.07,22
204,197.67,183.28,22
204,197.80,183.49,22
204,197.92,183.69,22
204,198.04,183.90,22
203,198.14,184.09,22
202,198.22,184.27,22
202,198.29,184.44,22
202,198.37,184.62,22
202,198.44,184.79,22
201,198.49,184.96,22
201,198.54,185.12,22
201,198.59,185.27,22
201,198.64,185.43,22
201,198.69,185.59,22
201,198.73,185.74,22
200,198.76,185.88,22
200,198.78,186.03,22
200,198.81,186.17,22
200,198.83,186.30,22
199,198.83,186.43,22
200,198.86,186.57,22
198,198.84,186.68,22
198,198.82,186.79,22
198,198.81,186.91,22
199,198.81,187.03,22
199,198.81,187.15,22
198,198.80,187.25,22
200,198.82,187.38,22
198,198.81,187.49,22
196,198.75,187.57,22
196,198.69,187.66,22
197,198.66,187.75,22
197,198.63,187.84,22
196,198.58,187.93,22
196,198.52,188.01,22
197,198.49,188.10,22
197,198.46,188.19,22
194,198.37,188.24,22
195,198.31,188.31,22
195,198.24,188.38,22
195,198.18,188.44,22
194,198.09,188.50,22
194,198.01,188.55,22
195,197.95,188.62,22
195,197.89,188.68,22
193,197.79,188.73,22
193,197.70,188.77,22
194,197.62,188.82,22
194,197.55,188.87,22
192,197.44,188.90,22
192,197.33,188.94,22
193,197.24,188.98,22
193,197.16,189.02,22
191,197.04,189.04,22
192,196.94,189.07,22
191,196.82,189.08,22
192,196.72,189.11,22
189,196.57,189.11,22
191,196.46,189.13,22
192,196.37,189.16,22
191,196.26,189.18,22
189,196.11,189.18,22
189,195.97,189.18,22
189,195.83,189.17,22
189,195.70,189.17,22
187,195.52,189.15,22
190,195.41,189.16,22
188,195.26,189.15,22
188,195.12,189.14,22
187,194.96,189.11,22
186,194.78,189.08,22
187,194.62,189.06,22
187,194.47,189.04,22
185,194.28,189.00,22
186,194.11,188.97,22
187,193.97,188.95,22
187,193.83,188.93,22
185,193.65,188.89,22
185,193.48,188.85,22
187,193.35,188.84,22
186,193.21,188.81,22
184,193.02,188.76,22
184,192.84,188.71,22
188,192.74,188.70,22
185,192.59,188.67,22
182,192.38,188.60,22
182,192.17,188.53,22
184,192.01,188.49,22
184,191.85,188.44,22
183,191.67,188.39,22
182,191.48,188.33,22
183,191.31,188.27,22
184,191.16,188.23,22
182,190.98,188.17,22
182,190.80,188.11,22
182,190.62,188.04,22
182,190.45,187.98,22
181,190.26,187.91,22
181,190.07,187.85,22
181,189.89,187.78,22
183,189.76,187.73,22
179,189.54,187.64,22
180,189.35,187.57,22
180,189.16,187.49,22
179,188.96,187.40,22
179,188.76,187.32,22
179,188.56,187.24,22
179,188.37,187.16,22
178,188.17,187.06,22
178,187.96,186.97,22
178,187.76,186.88,22
177,187.55,186.78,22
177,187.34,186.69,22
177,187.13,186.59,22
177,186.93,186.49,22
176,186.71,186.39,22
176,186.50,186.29,22
175,186.27,186.17,23
176,186.06,186.07,23
175,185.84,185.96,24
175,185.62,185.85,24
173,185.37,185.72,24
174,185.14,185.60,24
174,184.92,185.49,24
173,184.68,185.36,24
174,184.47,185.25,24
174,184.26,185.14,24
174,184.05,185.03,24
173,183.83,184.91,24
173,183.62,184.79,24
174,183.42,184.68,24
173,183.21,184.56,24
173,183.01,184.45,24
172,182.79,184.32,24
171,182.55,184.19,24
171,182.32,184.06,24
172,182.12,183.94,24
171,181.89,183.81,24
172,181.70,183.69,24
172,181.50,183.57,24
172,181.31,183.46,24
172,181.13,183.34,24
172,180.94,183.23,24
171,180.74,183.11,24
172,180.57,182.99,24
172,180.40,182.88,24
171,180.21,182.77,24
171,180.03,182.65,24
171,179.85,182.53,24
171,179.67,182.42,24
171,179.50,182.30,24
170,179.31,182.18,24
170,179.12,182.06,24
170,178.94,181.94,24
170,178.76,181.82,24
169,178.56,181.69,24
169,178.37,181.56,24
170,178.20,181.45,24
169,178.02,181.32,24
168,177.82,181.19,24
168,177.62,181.06,24
168,177.43,180.93,24
168,177.24,180.80,24
168,177.06,180.67,24
167,176.86,180.53,24
166,176.64,180.39,24
167,176.45,180.25,24
166,176.24,180.11,24
166,176.03,179.97,24
166,175.83,179.83,24
167,175.66,179.70,24
165,175.44,179.56,24
168,175.29,179.44,24
166,175.11,179.31,24
166,174.93,179.17,24
166,174.75,179.04,24
165,174.55,178.90,24
165,174.36,178.76,24
165,174.17,178.62,24
165,173.99,178.49,24
165,173.81,178.35,24
164,173.61,178.21,24
163,173.40,178.06,24
163,173.19,177.91,24
163,172.99,177.76,24
167,172.87,177.65,24
165,172.71,177.52,24
164,172.54,177.39,24
164,172.37,177.25,24
164,172.20,177.12,24
163,172.02,176.98,24
163,171.84,176.84,24
163,171.66,176.70,24
163,171.49,176.56,24
163,171.32,176.43,24
163,171.15,176.29,24
162,170.97,176.15,24
162,170.79,176.01,24
162,170.61,175.87,24
162,170.44,175.73,24
162,170.27,175.59,24
161,170.09,175.45,24
162,169.92,175.31,24
161,169.75,175.17,24
162,169.59,175.04,24
162,169.44,174.91,24
162,169.29,174.78,24
161,169.12,174.64,24
161,168.96,174.51,24
161,168.80,174.37,24
162,168.67,174.25,24
163,168.55,174.13,24
162,168.42,174.01,24
161,168.27,173.88,24
162,168.15,173.76,24
162,168.03,173.65,24
162,167.90,173.53,24
163,167.81,173.42,24
163,167.71,173.32,24
161,167.58,173.20,24
166,167.54,173.13,24
163,167.45,173.02,24
163,167.36,172.92,24
163,167.28,172.82,24
162,167.17,172.72,24
163,167.09,172.62,24
163,167.01,172.52,24
163,166.93,172.43,24
162,166.83,172.32,24
163,166.75,172.23,24
162,166.66,172.13,24
161,166.54,172.02,24
161,166.43,171.91,24
161,166.32,171.80,24
162,166.24,171.70,24
161,166.13,171.59,24
160,166.01,171.48,24
160,165.89,171.36,24
160,165.77,171.25,24
160,165.66,171.14,24
159,165.52,171.01,24
160,165.41,170.90,24
160,165.30,170.80,24
160,165.20,170.69,24
159,165.07,170.57,24
158,164.93,170.44,24
159,164.81,170.33,24
159,164.70,170.22,24
159,164.58,170.10,24
160,164.49,170.00,24
160,164.40,169.90,24
160,164.31,169.80,24
159,164.21,169.70,24
160,164.12,169.60,24
159,164.02,169.49,24
159,163.92,169.39,24
159,163.82,169.28,24
160,163.75,169.19,24
159,163.65,169.09,24
159,163.56,168.99,24
159,163.47,168.89,24
158,163.36,168.78,24
158,163.25,168.67,24
158,163.15,168.57,24
158,163.04,168.46,24
159,162.96,168.37,24
158,162.86,168.26,24
158,162.77,168.16,24
158,162.67,168.06,24
158,162.58,167.96,24
158,162.49,167.86,24
158,162.40,167.76,24
158,162.31,167.66,24
159,162.24,167.57,24
159,162.18,167.49,24
159,162.11,167.40,24
158,162.03,167.31,24
159,161.97,167.23,24
159,161.91,167.14,24
159,161.85,167.06,24
158,161.78,166.97,24
158,161.70,166.88,24
158,161.63,166.79,24
159,161.57,166.72,24
158,161.50,166.63,24
158,161.43,166.54,24
158,161.36,166.46,24
158,161.30,166.37,24
158,161.23,166.29,24
158,161.17,166.21,24
155,161.04,166.09,24
157,160.96,166.00,24
157,160.88,165.91,24
155,160.76,165.80,24
155,160.65,165.70,24
156,160.56,165.60,24
155,160.45,165.49,24
156,160.36,165.40,24
157,160.29,165.31,24
155,160.18,165.21,24
156,160.10,165.12,24
157,160.04,165.04,24
155,159.94,164.94,24
155,159.84,164.84,24
155,159.74,164.74,24
156,159.67,164.65,24
156,159.59,164.57,24
155,159.50,164.47,24
155,159.41,164.38,24
155,159.32,164.28,24
154,159.22,164.18,24
155,159.13,164.09,24
154,159.03,163.99,24
155,158.95,163.90,24
156,158.89,163.82,24
155,158.81,163.73,24
154,158.72,163.63,24
154,158.62,163.54,24
154,158.53,163.44,24
154,158.44,163.35,24
154,158.35,163.25,24
154,158.26,163.16,24
154,158.18,163.07,24
154,158.09,162.98,24
153,157.99,162.88,24
152,157.87,162.77,24
154,157.80,162.68,24
153,157.70,162.58,24
154,157.63,162.50,24
154,157.55,162.41,24
154,157.48,162.33,24
153,157.39,162.24,24
153,157.30,162.14,24
154,157.24,162.06,24
154,157.17,161.98,24
154,157.11,161.90,24
154,157.05,161.82,24
155,157.01,161.75,24
154,156.95,161.68,24
153,156.87,161.59,24
153,156.79,161.50,24
153,156.71,161.42,24
153,156.64,161.34,24
152,156.55,161.24,24
152,156.46,161.15,24
153,156.39,161.07,24
153,156.32,160.99,24
152,156.23,160.90,24
153,156.17,160.82,24
153,156.11,160.74,24
153,156.04,160.66,24
153,155.98,160.59,24
153,155.92,160.51,24
153,155.86,160.44,24
154,155.83,160.37,24
153,155.77,160.30,24
153,155.71,160.22,24
152,155.64,160.14,24
153,155.59,160.07,24
153,155.54,160.00,24
152,155.47,159.92,24
153,155.42,159.85,24
152,155.35,159.77,24
152,155.28,159.69,24
151,155.20,159.61,24
151,155.11,159.52,24
151,155.03,159.44,24
151,154.95,159.35,24
151,154.87,159.27,24
152,154.81,159.20,24
152,154.76,159.12,24
152,154.70,159.05,24
153,154.67,158.99,24
153,154.63,158.93,24
152,154.58,158.86,24
153,154.55,158.80,24
153,154.52,158.75,24
155,154.53,158.71,24
154,154.52,158.66,24
154,154.51,158.61,24
153,154.48,158.56,24
154,154.47,158.51,24
154,154.46,158.47,24
153,154.43,158.41,24
153,154.40,158.36,24
154,154.39,158.32,24
154,154.38,158.27,24
154,154.38,158.23,24
153,154.35,158.18,24
154,154.34,158.14,24
154,154.34,158.09,24
154,154.33,158.05,24
153,154.30,158.00,24
154,154.30,157.96,24
154,154.29,157.92,24
152,154.24,157.86,24
153,154.22,157.82,24
154,154.22,157.78,24
154,154.21,157.74,24
154,154.21,157.70,24
154,154.20,157.66,24
154,154.20,157.63,24
154,154.19,157.59,24
154,154.19,157.56,24
155,154.21,157.53,24
154,154.20,157.50,24
154,154.20,157.46,24
154,154.19,157.43,24
154,154.19,157.39,24
154,154.19,157.36,24
153,154.16,157.31,24
154,154.16,157.28,24
154,154.16,157.25,24
154,154.15,157.22,24
154,154.15,157.18,24
153,154.13,157.14,24
154,154.12,157.11,24
154,154.12,157.08,24
154,154.12,157.05,24
154,154.12,157.02,24
153,154.10,156.98,24
154,154.09,156.95,24
154,154.09,156.92,24
154,154.09,156.89,24
153,154.07,156.85,24
154,154.07,156.82,24
154,154.07,156.79,24
155,154.08,156.78,24
153,154.06,156.74,24
154,154.06,156.71,24
154,154.06,156.68,24
153,154.04,156.65,24
153,154.02,156.61,24
153,154.00,156.57,24
153,153.98,156.54,24
154,153.98,156.51,24
153,153.96,156.48,24
154,153.96,156.45,24
154,153.96,156.43,24
153,153.94,156.39,24
153,153.92,156.36,24
156,153.96,156.36,24
154,153.96,156.33,24
155,153.99,156.32,24
154,153.99,156.30,24
154,153.99,156.27,24
153,153.97,156.24,24
153,153.95,156.21,24
153,153.93,156.18,24
154,153.93,156.15,24
153,153.91,156.12,24
154,153.91,156.10,24
153,153.89,156.07,24
153,153.88,156.04,24
152,153.84,156.00,24
153,153.82,155.97,24
153,153.81,155.94,24
154,153.81,155.92,24
153,153.79,155.89,24
153,153.78,155.86,24
153,153.76,155.83,24
154,153.77,155.82,24
153,153.75,155.79,24
153,153.74,155.76,24
153,153.72,155.73,24
154,153.73,155.71,24
153,153.71,155.69,24
154,153.72,155.67,24
153,153.70,155.64,24
154,153.71,155.63,24
154,153.72,155.61,24
153,153.70,155.58,24
152,153.67,155.55,24
154,153.67,155.53,24
154,153.68,155.52,24
155,153.71,155.51,24
153,153.69,155.49,24
153,153.68,155.46,24
154,153.69,155.45,24
154,153.69,155.43,24
154,153.70,155.42,24
154,153.70,155.41,24
154,153.71,155.39,24
154,153.72,155.38,24
154,153.72,155.36,24
154,153.73,155.35,24
154,153.73,155.34,24
154,153.74,155.32,24
154,153.74,155.31,24
154,153.75,155.30,24
154,153.75,155.28,24
154,153.76,155.27,24
154,153.76,155.26,24
155,153.79,155.26,24
154,153.79,155.24,24
154,153.80,155.23,24
154,153.80,155.22,24
156,153.84,155.23,24
154,153.85,155.21,24
155,153.87,155.21,24
155,153.89,155.21,24
156,153.94,155.22,24
155,153.96,155.22,24
155,153.98,155.21,24
154,153.98,155.20,24
156,154.02,155.21,24
156,154.06,155.22,24
155,154.08,155.21,24
155,154.10,155.21,24
156,154.13,155.22,24
155,154.15,155.22,24
155,154.17,155.22,24
155,154.18,155.21,24
156,154.22,155.22,24
156,154.26,155.23,24
156,154.29,155.24,24
155,154.31,155.23,24
155,154.32,155.23,24
155,154.33,155.23,24
155,154.35,155.23,24
155,154.36,155.23,24
156,154.39,155.23,24
155,154.40,155.23,24
156,154.44,155.24,24
156,154.47,155.25,24
156,154.50,155.25,24
155,154.51,155.25,24
155,154.52,155.25,24
156,154.55,155.26,24
156,154.58,155.26,24
156,154.61,155.27,24
156,154.63,155.28,24
156,154.66,155.29,24
157,154.71,155.30,24
155,154.71,155.30,24
155,154.72,155.30,24
155,154.72,155.29,24
156,154.75,155.30,24
156,154.77,155.31,24
156,154.80,155.31,24
156,154.82,155.32,24
156,154.85,155.33,24
156,154.87,155.34,24
155,154.87,155.33,24
156,154.90,155.34,24
157,154.94,155.36,24
154,154.92,155.34,24
156,154.94,155.35,24
156,154.96,155.35,24
156,154.98,155.36,24
155,154.98,155.36,24
155,154.98,155.35,24
156,155.00,155.36,24
156,155.02,155.37,24
156,155.04,155.37,24
156,155.06,155.38,24
156,155.08,155.39,24
156,155.10,155.39,24
156,155.12,155.40,24
155,155.11,155.39,24
156,155.13,155.40,24
156,155.15,155.41,24
156,155.17,155.41,24
156,155.18,155.42,24
156,155.20,155.42,24
155,155.20,155.42,24
157,155.23,155.44,24
155,155.23,155.43,24
156,155.24,155.44,24
157,155.28,155.45,24
156,155.29,155.46,24
156,155.31,155.46,24
157,155.34,155.48,24
157,155.37,155.49,25
156,155.39,155.50,25
155,155.38,155.49,26
157,155.41,155.51,26
158,155.46,155.53,27
156,155.47,155.54,27
156,155.48,155.54,28
156,155.49,155.55,28
155,155.48,155.54,29
157,155.51,155.56,29
157,155.54,155.57,30
156,155.55,155.58,30
158,155.60,155.60,31
157,155.63,155.61,31
157,155.66,155.63,32
156,155.66,155.63,32
155,155.65,155.62,33
157,155.68,155.64,33
157,155.70,155.65,34
156,155.71,155.66,34
158,155.76,155.68,35
157,155.78,155.69,35
158,155.83,155.72,36
156,155.83,155.72,36
155,155.81,155.71,37
157,155.84,155.72,37
157,155.86,155.74,38
157,155.88,155.75,38
158,155.92,155.77,38
157,155.95,155.78,38
157,155.97,155.80,38
157,155.99,155.81,38
155,155.97,155.80,38
155,155.95,155.79,38
157,155.97,155.80,38
157,155.99,155.82,38
158,156.03,155.84,38
157,156.05,155.85,38
157,156.07,155.86,38
157,156.09,155.87,38
157,156.11,155.88,38
158,156.14,155.91,38
155,156.12,155.90,38
155,156.10,155.89,38
158,156.14,155.91,38
158,156.17,155.93,38
156,156.17,155.93,38
157,156.19,155.94,38
158,156.22,155.96,38
157,156.24,155.97,38
157,156.25,155.98,38
157,156.27,155.99,38
158,156.30,156.01,38
159,156.36,156.04,38
157,156.37,156.05,38
157,156.38,156.06,38
155,156.36,156.05,38
157,156.37,156.06,38
157,156.38,156.07,38
157,156.39,156.08,38
158,156.43,156.10,38
158,156.46,156.12,38
158,156.49,156.14,38
157,156.50,156.14,38
158,156.53,156.16,38
157,156.54,156.17,38
158,156.57,156.19,38
157,156.58,156.20,38
158,156.60,156.22,38
159,156.65,156.24,38
158,156.68,156.26,38
158,156.71,156.28,38
155,156.67,156.27,38
158,156.70,156.28,38
158,156.72,156.30,38
157,156.73,156.31,38
157,156.73,156.31,38
158,156.76,156.33,38
158,156.78,156.35,38
158,156.81,156.36,38
158,156.83,156.38,38
157,156.84,156.39,38
157,156.84,156.39,38
157,156.84,156.40,38
158,156.87,156.42,38
158,156.89,156.43,38
157,156.89,156.44,38
157,156.89,156.44,38
158,156.92,156.46,38
160,156.98,156.49,38
157,156.98,156.50,38
157,156.98,156.50,38
159,157.02,156.53,38
159,157.06,156.55,38
158,157.08,156.57,38
157,157.08,156.57,38
158,157.09,156.59,38
158,157.11,156.60,38
158,157.13,156.61,38
157,157.13,156.62,38
158,157.14,156.63,38
159,157.18,156.66,38
158,157.20,156.67,38
157,157.19,156.67,38
158,157.21,156.69,38
158,157.23,156.70,38
158,157.24,156.71,38
157,157.24,156.71,38
158,157.25,156.73,38
158,157.27,156.74,38
158,157.28,156.75,38
157,157.28,156.76,38
158,157.29,156.77,38
157,157.28,156.77,38
157,157.28,156.77,38
157,157.27,156.77,38
158,157.29,156.79,38
158,157.30,156.80,38
157,157.30,156.80,38
157,157.29,156.80,38
157,157.28,156.81,38
155,157.24,156.79,38
157,157.23,156.79,38
157,157.23,156.79,38
161,157.30,156.83,38
158,157.32,156.85,38
157,157.31,156.85,38
157,157.31,156.85,38
157,157.30,156.85,38
155,157.25,156.83,38
157,157.25,156.83,38
157,157.24,156.83,38
158,157.26,156.85,38
157,157.25,156.85,38
157,157.25,156.85,38
156,157.22,156.84,38
155,157.18,156.82,38
157,157.18,156.82,38
157,157.17,156.83,38
157,157.17,156.83,38
158,157.19,156.84,38
158,157.20,156.85,38
158,157.22,156.86,38
156,157.19,156.85,38
157,157.19,156.86,38
157,157.19,156.86,38
157,157.18,156.86,38
156,157.16,156.85,38
157,157.16,156.85,38
158,157.17,156.86,38
157,157.17,156.86,38
157,157.17,156.87,38
157,157.16,156.87,38
155,157.12,156.85,38
155,157.08,156.83,38
157,157.07,156.83,38
156,157.05,156.82,38
158,157.07,156.83,38
157,157.07,156.84,38
157,157.07,156.84,38
157,157.07,156.84,38
155,157.03,156.82,38
157,157.03,156.82,38
157,157.03,156.83,38
158,157.05,156.84,38
158,157.06,156.85,38
156,157.04,156.84,38
156,157.02,156.83,38
157,157.02,156.83,38
157,157.02,156.83,38
157,157.02,156.84,38
156,157.00,156.83,38
157,157.00,156.83,38
158,157.02,156.84,38
156,157.00,156.83,38
156,156.98,156.82,38
157,156.98,156.83,38
157,156.98,156.83,38
157,156.98,156.83,38
155,156.94,156.81,39
157,156.94,156.81,39
157,156.94,156.82,40
156,156.92,156.81,40
156,156.91,156.80,41
155,156.87,156.78,41
157,156.87,156.78,42
157,156.87,156.79,42
157,156.88,156.79,43
157,156.88,156.79,43
158,156.90,156.80,44
157,156.90,156.80,44
157,156.90,156.81,45
157,156.91,156.81,45
155,156.87,156.79,46
157,156.87,156.79,46
157,156.87,156.79,47
156,156.86,156.79,47
158,156.88,156.80,48
156,156.86,156.79,48
156,156.84,156.78,49
157,156.85,156.78,49
156,156.83,156.78,50
156,156.81,156.77,50
156,156.80,156.76,51
157,156.80,156.76,51
156,156.79,156.76,52
156,156.77,156.75,52
156,156.75,156.74,53
157,156.76,156.74,53
156,156.74,156.74,54
156,156.73,156.73,54
156,156.71,156.72,55
156,156.70,156.71,55
157,156.71,156.72,56
156,156.69,156.71,56
156,156.68,156.70,57
155,156.64,156.69,57
156,156.63,156.68,58
156,156.62,156.67,58
156,156.61,156.67,59
156,156.59,156.66,59
157,156.60,156.66,60
156,156.59,156.66,60
156,156.58,156.65,61
155,156.55,156.63,61
157,156.56,156.64,62
156,156.55,156.63,62
156,156.53,156.62,63
155,156.50,156.61,63
155,156.47,156.59,64
156,156.46,156.59,64
156,156.46,156.58,65
155,156.43,156.56,65
155,156.40,156.55,65
155,156.37,156.53,65
156,156.36,156.53,65
156,156.35,156.52,65
156,156.35,156.52,65
155,156.32,156.50,65
156,156.31,156.50,65
155,156.29,156.48,65
155,156.26,156.47,65
155,156.24,156.45,65
155,156.21,156.44,65
156,156.21,156.43,65
155,156.18,156.42,65
154,156.14,156.39,65
154,156.10,156.37,65
155,156.08,156.36,65
156,156.07,156.35,65
154,156.03,156.33,65
154,155.99,156.31,65
156,155.99,156.30,65
156,155.99,156.30,65
154,155.95,156.28,65
154,155.91,156.25,65
156,155.92,156.25,65
155,155.90,156.24,65
154,155.86,156.22,65
155,155.84,156.21,65
154,155.80,156.18,65
156,155.81,156.18,65
154,155.77,156.16,65
154,155.74,156.14,65
155,155.72,156.13,65
154,155.69,156.11,65
154,155.65,156.08,65
154,155.62,156.06,65
154,155.59,156.04,65
156,155.60,156.04,65
154,155.56,156.02,65
154,155.53,156.00,65
