Teste de posicionamento 2(EMG ao centro do bíceps (Vermelho A, Verde B) + Ref no cotovelo) - 16/09/2024 - teste6 - 5 contrações
long frequencia = 1000;                 //frequência de aquisição do sinal, neste caso, 1000 sinais por segundo
float fator1 = 0.02, fator2 = 0.01;
float incerteza = 0.13;
float pico_basal = 130; // Mínimo para ser considerado um pico de contração
int filtro_horizontal=200000; //intervalo de 200ms valores não pode ter mais de 1 contração

Biceps_D,mediaMovel_1,mediaMovel_2,Contracao
34,0.68,0.34,0
33,1.33,0.67,0
36,2.02,1.02,0
34,2.66,1.35,0
34,3.29,1.68,0
33,3.88,1.99,0
37,4.54,2.34,0
37,5.19,2.69,0
36,5.81,3.02,0
34,6.37,3.33,0
37,6.98,3.67,0
36,7.56,3.99,0
37,8.15,4.32,0
35,8.69,4.63,0
35,9.22,4.93,0
40,9.83,5.28,0
35,10.34,5.58,0
35,10.83,5.87,0
34,11.29,6.15,0
36,11.79,6.45,0
36,12.27,6.75,0
36,12.75,7.04,0
38,13.25,7.35,0
35,13.69,7.63,0
35,14.11,7.90,0
35,14.53,8.17,0
36,14.96,8.45,0
35,15.36,8.71,0
36,15.77,8.99,0
34,16.14,9.24,0
36,16.53,9.50,0
35,16.90,9.76,0
35,17.27,10.01,0
36,17.64,10.27,0
34,17.97,10.51,0
36,18.33,10.76,0
35,18.66,11.01,0
34,18.97,11.24,0
34,19.27,11.46,0
38,19.64,11.73,0
34,19.93,11.95,0
34,20.21,12.17,0
34,20.49,12.39,0
36,20.80,12.63,0
34,21.06,12.84,0
34,21.32,13.05,0
36,21.61,13.28,0
31,21.80,13.46,0
35,22.07,13.67,0
36,22.34,13.90,0
35,22.60,14.11,0
35,22.85,14.32,0
36,23.11,14.53,0
35,23.35,14.74,0
36,23.60,14.95,0
33,23.79,15.13,0
34,23.99,15.32,0
36,24.23,15.53,0
34,24.43,15.71,0
35,24.64,15.91,0
36,24.87,16.11,0
36,25.09,16.31,0
34,25.27,16.48,0
35,25.46,16.67,0
36,25.67,16.86,0
37,25.90,17.06,0
36,26.10,17.25,0
38,26.34,17.46,0
36,26.53,17.64,0
37,26.74,17.84,0
36,26.93,18.02,0
36,27.11,18.20,0
36,27.29,18.38,0
36,27.46,18.55,0
36,27.63,18.73,0
35,27.78,18.89,0
38,27.98,19.08,0
36,28.14,19.25,0
36,28.30,19.42,0
36,28.45,19.58,0
40,28.69,19.79,0
38,28.87,19.97,0
36,29.01,20.13,0
36,29.15,20.29,0
38,29.33,20.47,0
36,29.46,20.62,0
36,29.60,20.78,0
39,29.78,20.96,0
37,29.93,21.12,0
38,30.09,21.29,0
38,30.25,21.45,0
39,30.42,21.63,0
37,30.55,21.78,0
38,30.70,21.95,0
38,30.85,22.11,0
39,31.01,22.28,0
37,31.13,22.42,0
37,31.25,22.57,0
38,31.38,22.72,0
39,31.54,22.89,0
37,31.65,23.03,0
37,31.75,23.17,0
37,31.86,23.30,0
37,31.96,23.44,0
37,32.06,23.58,0
38,32.18,23.72,0
37,32.28,23.85,0
37,32.37,23.99,0
38,32.48,24.13,0
36,32.55,24.24,0
37,32.64,24.37,0
37,32.73,24.50,0
38,32.84,24.63,0
38,32.94,24.77,0
38,33.04,24.90,0
37,33.12,25.02,0
37,33.20,25.14,0
36,33.25,25.25,0
38,33.35,25.38,0
37,33.42,25.49,0
38,33.51,25.62,0
38,33.60,25.74,0
37,33.67,25.85,0
37,33.74,25.97,0
37,33.80,26.08,0
38,33.89,26.20,0
38,33.97,26.31,0
37,34.03,26.42,0
37,34.09,26.53,0
38,34.17,26.64,0
38,34.24,26.75,0
37,34.30,26.86,0
37,34.35,26.96,0
38,34.43,27.07,0
36,34.46,27.16,0
36,34.49,27.25,0
38,34.56,27.35,0
38,34.63,27.46,0
37,34.67,27.56,0
38,34.74,27.66,0
35,34.75,27.73,0
38,34.81,27.84,0
36,34.83,27.92,0
36,34.86,28.00,0
36,34.88,28.08,0
36,34.90,28.16,0
36,34.93,28.24,0
36,34.95,28.31,0
38,35.01,28.41,0
36,35.03,28.49,0
36,35.05,28.56,0
35,35.05,28.63,0
36,35.07,28.70,0
36,35.08,28.77,0
41,35.20,28.90,0
35,35.20,28.96,0
36,35.21,29.03,0
35,35.21,29.09,0
36,35.23,29.16,0
36,35.24,29.22,0
36,35.26,29.29,0
36,35.27,29.36,0
37,35.31,29.44,0
38,35.36,29.52,0
39,35.43,29.62,0
37,35.46,29.69,0
37,35.49,29.76,0
36,35.50,29.82,0
37,35.53,29.90,0
37,35.56,29.97,0
36,35.57,30.03,0
36,35.58,30.09,0
36,35.59,30.15,0
36,35.60,30.21,0
37,35.63,30.27,0
38,35.67,30.35,0
38,35.72,30.43,0
38,35.77,30.50,0
37,35.79,30.57,0
36,35.79,30.62,0
36,35.80,30.68,0
36,35.80,30.73,0
36,35.81,30.78,0
36,35.81,30.83,0
37,35.83,30.90,0
36,35.84,30.95,0
36,35.84,31.00,0
38,35.88,31.07,0
36,35.89,31.12,0
36,35.89,31.17,0
37,35.91,31.22,0
41,36.01,31.32,0
39,36.07,31.40,0
36,36.07,31.44,0
36,36.07,31.49,0
38,36.11,31.56,0
37,36.13,31.61,0
36,36.12,31.65,0
36,36.12,31.70,0
38,36.16,31.76,0
38,36.20,31.82,0
36,36.19,31.86,0
38,36.23,31.93,0
37,36.24,31.98,0
36,36.24,32.02,0
36,36.23,32.06,0
35,36.21,32.09,0
37,36.22,32.13,0
37,36.24,32.18,0
38,36.28,32.24,0
36,36.27,32.28,0
37,36.28,32.33,0
37,36.30,32.37,0
35,36.27,32.40,0
36,36.27,32.44,0
37,36.28,32.48,0
38,36.32,32.54,0
38,36.35,32.59,0
38,36.38,32.65,0
38,36.42,32.70,0
37,36.43,32.74,0
38,36.46,32.79,0
38,36.49,32.85,0
38,36.52,32.90,0
38,36.55,32.95,0
38,36.58,33.00,0
38,36.61,33.05,0
40,36.67,33.12,0
38,36.70,33.17,0
38,36.73,33.22,0
36,36.71,33.24,0
37,36.72,33.28,0
37,36.72,33.32,0
36,36.71,33.35,0
36,36.70,33.37,0
37,36.70,33.41,0
36,36.69,33.43,0
36,36.67,33.46,0
38,36.70,33.51,0
37,36.71,33.54,0
36,36.69,33.56,0
36,36.68,33.59,0
38,36.70,33.63,0
37,36.71,33.67,0
37,36.72,33.70,0
36,36.70,33.72,0
38,36.73,33.77,0
36,36.71,33.79,0
36,36.70,33.81,0
37,36.71,33.84,0
36,36.69,33.86,0
36,36.68,33.89,0
35,36.64,33.90,0
36,36.63,33.92,0
36,36.62,33.94,0
37,36.63,33.97,0
36,36.61,33.99,0
36,36.60,34.01,0
36,36.59,34.03,0
35,36.56,34.04,0
36,36.55,34.06,0
36,36.54,34.08,0
36,36.52,34.10,0
35,36.49,34.11,0
35,36.46,34.12,0
36,36.45,34.13,0
36,36.45,34.15,0
36,36.44,34.17,0
34,36.39,34.17,0
40,36.46,34.23,0
36,36.45,34.25,0
35,36.42,34.25,0
36,36.41,34.27,0
36,36.41,34.29,0
36,36.40,34.30,0
35,36.37,34.31,0
36,36.36,34.33,0
35,36.33,34.34,0
35,36.31,34.34,0
34,36.26,34.34,0
36,36.26,34.36,0
34,36.21,34.35,0
35,36.19,34.36,0
35,36.16,34.36,0
36,36.16,34.38,0
36,36.16,34.40,0
35,36.13,34.40,0
34,36.09,34.40,0
36,36.09,34.42,0
34,36.05,34.41,0
35,36.03,34.42,0
38,36.07,34.45,0
37,36.08,34.48,0
36,36.08,34.49,0
35,36.06,34.50,0
36,36.06,34.51,0
36,36.06,34.53,0
35,36.04,34.53,0
35,36.02,34.54,0
34,35.98,34.53,0
34,35.94,34.53,0
34,35.90,34.52,0
34,35.86,34.52,0
36,35.86,34.53,0
34,35.83,34.53,0
34,35.79,34.52,0
34,35.75,34.52,0
34,35.72,34.51,0
34,35.68,34.51,0
34,35.65,34.50,0
34,35.62,34.50,0
36,35.63,34.51,0
36,35.63,34.53,0
34,35.60,34.52,0
35,35.59,34.52,0
36,35.60,34.54,0
35,35.58,34.54,0
34,35.55,34.54,0
34,35.52,34.53,0
33,35.47,34.52,0
34,35.44,34.51,0
34,35.41,34.51,0
34,35.38,34.50,0
36,35.40,34.52,0
34,35.37,34.51,0
35,35.36,34.52,0
34,35.33,34.51,0
34,35.31,34.51,0
35,35.30,34.51,0
34,35.28,34.51,0
34,35.25,34.50,0
36,35.27,34.52,0
36,35.28,34.53,0
34,35.25,34.53,0
36,35.27,34.54,0
37,35.30,34.57,0
36,35.32,34.58,0
34,35.29,34.57,0
36,35.31,34.59,0
36,35.32,34.60,0
35,35.31,34.61,0
36,35.33,34.62,0
35,35.32,34.62,0
36,35.33,34.64,0
36,35.35,34.65,0
34,35.32,34.65,0
34,35.29,34.64,0
35,35.29,34.64,0
34,35.26,34.64,0
34,35.24,34.63,0
34,35.21,34.62,0
35,35.21,34.63,0
36,35.22,34.64,0
36,35.24,34.65,0
36,35.25,34.67,0
35,35.25,34.67,0
35,35.24,34.67,0
34,35.22,34.67,0
36,35.24,34.68,0
35,35.23,34.68,0
33,35.19,34.67,0
34,35.16,34.66,0
36,35.18,34.67,0
34,35.16,34.67,0
36,35.17,34.68,0
36,35.19,34.69,0
36,35.20,34.71,0
34,35.18,34.70,0
35,35.18,34.70,0
36,35.19,34.72,0
36,35.21,34.73,0
36,35.23,34.74,0
38,35.28,34.77,0
38,35.34,34.81,0
37,35.37,34.83,0
35,35.36,34.83,0
36,35.37,34.84,0
36,35.39,34.85,0
36,35.40,34.86,0
35,35.39,34.87,0
36,35.40,34.88,0
36,35.42,34.89,0
35,35.41,34.89,0
37,35.44,34.91,0
38,35.49,34.94,0
36,35.50,34.95,0
35,35.49,34.95,0
35,35.48,34.95,0
37,35.51,34.97,0
36,35.52,34.98,0
35,35.51,34.98,0
38,35.56,35.01,0
36,35.57,35.02,0
36,35.58,35.03,0
37,35.61,35.05,0
36,35.61,35.06,0
36,35.62,35.07,0
36,35.63,35.08,0
36,35.64,35.09,0
37,35.66,35.11,0
33,35.61,35.09,0
36,35.62,35.10,0
35,35.61,35.10,0
35,35.59,35.10,0
36,35.60,35.10,0
36,35.61,35.11,0
35,35.60,35.11,0
37,35.63,35.13,0
36,35.63,35.14,0
36,35.64,35.15,0
36,35.65,35.16,0
37,35.67,35.18,0
37,35.70,35.19,0
36,35.71,35.20,0
36,35.71,35.21,0
36,35.72,35.22,0
36,35.72,35.23,0
36,35.73,35.23,0
34,35.70,35.22,0
36,35.70,35.23,0
36,35.71,35.24,0
37,35.73,35.25,0
36,35.74,35.26,0
36,35.74,35.27,0
36,35.75,35.28,0
34,35.71,35.26,0
36,35.72,35.27,0
35,35.71,35.27,0
35,35.69,35.27,0
36,35.70,35.27,0
36,35.70,35.28,0
37,35.73,35.30,0
38,35.77,35.32,0
36,35.78,35.33,0
36,35.78,35.34,0
37,35.81,35.35,0
35,35.79,35.35,0
34,35.76,35.34,0
37,35.78,35.35,0
36,35.79,35.36,0
38,35.83,35.39,0
36,35.83,35.39,0
38,35.88,35.42,0
36,35.88,35.43,0
35,35.86,35.42,0
36,35.86,35.43,0
35,35.85,35.42,0
37,35.87,35.44,0
35,35.85,35.43,0
34,35.82,35.42,0
36,35.82,35.43,0
36,35.82,35.43,0
34,35.79,35.42,0
34,35.75,35.40,0
34,35.72,35.39,0
35,35.70,35.38,0
38,35.75,35.41,0
36,35.75,35.42,0
36,35.76,35.42,0
36,35.76,35.43,0
35,35.75,35.42,0
36,35.75,35.43,0
36,35.76,35.44,0
35,35.74,35.43,0
36,35.75,35.44,0
37,35.77,35.45,0
36,35.78,35.46,0
36,35.78,35.46,0
36,35.79,35.47,0
36,35.79,35.47,0
36,35.79,35.48,0
38,35.84,35.50,0
39,35.90,35.54,0
36,35.90,35.54,0
36,35.91,35.55,0
36,35.91,35.55,0
36,35.91,35.56,0
36,35.91,35.56,0
36,35.91,35.57,0
36,35.91,35.57,0
36,35.92,35.57,0
36,35.92,35.58,0
35,35.90,35.57,0
36,35.90,35.58,0
36,35.90,35.58,0
36,35.91,35.59,0
36,35.91,35.59,0
38,35.95,35.61,0
36,35.95,35.62,0
36,35.95,35.62,0
36,35.95,35.63,0
35,35.93,35.62,0
36,35.93,35.62,0
35,35.92,35.62,0
35,35.90,35.61,0
37,35.92,35.62,0
36,35.92,35.63,0
38,35.96,35.65,0
36,35.96,35.66,0
40,36.04,35.70,0
37,36.06,35.71,0
36,36.06,35.72,0
36,36.06,35.72,0
36,36.06,35.72,0
36,36.06,35.72,0
36,36.06,35.73,0
36,36.06,35.73,0
31,35.95,35.68,0
36,35.96,35.68,0
36,35.96,35.69,0
36,35.96,35.69,0
36,35.96,35.69,0
36,35.96,35.70,0
36,35.96,35.70,0
34,35.92,35.68,0
35,35.90,35.68,0
37,35.92,35.69,0
36,35.93,35.69,0
36,35.93,35.70,0
36,35.93,35.70,0
36,35.93,35.70,0
36,35.93,35.71,0
36,35.93,35.71,0
37,35.95,35.72,0
36,35.96,35.72,0
35,35.94,35.72,0
38,35.98,35.74,0
36,35.98,35.74,0
37,36.00,35.75,0
36,36.00,35.76,0
36,36.00,35.76,0
37,36.02,35.77,0
36,36.02,35.77,0
34,35.98,35.76,0
38,36.02,35.78,0
36,36.02,35.78,0
35,36.00,35.77,0
36,36.00,35.78,0
36,36.00,35.78,0
36,36.00,35.78,0
36,36.00,35.78,0
36,36.00,35.78,0
36,36.00,35.79,0
36,36.00,35.79,0
35,35.98,35.78,0
36,35.98,35.78,0
38,36.02,35.81,0
35,36.00,35.80,0
38,36.04,35.82,0
38,36.08,35.84,0
36,36.08,35.84,0
38,36.11,35.86,0
38,36.15,35.89,0
38,36.19,35.91,0
36,36.19,35.91,0
36,36.18,35.91,0
36,36.18,35.91,0
38,36.21,35.93,0
36,36.21,35.93,0
37,36.23,35.94,0
38,36.26,35.96,0
36,36.26,35.96,0
36,36.25,35.96,0
36,36.25,35.96,0
36,36.24,35.96,0
38,36.28,35.98,0
38,36.31,36.00,0
36,36.30,36.00,0
38,36.34,36.02,0
38,36.37,36.04,0
39,36.42,36.07,0
37,36.44,36.08,0
36,36.43,36.08,0
37,36.44,36.09,0
39,36.49,36.12,0
38,36.52,36.14,0
38,36.55,36.16,0
38,36.58,36.18,0
39,36.63,36.20,0
38,36.65,36.22,0
37,36.66,36.23,0
38,36.69,36.25,0
39,36.73,36.28,0
38,36.76,36.29,0
37,36.76,36.30,0
38,36.79,36.32,0
37,36.79,36.32,0
38,36.82,36.34,0
38,36.84,36.36,0
37,36.84,36.36,0
37,36.85,36.37,0
38,36.87,36.39,0
37,36.87,36.39,0
38,36.90,36.41,0
38,36.92,36.42,0
39,36.96,36.45,0
40,37.02,36.49,0
37,37.02,36.49,0
40,37.08,36.53,0
39,37.12,36.55,0
38,37.14,36.56,0
38,37.15,36.58,0
38,37.17,36.59,0
38,37.19,36.61,0
38,37.20,36.62,0
38,37.22,36.64,0
39,37.25,36.66,0
40,37.31,36.69,0
38,37.32,36.71,0
38,37.34,36.72,0
38,37.35,36.73,0
40,37.40,36.76,0
39,37.43,36.79,0
38,37.45,36.80,0
41,37.52,36.84,0
37,37.51,36.84,0
39,37.54,36.86,0
40,37.59,36.89,0
38,37.59,36.91,0
40,37.64,36.94,0
38,37.65,36.95,0
38,37.66,36.96,0
39,37.68,36.98,0
40,37.73,37.01,0
40,37.78,37.04,0
42,37.86,37.09,0
38,37.86,37.10,0
41,37.93,37.14,0
39,37.95,37.15,0
38,37.95,37.16,0
38,37.95,37.17,0
40,37.99,37.20,0
40,38.03,37.23,0
40,38.07,37.26,0
39,38.09,37.27,0
42,38.17,37.32,0
40,38.20,37.35,0
40,38.24,37.37,0
40,38.27,37.40,0
41,38.33,37.44,0
40,38.36,37.46,0
40,38.39,37.49,0
42,38.47,37.53,0
41,38.52,37.57,0
41,38.57,37.60,0
40,38.60,37.63,0
40,38.62,37.65,0
40,38.65,37.67,0
40,38.68,37.70,0
40,38.70,37.72,0
40,38.73,37.74,0
40,38.76,37.76,0
42,38.82,37.81,0
42,38.88,37.85,0
40,38.91,37.87,0
42,38.97,37.91,0
42,39.03,37.95,0
40,39.05,37.97,0
42,39.11,38.01,0
42,39.17,38.05,0
40,39.18,38.07,0
42,39.24,38.11,0
42,39.29,38.15,0
40,39.31,38.17,0
42,39.36,38.21,0
40,39.37,38.23,0
41,39.41,38.25,0
42,39.46,38.29,0
40,39.47,38.31,0
42,39.52,38.34,0
44,39.61,38.40,0
42,39.66,38.44,0
40,39.66,38.45,0
40,39.67,38.47,0
41,39.70,38.49,0
42,39.74,38.53,0
45,39.85,38.59,0
44,39.93,38.65,0
42,39.97,38.68,0
44,40.05,38.73,0
44,40.13,38.79,0
42,40.17,38.82,0
42,40.21,38.85,0
43,40.26,38.89,0
41,40.28,38.91,0
42,40.31,38.94,0
41,40.33,38.96,0
44,40.40,39.01,0
44,40.47,39.06,0
42,40.50,39.09,0
43,40.55,39.13,0
44,40.62,39.18,0
44,40.69,39.23,0
41,40.69,39.25,0
45,40.78,39.31,0
42,40.81,39.33,0
45,40.89,39.39,0
42,40.91,39.41,0
42,40.93,39.44,0
44,40.99,39.49,0
43,41.03,39.52,0
44,41.09,39.57,0
42,41.11,39.59,0
45,41.19,39.64,0
44,41.25,39.69,0
42,41.26,39.71,0
43,41.30,39.74,0
45,41.37,39.80,0
44,41.42,39.84,0
44,41.47,39.88,0
44,41.52,39.92,0
44,41.57,39.96,0
44,41.62,40.00,0
44,41.67,40.04,0
44,41.72,40.08,0
44,41.76,40.12,0
45,41.83,40.17,0
47,41.93,40.24,0
46,42.01,40.30,0
45,42.07,40.34,0
46,42.15,40.40,0
44,42.19,40.44,0
44,42.22,40.47,0
45,42.28,40.52,0
46,42.35,40.57,0
46,42.43,40.63,0
44,42.46,40.66,0
47,42.55,40.72,0
46,42.62,40.78,0
50,42.77,40.87,0
46,42.83,40.92,0
46,42.89,40.97,0
47,42.98,41.03,0
48,43.08,41.10,0
50,43.21,41.19,0
49,43.33,41.27,0
48,43.42,41.33,0
46,43.48,41.38,0
46,43.53,41.43,0
49,43.64,41.50,0
48,43.72,41.57,0
48,43.81,41.63,0
47,43.87,41.69,0
49,43.97,41.76,0
46,44.01,41.80,0
48,44.09,41.86,0
47,44.15,41.92,0
50,44.27,42.00,0
52,44.42,42.10,0
52,44.58,42.19,0
52,44.72,42.29,0
51,44.85,42.38,0
50,44.95,42.46,0
50,45.05,42.53,0
52,45.19,42.63,0
50,45.29,42.70,0
52,45.42,42.79,0
55,45.61,42.92,0
58,45.86,43.07,0
54,46.03,43.18,0
52,46.14,43.26,0
54,46.30,43.37,0
54,46.46,43.48,0
56,46.65,43.60,0
52,46.75,43.69,0
56,46.94,43.81,0
57,47.14,43.94,0
60,47.40,44.10,0
54,47.53,44.20,0
56,47.70,44.32,0
57,47.88,44.45,0
58,48.09,44.58,0
56,48.25,44.70,0
58,48.44,44.83,0
58,48.63,44.96,0
59,48.84,45.10,0
57,49.00,45.22,0
58,49.18,45.35,0
58,49.36,45.47,0
60,49.57,45.62,0
60,49.78,45.76,0
62,50.02,45.93,0
64,50.30,46.11,0
63,50.56,46.28,0
61,50.77,46.42,0
60,50.95,46.56,0
61,51.15,46.70,0
60,51.33,46.84,0
64,51.58,47.01,0
62,51.79,47.16,0
64,52.03,47.33,0
64,52.27,47.49,0
64,52.51,47.66,0
61,52.68,47.79,0
61,52.85,47.92,0
61,53.01,48.05,0
61,53.17,48.18,0
65,53.40,48.35,0
62,53.58,48.49,0
63,53.76,48.63,0
61,53.91,48.76,0
60,54.03,48.87,0
62,54.19,49.00,0
61,54.33,49.12,0
62,54.48,49.25,0
64,54.67,49.40,0
62,54.82,49.52,0
65,55.02,49.68,0
68,55.28,49.86,0
64,55.46,50.00,0
68,55.71,50.18,0
71,56.01,50.39,0
68,56.25,50.57,0
64,56.41,50.70,0
66,56.60,50.85,0
66,56.79,51.01,0
70,57.05,51.20,0
72,57.35,51.40,0
74,57.68,51.63,0
73,57.99,51.84,0
70,58.23,52.02,0
74,58.54,52.24,0
70,58.77,52.42,0
76,59.12,52.66,0
74,59.42,52.87,0
74,59.71,53.08,0
76,60.03,53.31,0
72,60.27,53.50,0
76,60.59,53.72,0
82,61.02,54.01,0
78,61.36,54.25,0
76,61.65,54.46,0
74,61.90,54.66,0
78,62.22,54.89,0
79,62.55,55.13,0
79,62.88,55.37,0
75,63.12,55.57,0
76,63.38,55.77,0
79,63.69,56.00,0
81,64.04,56.25,0
81,64.38,56.50,0
82,64.73,56.76,0
79,65.02,56.98,0
80,65.32,57.21,0
79,65.59,57.43,0
78,65.84,57.63,0
89,66.30,57.95,0
94,66.86,58.31,0
95,67.42,58.67,0
86,67.79,58.95,0
88,68.19,59.24,0
90,68.63,59.55,0
92,69.10,59.87,0
94,69.60,60.21,0
86,69.92,60.47,0
94,70.41,60.81,0
96,70.92,61.16,0
92,71.34,61.47,0
90,71.71,61.75,0
90,72.08,62.03,0
87,72.38,62.28,0
90,72.73,62.56,0
92,73.11,62.85,0
94,73.53,63.17,0
96,73.98,63.49,0
93,74.36,63.79,0
93,74.73,64.08,0
101,75.26,64.45,0
97,75.69,64.78,0
97,76.12,65.10,0
101,76.62,65.46,0
103,77.15,65.83,0
101,77.62,66.18,0
96,77.99,66.48,0
111,78.65,66.93,0
114,79.36,67.40,0
107,79.91,67.79,0
103,80.37,68.15,0
107,80.91,68.54,0
105,81.39,68.90,0
104,81.84,69.25,0
106,82.32,69.62,0
116,83.00,70.08,0
110,83.54,70.48,0
109,84.05,70.87,0
113,84.62,71.29,0
111,85.15,71.69,0
109,85.63,72.06,0
107,86.06,72.41,0
108,86.50,72.76,0
109,86.95,73.13,0
109,87.39,73.48,0
111,87.86,73.86,0
107,88.24,74.19,0
109,88.66,74.54,0
113,89.14,74.92,0
109,89.54,75.26,0
112,89.99,75.63,0
111,90.41,75.99,0
111,90.82,76.34,0
115,91.31,76.72,0
113,91.74,77.09,0
111,92.12,77.42,0
125,92.78,77.90,0
129,93.51,78.41,0
131,94.26,78.94,0
118,94.73,79.33,0
126,95.36,79.79,0
126,95.97,80.26,0
125,96.55,80.70,0
124,97.10,81.14,0
125,97.66,81.58,0
121,98.12,81.97,0
127,98.70,82.42,0
121,99.15,82.81,0
125,99.66,83.23,0
129,100.25,83.69,0
126,100.77,84.11,0
128,101.31,84.55,0
126,101.80,84.96,0
130,102.37,85.41,0
134,103.00,85.90,0
126,103.46,86.30,0
131,104.01,86.75,0
133,104.59,87.21,0
133,105.16,87.67,0
132,105.70,88.11,0
136,106.30,88.59,0
143,107.04,89.13,0
136,107.62,89.60,0
142,108.30,90.13,0
134,108.82,90.56,0
145,109.54,91.11,0
143,110.21,91.63,0
139,110.79,92.10,0
138,111.33,92.56,0
147,112.04,93.10,0
142,112.64,93.59,0
148,113.35,94.14,0
148,114.04,94.68,0
141,114.58,95.14,0
141,115.11,95.60,0
144,115.69,96.08,0
144,116.25,96.56,0
144,116.81,97.04,0
142,117.31,97.49,0
146,117.89,97.97,0
146,118.45,98.45,0
148,119.04,98.95,0
150,119.66,99.46,0
147,120.21,99.93,0
144,120.68,100.37,0
149,121.25,100.86,0
159,122.00,101.44,0
147,122.50,101.90,0
145,122.95,102.33,0
147,123.43,102.77,0
148,123.93,103.23,0
147,124.39,103.66,0
149,124.88,104.12,0
148,125.34,104.56,0
148,125.80,104.99,0
147,126.22,105.41,0
148,126.65,105.84,0
147,127.06,106.25,0
149,127.50,106.68,0
148,127.91,107.09,0
145,128.25,107.47,0
146,128.61,107.85,0
149,129.02,108.27,0
149,129.41,108.67,0
146,129.75,109.05,0
148,130.11,109.44,0
152,130.55,109.86,0
149,130.92,110.25,0
146,131.22,110.61,0
145,131.50,110.95,0
146,131.79,111.30,0
153,132.21,111.72,0
149,132.55,112.09,0
149,132.87,112.46,0
149,133.20,112.83,0
148,133.49,113.18,0
147,133.76,113.52,0
146,134.01,113.84,0
148,134.29,114.18,0
146,134.52,114.50,0
147,134.77,114.83,0
149,135.06,115.17,0
149,135.34,115.51,0
147,135.57,115.82,0
145,135.76,116.11,0
145,135.94,116.40,0
145,136.12,116.69,0
145,136.30,116.97,0
147,136.51,117.27,0
145,136.68,117.55,0
145,136.85,117.82,0
144,136.99,118.09,0
144,137.13,118.35,0
143,137.25,118.59,0
144,137.39,118.85,0
144,137.52,119.10,0
143,137.63,119.34,0
143,137.74,119.57,0
143,137.84,119.81,0
141,137.90,120.02,0
143,138.01,120.25,0
143,138.11,120.48,0
143,138.20,120.70,0
143,138.30,120.92,0
143,138.39,121.15,0
142,138.47,121.35,0
143,138.56,121.57,0
143,138.65,121.78,0
141,138.69,121.98,0
141,138.74,122.17,0
141,138.78,122.36,0
142,138.85,122.55,0
142,138.91,122.75,0
141,138.95,122.93,0
141,138.99,123.11,0
139,138.99,123.27,0
141,139.03,123.45,0
141,139.07,123.62,0
140,139.09,123.79,0
139,139.09,123.94,0
141,139.13,124.11,0
139,139.13,124.26,0
140,139.14,124.41,0
138,139.12,124.55,0
137,139.08,124.67,0
137,139.04,124.80,0
139,139.04,124.94,0
138,139.02,125.07,0
138,138.99,125.20,0
138,138.97,125.33,0
137,138.94,125.44,0
139,138.94,125.58,0
137,138.90,125.69,0
138,138.88,125.82,0
137,138.84,125.93,0
137,138.81,126.04,0
137,138.77,126.15,0
135,138.69,126.24,0
137,138.66,126.35,0
138,138.65,126.46,0
135,138.57,126.55,0
136,138.52,126.64,0
136,138.47,126.74,0
135,138.40,126.82,0
137,138.37,126.92,0
136,138.33,127.01,0
135,138.26,127.09,0
134,138.18,127.16,0
135,138.11,127.24,0
135,138.05,127.32,0
134,137.97,127.38,0
134,137.89,127.45,0
133,137.79,127.50,0
133,137.70,127.56,0
134,137.62,127.62,0
133,137.53,127.68,0
133,137.44,127.73,0
133,137.35,127.78,0
132,137.24,127.83,0
131,137.12,127.86,0
132,137.02,127.90,0
132,136.92,127.94,0
131,136.80,127.97,0
131,136.68,128.00,0
131,136.57,128.03,0
131,136.46,128.06,0
131,136.35,128.09,0
130,136.22,128.11,0
130,136.10,128.13,0
131,135.99,128.16,0
129,135.85,128.17,0
131,135.76,128.19,0
129,135.62,128.20,0
129,135.49,128.21,0
129,135.36,128.22,0
129,135.23,128.23,0
129,135.11,128.23,0
128,134.97,128.23,0
128,134.83,128.23,0
128,134.69,128.23,0
129,134.58,128.23,0
128,134.44,128.23,0
127,134.30,128.22,0
128,134.17,128.22,0
127,134.03,128.20,0
126,133.87,128.18,0
127,133.73,128.17,0
127,133.59,128.16,0
127,133.46,128.15,0
125,133.29,128.12,0
126,133.15,128.10,0
126,133.00,128.07,0
124,132.82,128.03,0
125,132.67,128.00,0
126,132.53,127.98,0
125,132.38,127.95,0
125,132.24,127.92,0
125,132.09,127.89,0
125,131.95,127.87,0
126,131.83,127.85,0
125,131.69,127.82,0
125,131.56,127.79,0
125,131.43,127.76,0
125,131.30,127.73,0
125,131.17,127.71,0
124,131.03,127.67,0
124,130.89,127.63,0
124,130.75,127.60,0
123,130.60,127.55,0
123,130.45,127.51,0
123,130.30,127.46,0
123,130.15,127.42,0
123,130.01,127.37,0
123,129.87,127.33,0
123,129.73,127.28,0
123,129.60,127.24,0
121,129.42,127.18,0
121,129.25,127.12,0
121,129.09,127.06,0
121,128.93,127.00,0
121,128.77,126.94,0
121,128.61,126.88,0
121,128.46,126.82,0
121,128.31,126.76,0
123,128.21,126.72,0
121,128.06,126.67,0
121,127.92,126.61,0
121,127.78,126.55,0
120,127.63,126.49,0
120,127.47,126.42,0
120,127.32,126.36,0
123,127.24,126.32,0
119,127.07,126.25,0
119,126.91,126.18,0
119,126.75,126.11,0
117,126.56,126.02,0
119,126.41,125.95,0
119,126.26,125.88,0
118,126.09,125.80,0
118,125.93,125.72,0
117,125.75,125.63,0
118,125.60,125.56,0
117,125.43,125.47,0
116,125.24,125.38,0
117,125.07,125.29,0
116,124.89,125.20,0
117,124.73,125.12,0
115,124.54,125.02,0
116,124.37,124.93,0
115,124.18,124.83,0
116,124.02,124.74,0
115,123.84,124.64,0
116,123.68,124.55,0
114,123.49,124.45,0
114,123.30,124.34,0
116,123.15,124.26,0
117,123.03,124.19,0
113,122.83,124.08,0
115,122.67,123.99,0
114,122.50,123.89,0
114,122.33,123.79,0
113,122.14,123.68,0
113,121.96,123.57,0
113,121.78,123.47,0
113,121.60,123.36,0
113,121.43,123.26,0
113,121.26,123.16,0
113,121.10,123.05,0
113,120.94,122.95,0
113,120.78,122.85,0
111,120.58,122.74,0
112,120.41,122.63,0
114,120.28,122.54,0
115,120.18,122.47,0
112,120.01,122.36,0
116,119.93,122.30,0
113,119.79,122.21,0
114,119.68,122.12,0
111,119.50,122.01,0
112,119.35,121.91,0
113,119.23,121.82,0
112,119.08,121.72,0
112,118.94,121.63,0
112,118.80,121.53,0
111,118.65,121.43,0
111,118.49,121.32,0
111,118.34,121.22,0
111,118.20,121.12,0
111,118.05,121.01,0
110,117.89,120.90,0
112,117.77,120.82,0
109,117.60,120.70,0
109,117.43,120.58,0
109,117.26,120.46,0
109,117.09,120.35,0
109,116.93,120.24,0
109,116.77,120.12,0
109,116.62,120.01,0
109,116.46,119.90,0
109,116.31,119.79,0
108,116.15,119.68,0
110,116.03,119.58,0
109,115.89,119.47,0
108,115.73,119.36,0
109,115.59,119.25,0
109,115.46,119.15,0
107,115.29,119.03,0
109,115.17,118.93,0
108,115.02,118.82,0
108,114.88,118.71,0
108,114.74,118.61,0
110,114.65,118.52,0
107,114.50,118.40,0
107,114.35,118.29,0
108,114.22,118.19,0
107,114.08,118.08,0
105,113.89,117.94,0
107,113.76,117.84,0
107,113.62,117.73,0
106,113.47,117.61,0
106,113.32,117.49,0
107,113.19,117.39,0
107,113.07,117.28,0
106,112.93,117.17,0
105,112.77,117.05,0
107,112.65,116.95,0
105,112.50,116.83,0
106,112.37,116.72,0
106,112.24,116.61,0
105,112.10,116.50,0
105,111.96,116.38,0
105,111.82,116.27,0
104,111.66,116.15,0
105,111.53,116.04,0
105,111.40,115.93,0
105,111.27,115.82,0
105,111.14,115.71,0
106,111.04,115.61,0
102,110.86,115.47,0
105,110.74,115.37,0
104,110.61,115.26,0
101,110.42,115.11,0
104,110.29,115.00,0
103,110.14,114.88,0
103,110.00,114.76,0
103,109.86,114.65,0
103,109.72,114.53,0
103,109.59,114.41,0
103,109.46,114.30,0
102,109.31,114.18,0
102,109.16,114.06,0
102,109.02,113.93,0
101,108.86,113.81,0
101,108.70,113.68,0
103,108.59,113.57,0
101,108.43,113.45,0
102,108.31,113.33,0
101,108.16,113.21,0
101,108.02,113.09,0
99,107.84,112.94,0
99,107.66,112.80,0
100,107.51,112.68,0
100,107.36,112.55,0
101,107.23,112.43,0
102,107.12,112.33,0
101,107.00,112.22,0
101,106.88,112.10,0
101,106.76,111.99,0
99,106.61,111.86,0
100,106.48,111.75,0
100,106.35,111.63,0
100,106.22,111.51,0
100,106.10,111.40,0
99,105.95,111.27,0
99,105.81,111.15,0
99,105.68,111.03,0
99,105.54,110.91,0
98,105.39,110.78,0
100,105.29,110.67,0
99,105.16,110.55,0
98,105.02,110.43,0
99,104.90,110.31,0
98,104.76,110.19,0
98,104.62,110.07,0
98,104.49,109.95,0
98,104.36,109.83,0
96,104.19,109.69,0
97,104.05,109.56,0
98,103.93,109.45,0
96,103.77,109.31,0
95,103.60,109.17,0
96,103.44,109.04,0
97,103.31,108.92,0
95,103.15,108.78,0
95,102.99,108.64,0
96,102.85,108.52,0
95,102.69,108.38,0
96,102.55,108.26,0
96,102.42,108.13,0
94,102.26,107.99,0
95,102.11,107.86,0
96,101.99,107.74,0
95,101.85,107.62,0
96,101.73,107.50,0
95,101.60,107.38,0
95,101.46,107.25,0
94,101.32,107.12,0
94,101.17,106.99,0
95,101.05,106.87,0
94,100.90,106.74,0
94,100.77,106.61,0
94,100.63,106.49,0
93,100.48,106.35,0
94,100.35,106.23,0
95,100.24,106.12,0
94,100.12,105.99,0
93,99.97,105.86,0
91,99.80,105.72,0
93,99.66,105.59,0
93,99.53,105.46,0
93,99.40,105.34,0
93,99.27,105.21,0
93,99.14,105.09,0
93,99.02,104.97,0
93,98.90,104.85,0
93,98.78,104.73,0
91,98.63,104.60,0
92,98.49,104.47,0
92,98.36,104.35,0
92,98.24,104.22,0
92,98.11,104.10,0
92,97.99,103.98,0
93,97.89,103.87,0
93,97.79,103.76,0
91,97.66,103.63,0
91,97.52,103.51,0
92,97.41,103.39,0
93,97.32,103.29,0
93,97.24,103.18,0
92,97.13,103.07,0
91,97.01,102.95,0
91,96.89,102.83,0
91,96.77,102.71,0
90,96.64,102.59,0
91,96.52,102.47,0
92,96.43,102.37,0
91,96.32,102.25,0
91,96.22,102.14,0
91,96.11,102.03,0
90,95.99,101.91,0
90,95.87,101.79,0
93,95.81,101.70,0
88,95.66,101.56,0
91,95.56,101.46,0
90,95.45,101.34,0
90,95.34,101.23,0
90,95.24,101.12,0
90,95.13,101.01,0
91,95.05,100.91,0
91,94.97,100.81,0
89,94.85,100.69,0
90,94.75,100.58,0
89,94.64,100.47,0
89,94.53,100.35,0
91,94.45,100.26,0
89,94.35,100.15,0
90,94.26,100.04,0
89,94.15,99.93,0
90,94.07,99.84,0
89,93.97,99.73,0
89,93.87,99.62,0
88,93.75,99.50,0
88,93.64,99.39,0
88,93.52,99.27,0
88,93.41,99.16,0
88,93.31,99.05,0
89,93.22,98.95,0
88,93.12,98.84,0
87,92.99,98.72,0
88,92.89,98.61,0
87,92.78,98.50,0
87,92.66,98.38,0
88,92.57,98.28,0
86,92.44,98.16,0
86,92.31,98.04,0
86,92.18,97.91,0
88,92.10,97.82,0
87,91.99,97.71,0
87,91.89,97.60,0
88,91.82,97.50,0
86,91.70,97.39,0
85,91.57,97.27,0
88,91.50,97.17,0
86,91.39,97.06,0
86,91.28,96.95,0
86,91.17,96.84,0
86,91.07,96.73,0
87,90.99,96.64,0
85,90.87,96.52,0
86,90.77,96.41,0
85,90.65,96.30,0
86,90.56,96.20,0
82,90.39,96.05,0
86,90.30,95.95,0
86,90.22,95.85,0
85,90.11,95.75,0
88,90.07,95.67,0
84,89.95,95.55,0
84,89.83,95.44,0
84,89.71,95.32,0
84,89.60,95.21,0
84,89.49,95.10,0
84,89.38,94.99,0
84,89.27,94.88,0
85,89.18,94.78,0
84,89.08,94.67,0
83,88.96,94.55,0
84,88.86,94.45,0
85,88.78,94.35,0
84,88.69,94.25,0
84,88.59,94.15,0
86,88.54,94.07,0
84,88.45,93.96,0
83,88.34,93.85,0
83,88.23,93.75,0
84,88.15,93.65,0
84,88.07,93.55,0
82,87.95,93.44,0
82,87.83,93.32,0
82,87.71,93.21,0
84,87.64,93.12,0
84,87.56,93.03,0
82,87.45,92.92,0
84,87.38,92.83,0
82,87.28,92.72,0
82,87.17,92.61,0
82,87.07,92.50,0
82,86.97,92.40,0
82,86.87,92.30,0
82,86.77,92.19,0
82,86.67,92.09,0
81,86.56,91.98,0
82,86.47,91.88,0
82,86.38,91.78,0
82,86.29,91.68,0
82,86.21,91.59,0
82,86.12,91.49,0
82,86.04,91.40,0
80,85.92,91.28,0
81,85.82,91.18,0
82,85.74,91.09,0
82,85.67,91.00,0
82,85.60,90.91,0
82,85.52,90.82,0
81,85.43,90.72,0
82,85.36,90.63,0
81,85.28,90.54,0
82,85.21,90.45,0
81,85.13,90.36,0
80,85.02,90.25,0
82,84.96,90.17,0
81,84.88,90.08,0
81,84.81,89.99,0
82,84.75,89.91,0
79,84.64,89.80,0
81,84.56,89.71,0
81,84.49,89.62,0
80,84.40,89.53,0
82,84.35,89.45,0
80,84.27,89.36,0
82,84.22,89.28,0
80,84.14,89.19,0
78,84.01,89.08,0
80,83.93,88.99,0
80,83.86,88.90,0
80,83.78,88.81,0
79,83.68,88.71,0
80,83.61,88.62,0
78,83.50,88.52,0
80,83.43,88.43,0
79,83.34,88.34,0
79,83.25,88.25,0
78,83.15,88.14,0
81,83.10,88.07,0
82,83.08,88.01,0
80,83.02,87.93,0
80,82.96,87.85,0
81,82.92,87.78,0
78,82.82,87.68,0
79,82.75,87.60,0
78,82.65,87.50,0
80,82.60,87.43,0
79,82.53,87.34,0
79,82.46,87.26,0
79,82.39,87.18,0
79,82.32,87.09,0
79,82.25,87.01,0
79,82.19,86.93,0
82,82.18,86.88,0
78,82.10,86.80,0
79,82.04,86.72,0
82,82.04,86.67,0
82,82.04,86.62,0
78,81.96,86.54,0
78,81.88,86.45,0
78,81.80,86.37,0
78,81.72,86.28,0
78,81.65,86.20,0
78,81.58,86.12,0
79,81.52,86.05,0
78,81.45,85.97,0
78,81.38,85.89,0
78,81.32,85.81,0
78,81.25,85.73,0
77,81.17,85.64,0
79,81.12,85.58,0
79,81.08,85.51,0
75,80.96,85.41,0
77,80.88,85.32,0
77,80.80,85.24,0
78,80.75,85.17,0
77,80.67,85.08,0
79,80.64,85.02,0
78,80.58,84.95,0
78,80.53,84.88,0
76,80.44,84.80,0
77,80.37,84.72,0
78,80.33,84.65,0
78,80.28,84.58,0
77,80.21,84.51,0
77,80.15,84.43,0
77,80.09,84.36,0
78,80.04,84.29,0
79,80.02,84.24,0
77,79.96,84.17,0
78,79.92,84.11,0
78,79.89,84.05,0
79,79.87,84.00,0
78,79.83,83.94,0
77,79.77,83.87,0
76,79.70,83.79,0
77,79.64,83.72,0
77,79.59,83.65,0
76,79.52,83.58,0
78,79.49,83.52,0
76,79.42,83.45,0
78,79.39,83.39,0
78,79.36,83.34,0
76,79.30,83.26,0
77,79.25,83.20,0
76,79.19,83.13,0
75,79.10,83.05,0
76,79.04,82.98,0
76,78.98,82.91,0
76,78.92,82.84,0
76,78.86,82.77,0
76,78.80,82.70,0
76,78.75,82.64,0
75,78.67,82.56,0
74,78.58,82.47,0
75,78.51,82.40,0
76,78.46,82.33,0
75,78.39,82.26,0
74,78.30,82.18,0
74,78.21,82.10,0
74,78.13,82.02,0
75,78.07,81.95,0
74,77.99,81.87,0
75,77.93,81.80,0
75,77.87,81.73,0
74,77.79,81.65,0
74,77.71,81.58,0
74,77.64,81.50,0
74,77.57,81.43,0
74,77.50,81.35,0
74,77.43,81.28,0
73,77.34,81.19,0
75,77.29,81.13,0
74,77.23,81.06,0
74,77.16,80.99,0
74,77.10,80.92,0
74,77.04,80.85,0
74,76.97,80.78,0
74,76.92,80.72,0
74,76.86,80.65,0
73,76.78,80.57,0
74,76.72,80.51,0
72,76.63,80.42,0
73,76.56,80.35,0
74,76.51,80.28,0
72,76.42,80.20,0
72,76.33,80.12,0
73,76.26,80.05,0
72,76.18,79.97,0
72,76.09,79.89,0
72,76.01,79.81,0
72,75.93,79.73,0
72,75.85,79.65,0
74,75.81,79.60,0
72,75.74,79.52,0
72,75.66,79.45,0
71,75.57,79.36,0
72,75.50,79.29,0
72,75.43,79.21,0
71,75.34,79.13,0
72,75.27,79.06,0
73,75.23,79.00,0
72,75.16,78.93,0
72,75.10,78.86,0
72,75.04,78.79,0
72,74.98,78.72,0
72,74.92,78.66,0
72,74.86,78.59,0
71,74.78,78.51,0
72,74.73,78.45,0
72,74.67,78.39,0
76,74.70,78.36,0
75,74.70,78.33,0
72,74.65,78.26,0
72,74.60,78.20,0
71,74.53,78.13,0
73,74.50,78.08,0
72,74.45,78.02,0
70,74.36,77.94,0
71,74.29,77.87,0
72,74.24,77.81,0
72,74.20,77.75,0
70,74.11,77.67,0
70,74.03,77.60,0
69,73.93,77.51,0
70,73.85,77.44,0
70,73.78,77.36,0
66,73.62,77.25,0
71,73.57,77.19,0
71,73.52,77.12,0
70,73.45,77.05,0
70,73.38,76.98,0
71,73.33,76.92,0
73,73.32,76.88,0
72,73.30,76.83,0
70,73.23,76.77,0
72,73.21,76.72,0
70,73.14,76.65,0
70,73.08,76.58,0
70,73.02,76.52,0
72,73.00,76.47,0
70,72.94,76.41,0
70,72.88,76.34,0
70,72.82,76.28,0
70,72.76,76.22,0
70,72.71,76.16,0
69,72.64,76.08,0
70,72.58,76.02,0
69,72.51,75.95,0
70,72.46,75.89,0
70,72.41,75.83,0
70,72.36,75.78,0
70,72.32,75.72,0
69,72.25,75.65,0
70,72.20,75.60,0
70,72.16,75.54,0
71,72.14,75.49,0
69,72.07,75.43,0
70,72.03,75.37,0
70,71.99,75.32,0
68,71.91,75.25,0
70,71.87,75.20,0
68,71.80,75.12,0
68,71.72,75.05,0
70,71.69,75.00,0
70,71.65,74.95,0
70,71.62,74.90,0
68,71.55,74.83,0
69,71.50,74.77,0
68,71.43,74.71,0
69,71.38,74.65,0
70,71.35,74.60,0
70,71.32,74.56,0
70,71.30,74.51,0
70,71.27,74.47,0
70,71.25,74.42,0
70,71.22,74.38,0
70,71.20,74.33,0
70,71.17,74.29,0
70,71.15,74.25,0
70,71.13,74.21,0
70,71.10,74.16,0
69,71.06,74.11,0
70,71.04,74.07,0
70,71.02,74.03,0
70,71.00,73.99,0
70,70.98,73.95,0
69,70.94,73.90,0
70,70.92,73.86,0
69,70.88,73.81,0
70,70.86,73.77,0
69,70.83,73.73,0
70,70.81,73.69,0
75,70.89,73.70,0
70,70.88,73.67,0
69,70.84,73.62,0
69,70.80,73.57,0
70,70.79,73.54,0
68,70.73,73.48,0
69,70.70,73.44,0
70,70.68,73.40,0
72,70.71,73.39,0
68,70.65,73.33,0
69,70.62,73.29,0
71,70.63,73.27,0
68,70.58,73.22,0
68,70.52,73.16,0
68,70.47,73.11,0
69,70.44,73.07,0
69,70.42,73.03,0
68,70.37,72.98,0
68,70.32,72.93,0
68,70.27,72.88,0
66,70.19,72.81,0
68,70.14,72.76,0
68,70.10,72.72,0
68,70.06,72.67,0
72,70.10,72.66,0
68,70.06,72.62,0
67,70.00,72.56,0
67,69.94,72.50,0
67,69.88,72.45,0
66,69.80,72.38,0
67,69.74,72.33,0
68,69.71,72.29,0
69,69.69,72.25,0
70,69.70,72.23,0
67,69.65,72.18,0
69,69.63,72.15,0
69,69.62,72.12,0
68,69.59,72.07,0
68,69.56,72.03,0
68,69.53,71.99,0
68,69.49,71.95,0
68,69.46,71.91,0
66,69.40,71.86,0
68,69.37,71.82,0
68,69.34,71.78,0
68,69.31,71.74,0
68,69.29,71.70,0
67,69.24,71.66,0
66,69.18,71.60,0
64,69.07,71.52,0
66,69.01,71.47,0
67,68.97,71.42,0
66,68.91,71.37,0
66,68.85,71.32,0
66,68.80,71.26,0
69,68.80,71.24,0
67,68.76,71.20,0
66,68.71,71.15,0
68,68.70,71.11,0
68,68.68,71.08,0
66,68.63,71.03,0
66,68.58,70.98,0
68,68.56,70.95,0
69,68.57,70.93,0
67,68.54,70.89,0
68,68.53,70.86,0
68,68.52,70.84,0
67,68.49,70.80,0
67,68.46,70.76,0
68,68.45,70.73,0
68,68.44,70.70,0
68,68.43,70.68,0
67,68.40,70.64,0
68,68.40,70.61,0
70,68.43,70.61,0
71,68.48,70.61,0
70,68.51,70.61,0
68,68.50,70.58,0
68,68.49,70.55,0
70,68.52,70.55,0
68,68.51,70.52,0
68,68.50,70.50,0
68,68.49,70.47,0
67,68.46,70.44,0
68,68.45,70.41,0
70,68.48,70.41,0
68,68.47,70.39,0
67,68.44,70.35,0
68,68.43,70.33,0
68,68.42,70.30,0
68,68.42,70.28,0
67,68.39,70.25,0
66,68.34,70.21,0
67,68.31,70.17,0
68,68.31,70.15,0
70,68.34,70.15,0
68,68.33,70.13,0
68,68.33,70.11,0
68,68.32,70.09,0
70,68.35,70.09,0
68,68.35,70.07,0
68,68.34,70.04,0
67,68.31,70.01,0
67,68.29,69.98,0
68,68.28,69.96,0
70,68.32,69.96,0
71,68.37,69.98,0
69,68.38,69.97,0
68,68.37,69.95,0
68,68.37,69.93,0
70,68.40,69.93,0
70,68.43,69.93,0
69,68.44,69.92,0
69,68.45,69.91,0
68,68.45,69.89,0
69,68.46,69.88,0
68,68.45,69.86,0
68,68.44,69.84,0
67,68.41,69.82,0
68,68.40,69.80,0
68,68.39,69.78,0
68,68.39,69.76,0
68,68.38,69.74,0
69,68.39,69.74,0
70,68.42,69.74,0
69,68.43,69.73,0
68,68.43,69.71,0
72,68.50,69.74,0
68,68.49,69.72,0
68,68.48,69.70,0
70,68.51,69.71,0
75,68.64,69.76,0
74,68.74,69.80,0
70,68.77,69.80,0
72,68.83,69.82,0
74,68.94,69.87,0
72,69.00,69.89,0
72,69.06,69.91,0
70,69.08,69.91,0
72,69.14,69.93,0
70,69.15,69.93,0
72,69.21,69.95,0
74,69.31,69.99,0
73,69.38,70.02,0
74,69.47,70.06,0
74,69.56,70.10,0
72,69.61,70.12,0
73,69.68,70.15,0
72,69.73,70.17,0
72,69.77,70.19,0
72,69.82,70.20,0
72,69.86,70.22,0
72,69.90,70.24,0
72,69.94,70.26,0
72,69.99,70.28,0
72,70.03,70.29,0
73,70.09,70.32,0
72,70.12,70.34,0
72,70.16,70.35,0
73,70.22,70.38,0
74,70.29,70.42,0
72,70.33,70.43,0
73,70.38,70.46,0
73,70.43,70.48,0
71,70.44,70.49,0
72,70.48,70.50,0
74,70.55,70.54,0
74,70.62,70.57,0
74,70.68,70.61,0
72,70.71,70.62,0
72,70.74,70.63,0
75,70.82,70.68,0
76,70.92,70.73,0
74,70.99,70.76,0
76,71.09,70.82,0
77,71.20,70.88,0
74,71.26,70.91,0
78,71.40,70.98,0
76,71.49,71.03,0
75,71.56,71.07,0
76,71.65,71.12,0
76,71.73,71.17,0
74,71.78,71.20,0
74,71.82,71.22,0
74,71.87,71.25,0
74,71.91,71.28,0
74,71.95,71.31,0
74,71.99,71.33,0
74,72.03,71.36,0
73,72.05,71.38,0
76,72.13,71.42,0
77,72.23,71.48,0
74,72.26,71.50,0
74,72.30,71.53,0
75,72.35,71.56,0
77,72.45,71.62,0
74,72.48,71.64,0
74,72.51,71.67,0
77,72.60,71.72,0
74,72.62,71.74,0
79,72.75,71.81,0
78,72.86,71.88,0
79,72.98,71.95,0
78,73.08,72.01,0
76,73.14,72.05,0
78,73.24,72.11,0
84,73.45,72.23,0
82,73.62,72.32,0
79,73.73,72.39,0
80,73.86,72.47,0
78,73.94,72.52,0
80,74.06,72.60,0
83,74.24,72.70,0
79,74.33,72.76,0
85,74.55,72.89,0
84,74.74,73.00,0
84,74.92,73.11,0
82,75.06,73.20,0
84,75.24,73.30,0
82,75.38,73.39,0
85,75.57,73.51,0
86,75.78,73.63,0
84,75.94,73.74,0
82,76.06,73.82,0
81,76.16,73.89,0
81,76.26,73.96,0
81,76.35,74.03,0
81,76.45,74.10,0
82,76.56,74.18,0
87,76.77,74.31,0
87,76.97,74.44,0
83,77.09,74.52,0
86,77.27,74.64,0
84,77.40,74.73,0
84,77.54,74.82,0
85,77.69,74.92,0
84,77.81,75.02,0
84,77.94,75.11,0
84,78.06,75.19,0
87,78.24,75.31,0
85,78.37,75.41,0
84,78.48,75.49,0
85,78.61,75.59,0
84,78.72,75.67,0
84,78.83,75.76,0
84,78.93,75.84,0
86,79.07,75.94,0
85,79.19,76.03,0
84,79.29,76.11,0
83,79.36,76.18,0
84,79.45,76.26,0
88,79.62,76.38,0
88,79.79,76.49,0
88,79.96,76.61,0
88,80.12,76.72,0
87,80.26,76.82,0
87,80.39,76.93,0
86,80.50,77.02,0
84,80.57,77.09,0
86,80.68,77.18,0
86,80.79,77.26,0
86,80.89,77.35,0
94,81.15,77.52,0
96,81.45,77.70,0
90,81.62,77.83,0
90,81.79,77.95,0
93,82.01,78.10,0
91,82.19,78.23,0
90,82.35,78.34,0
90,82.50,78.46,0
88,82.61,78.56,0
87,82.70,78.64,0
90,82.85,78.75,0
90,82.99,78.87,0
93,83.19,79.01,0
94,83.41,79.16,0
90,83.54,79.27,0
96,83.79,79.43,0
94,83.99,79.58,0
91,84.13,79.69,0
92,84.29,79.82,0
96,84.52,79.98,0
98,84.79,80.16,0
100,85.10,80.36,0
102,85.43,80.57,0
94,85.61,80.71,0
99,85.87,80.89,0
103,86.22,81.11,0
100,86.49,81.30,0
105,86.86,81.54,0
107,87.26,81.79,0
100,87.52,81.97,0
99,87.75,82.14,0
99,87.97,82.31,0
104,88.29,82.53,0
104,88.61,82.75,0
100,88.84,82.92,0
106,89.18,83.15,0
100,89.40,83.32,0
101,89.63,83.49,0
101,89.86,83.67,0
102,90.10,83.85,0
102,90.34,84.03,0
102,90.57,84.21,0
102,90.80,84.39,0
108,91.14,84.63,0
108,91.48,84.86,0
105,91.75,85.06,0
109,92.10,85.30,0
117,92.59,85.62,0
111,92.96,85.87,0
105,93.20,86.06,0
111,93.56,86.31,0
110,93.89,86.55,0
111,94.23,86.79,0
110,94.54,87.03,0
114,94.93,87.30,0
112,95.28,87.54,0
113,95.63,87.80,0
124,96.20,88.16,0
130,96.87,88.58,0
111,97.16,88.80,0
114,97.49,89.05,0
117,97.88,89.33,0
117,98.26,89.61,0
121,98.72,89.92,0
119,99.13,90.22,0
119,99.52,90.50,0
119,99.91,90.79,0
121,100.33,91.09,0
128,100.89,91.46,0
123,101.33,91.77,0
120,101.70,92.06,0
123,102.13,92.37,0
130,102.69,92.74,0
125,103.13,93.07,0
122,103.51,93.35,0
126,103.96,93.68,0
125,104.38,93.99,0
125,104.79,94.30,0
122,105.14,94.58,0
122,105.47,94.86,0
126,105.88,95.17,0
121,106.19,95.43,0
123,106.52,95.70,0
124,106.87,95.98,0
124,107.22,96.26,0
126,107.59,96.56,0
126,107.96,96.86,0
125,108.30,97.14,0
126,108.65,97.43,0
126,109.00,97.71,0
123,109.28,97.96,0
124,109.58,98.23,0
125,109.88,98.49,0
126,110.21,98.77,0
127,110.54,99.05,0
133,110.99,99.39,0
134,111.45,99.74,0
133,111.88,100.07,0
127,112.18,100.34,0
136,112.66,100.69,0
134,113.09,101.03,0
131,113.45,101.33,0
132,113.82,101.63,0
129,114.12,101.91,0
129,114.42,102.18,0
130,114.73,102.46,0
130,115.04,102.73,0
131,115.35,103.01,0
130,115.65,103.28,0
129,115.91,103.54,0
128,116.16,103.79,0
134,116.51,104.09,0
135,116.88,104.40,0
133,117.21,104.68,0
132,117.50,104.96,0
136,117.87,105.27,0
131,118.13,105.52,0
133,118.43,105.80,0
133,118.72,106.07,0
133,119.01,106.34,0
132,119.27,106.60,0
131,119.50,106.84,0
130,119.71,107.07,0
131,119.94,107.31,0
133,120.20,107.57,0
131,120.42,107.80,0
131,120.63,108.04,0
132,120.85,108.27,0
131,121.06,108.50,0
129,121.22,108.71,0
130,121.39,108.92,0
131,121.58,109.14,0
129,121.73,109.34,0
131,121.92,109.56,0
129,122.06,109.75,0
129,122.20,109.94,0
129,122.33,110.13,0
130,122.49,110.33,0
130,122.64,110.53,0
129,122.77,110.71,0
129,122.89,110.90,0
129,123.01,111.08,0
128,123.11,111.25,0
131,123.27,111.44,0
129,123.38,111.62,0
129,123.50,111.79,0
134,123.71,112.02,0
132,123.87,112.22,0
130,124.00,112.39,0
131,124.14,112.58,0
129,124.23,112.74,0
129,124.33,112.91,0
129,124.42,113.07,0
130,124.53,113.24,0
130,124.64,113.40,0
128,124.71,113.55,0
133,124.88,113.74,0
129,124.96,113.90,0
129,125.04,114.05,0
129,125.12,114.20,0
129,125.20,114.35,0
129,125.27,114.49,0
130,125.37,114.65,0
129,125.44,114.79,0
130,125.53,114.94,0
128,125.58,115.07,0
128,125.63,115.20,0
128,125.68,115.33,0
128,125.72,115.46,0
129,125.79,115.59,0
128,125.83,115.72,0
128,125.87,115.84,0
127,125.90,115.95,0
127,125.92,116.06,0
127,125.94,116.17,0
129,126.00,116.30,0
127,126.02,116.41,0
127,126.04,116.51,0
127,126.06,116.62,0
127,126.08,116.72,0
127,126.10,116.82,0
126,126.10,116.92,0
125,126.07,117.00,0
126,126.07,117.09,0
125,126.05,117.17,0
125,126.03,117.24,0
125,126.01,117.32,0
124,125.97,117.39,0
124,125.93,117.45,0
125,125.91,117.53,0
125,125.89,117.60,0
125,125.88,117.68,0
125,125.86,117.75,0
125,125.84,117.82,0
126,125.84,117.91,0
123,125.79,117.96,0
125,125.77,118.03,0
123,125.72,118.08,0
124,125.68,118.14,0
125,125.67,118.21,0
123,125.61,118.25,0
125,125.60,118.32,0
125,125.59,118.39,0
123,125.54,118.43,0
123,125.49,118.48,0
124,125.46,118.53,0
123,125.41,118.58,0
125,125.40,118.64,0
123,125.35,118.69,0
122,125.29,118.72,0
122,125.22,118.75,0
121,125.14,118.78,0
122,125.07,118.81,0
123,125.03,118.85,0
121,124.95,118.87,0
121,124.87,118.89,0
121,124.79,118.91,0
121,124.72,118.93,0
120,124.62,118.94,0
119,124.51,118.95,0
120,124.42,118.96,0
121,124.35,118.98,0
122,124.31,119.01,0
120,124.22,119.02,0
121,124.16,119.04,0
119,124.05,119.04,0
120,123.97,119.05,0
119,123.87,119.05,0
120,123.79,119.05,0
119,123.70,119.05,0
119,123.60,119.05,0
119,123.51,119.05,0
119,123.42,119.05,0
117,123.29,119.03,0
119,123.21,119.03,0
119,123.12,119.03,0
118,123.02,119.02,0
119,122.94,119.02,0
117,122.82,119.00,0
117,122.71,118.98,0
117,122.59,118.96,0
118,122.50,118.95,0
117,122.39,118.93,0
117,122.28,118.91,0
117,122.18,118.89,0
117,122.07,118.87,0
117,121.97,118.86,0
117,121.87,118.84,0
116,121.75,118.81,0
116,121.64,118.78,0
115,121.51,118.74,0
117,121.42,118.73,0
116,121.31,118.70,0
115,121.18,118.66,0
116,121.08,118.63,0
115,120.96,118.60,0
116,120.86,118.57,0
115,120.74,118.54,0
114,120.61,118.49,0
115,120.49,118.46,0
114,120.36,118.41,0
114,120.24,118.37,0
117,120.17,118.35,0
113,120.03,118.30,0
113,119.89,118.25,0
113,119.75,118.19,0
113,119.61,118.14,0
113,119.48,118.09,0
113,119.35,118.04,0
112,119.21,117.98,0
112,119.06,117.92,0
113,118.94,117.87,0
113,118.82,117.82,0
111,118.67,117.75,0
113,118.55,117.71,0
113,118.44,117.66,0
113,118.33,117.61,0
113,118.23,117.57,0
111,118.08,117.50,0
113,117.98,117.46,0
111,117.84,117.39,0
111,117.70,117.33,0
111,117.57,117.26,0
111,117.44,117.20,0
111,117.31,117.14,0
111,117.18,117.08,0
109,117.02,117.00,0
109,116.86,116.92,0
110,116.72,116.85,0
110,116.59,116.78,0
110,116.46,116.71,0
109,116.31,116.64,0
109,116.16,116.56,0
109,116.02,116.48,0
109,115.88,116.41,0
109,115.74,116.33,0
108,115.58,116.25,0
109,115.45,116.18,0
109,115.32,116.11,0
107,115.16,116.02,0
109,115.03,115.95,0
109,114.91,115.88,0
108,114.77,115.80,0
109,114.66,115.73,0
109,114.55,115.66,0
109,114.44,115.60,0
107,114.29,115.51,0
107,114.14,115.42,0
107,114.00,115.34,0
107,113.86,115.26,0
106,113.70,115.16,0
108,113.59,115.09,0
107,113.46,115.01,0
106,113.31,114.92,0
106,113.16,114.83,0
105,113.00,114.73,0
107,112.88,114.66,0
103,112.68,114.54,0
105,112.53,114.44,0
105,112.38,114.35,0
107,112.27,114.28,0
106,112.14,114.19,0
106,112.02,114.11,0
106,111.90,114.03,0
108,111.82,113.97,0
105,111.68,113.88,0
105,111.55,113.79,0
105,111.42,113.70,0
105,111.29,113.62,0
105,111.17,113.53,0
104,111.02,113.44,0
106,110.92,113.36,0
106,110.82,113.29,0
104,110.69,113.19,0
104,110.55,113.10,0
105,110.44,113.02,0
104,110.31,112.93,0
105,110.21,112.85,0
104,110.08,112.76,0
104,109.96,112.68,0
105,109.86,112.60,0
104,109.74,112.51,0
105,109.65,112.44,0
101,109.48,112.32,0
104,109.37,112.24,0
101,109.20,112.13,0
105,109.12,112.06,0
103,108.99,111.97,0
103,108.87,111.88,0
105,108.80,111.81,0
103,108.68,111.72,0
103,108.57,111.63,0
101,108.42,111.53,0
103,108.31,111.44,0
103,108.20,111.36,0
102,108.08,111.26,0
105,108.02,111.20,0
103,107.92,111.12,0
101,107.78,111.02,0
103,107.68,110.94,0
101,107.55,110.84,0
105,107.50,110.78,0
103,107.41,110.70,0
101,107.28,110.60,0
103,107.19,110.53,0
102,107.09,110.44,0
102,106.99,110.36,0
101,106.87,110.27,0
101,106.75,110.17,0
101,106.64,110.08,0
101,106.52,109.99,0
101,106.41,109.90,0
98,106.24,109.78,0
99,106.10,109.67,0
100,105.98,109.58,0
101,105.88,109.49,0
100,105.76,109.40,0
100,105.64,109.30,0
101,105.55,109.22,0
105,105.54,109.18,0
102,105.47,109.10,0
101,105.38,109.02,0
99,105.25,108.92,0
99,105.13,108.82,0
100,105.03,108.74,0
102,104.96,108.67,0
100,104.87,108.58,0
100,104.77,108.50,0
99,104.65,108.40,0
100,104.56,108.32,0
100,104.47,108.23,0
99,104.36,108.14,0
100,104.27,108.06,0
99,104.17,107.97,0
100,104.08,107.89,0
99,103.98,107.80,0
99,103.88,107.71,0
98,103.76,107.62,0
99,103.67,107.53,0
98,103.56,107.43,0
100,103.48,107.36,0
100,103.42,107.29,0
100,103.35,107.21,0
97,103.22,107.11,0
98,103.12,107.02,0
98,103.01,106.93,0
98,102.91,106.84,0
98,102.81,106.75,0
98,102.72,106.67,0
98,102.62,106.58,0
97,102.51,106.48,0
98,102.42,106.40,0
103,102.43,106.36,0
97,102.32,106.27,0
97,102.22,106.18,0
99,102.15,106.11,0
98,102.07,106.02,0
98,101.99,105.94,0
98,101.91,105.86,0
99,101.85,105.80,0
96,101.73,105.70,0
97,101.64,105.61,0
96,101.53,105.52,0
98,101.46,105.44,0
102,101.47,105.41,0
99,101.42,105.34,0
96,101.31,105.25,0
98,101.24,105.18,0
100,101.22,105.12,0
98,101.15,105.05,0
97,101.07,104.97,0
97,100.99,104.89,0
95,100.87,104.79,0
96,100.77,104.71,0
96,100.68,104.62,0
96,100.58,104.53,0
97,100.51,104.46,0
96,100.42,104.37,0
95,100.31,104.28,0
95,100.21,104.19,0
96,100.12,104.10,0
96,100.04,104.02,0
95,99.94,103.93,0
95,99.84,103.84,0
95,99.74,103.76,0
95,99.65,103.67,0
94,99.54,103.57,0
95,99.45,103.49,0
95,99.36,103.40,0
96,99.29,103.33,0
94,99.18,103.23,0
93,99.06,103.13,0
94,98.96,103.04,0
93,98.84,102.94,0
93,98.72,102.84,0
95,98.65,102.76,0
95,98.58,102.68,0
93,98.46,102.59,0
93,98.35,102.49,0
93,98.25,102.40,0
94,98.16,102.31,0
92,98.04,102.21,0
93,97.94,102.12,0
93,97.84,102.03,0
92,97.72,101.93,0
92,97.61,101.83,0
95,97.56,101.76,0
91,97.42,101.65,0
92,97.32,101.55,0
92,97.21,101.46,0
91,97.09,101.35,0
91,96.96,101.25,0
92,96.86,101.16,0
92,96.77,101.07,0
93,96.69,100.99,0
91,96.58,100.89,0
91,96.47,100.79,0
92,96.38,100.70,0
92,96.29,100.61,0
92,96.20,100.53,0
91,96.10,100.43,0
91,96.00,100.34,0
91,95.90,100.24,0
89,95.76,100.13,0
91,95.66,100.04,0
90,95.55,99.94,0
92,95.48,99.86,0
91,95.39,99.77,0
91,95.30,99.68,0
87,95.14,99.56,0
92,95.07,99.48,0
91,94.99,99.40,0
90,94.89,99.30,0
90,94.80,99.21,0
90,94.70,99.12,0
90,94.61,99.03,0
90,94.51,98.94,0
86,94.34,98.81,0
90,94.26,98.72,0
90,94.17,98.63,0
90,94.09,98.54,0
90,94.01,98.46,0
90,93.93,98.37,0
90,93.85,98.29,0
90,93.77,98.21,0
90,93.69,98.13,0
90,93.62,98.04,0
90,93.55,97.96,0
90,93.48,97.88,0
89,93.39,97.80,0
89,93.30,97.71,0
90,93.23,97.63,0
92,93.21,97.57,0
90,93.15,97.50,0
90,93.08,97.42,0
89,93.00,97.34,0
88,92.90,97.25,0
89,92.82,97.16,0
88,92.73,97.07,0
88,92.63,96.98,0
90,92.58,96.91,0
88,92.49,96.82,0
88,92.40,96.73,0
88,92.31,96.65,0
88,92.22,96.56,0
88,92.14,96.47,0
87,92.04,96.38,0
86,91.92,96.28,0
87,91.82,96.18,0
88,91.74,96.10,0
87,91.65,96.01,0
86,91.53,95.91,0
87,91.44,95.82,0
86,91.33,95.72,0
87,91.25,95.64,0
87,91.16,95.55,0
87,91.08,95.46,0
88,91.02,95.39,0
88,90.96,95.32,0
86,90.86,95.22,0
88,90.80,95.15,0
88,90.74,95.08,0
88,90.69,95.01,0
87,90.62,94.93,0
86,90.52,94.84,0
86,90.43,94.75,0
86,90.34,94.66,0
86,90.26,94.58,0
87,90.19,94.50,0
86,90.11,94.42,0
86,90.03,94.33,0
85,89.93,94.24,0
88,89.89,94.18,0
86,89.81,94.09,0
86,89.73,94.01,0
87,89.68,93.94,0
86,89.61,93.86,0
84,89.49,93.76,0
86,89.42,93.69,0
86,89.35,93.61,0
85,89.27,93.52,0
84,89.16,93.43,0
83,89.04,93.32,0
85,88.96,93.24,0
84,88.86,93.15,0
84,88.76,93.06,0
84,88.67,92.97,0
83,88.55,92.87,0
84,88.46,92.78,0
84,88.37,92.69,0
84,88.29,92.60,0
84,88.20,92.52,0
81,88.06,92.40,0
82,87.93,92.30,0
82,87.82,92.20,0
83,87.72,92.10,0
82,87.61,92.00,0
82,87.49,91.90,0
82,87.38,91.80,0
83,87.30,91.72,0
82,87.19,91.62,0
82,87.09,91.52,0
82,86.98,91.43,0
82,86.88,91.33,0
82,86.79,91.24,0
82,86.69,91.15,0
82,86.60,91.06,0
82,86.51,90.96,0
88,86.54,90.94,0
82,86.44,90.85,0
85,86.42,90.79,0
82,86.33,90.70,0
82,86.24,90.61,0
82,86.16,90.53,0
82,86.07,90.44,0
82,85.99,90.36,0
84,85.95,90.29,0
82,85.87,90.21,0
79,85.74,90.10,0
84,85.70,90.04,0
82,85.63,89.96,0
80,85.51,89.86,0
79,85.38,89.75,0
81,85.30,89.66,0
79,85.17,89.55,0
80,85.07,89.46,0
79,84.95,89.35,0
79,84.83,89.25,0
80,84.73,89.16,0
80,84.64,89.07,0
78,84.50,88.96,0
79,84.39,88.86,0
80,84.30,88.77,0
79,84.20,88.67,0
79,84.09,88.57,0
80,84.01,88.49,0
80,83.93,88.40,0
79,83.83,88.31,0
78,83.72,88.21,0
78,83.60,88.10,0
80,83.53,88.02,0
78,83.42,87.92,0
78,83.31,87.82,0
80,83.25,87.75,0
81,83.20,87.68,0
80,83.14,87.60,0
79,83.05,87.51,0
80,82.99,87.44,0
82,82.97,87.39,0
80,82.91,87.31,0
79,82.84,87.23,0
79,82.76,87.15,0
79,82.68,87.06,0
79,82.61,86.98,0
79,82.54,86.90,0
80,82.49,86.84,0
80,82.44,86.77,0
79,82.37,86.69,0
79,82.30,86.61,0
79,82.23,86.54,0
78,82.15,86.45,0
78,82.07,86.37,0
78,81.99,86.28,0
80,81.95,86.22,0
77,81.85,86.13,0
77,81.75,86.04,0
78,81.68,85.96,0
77,81.58,85.87,0
78,81.51,85.79,0
78,81.44,85.71,0
78,81.37,85.63,0
79,81.32,85.57,0
78,81.26,85.49,0
78,81.19,85.42,0
78,81.13,85.34,0
77,81.05,85.26,0
77,80.96,85.18,0
77,80.89,85.09,0
76,80.79,85.00,0
77,80.71,84.92,0
77,80.64,84.84,0
76,80.55,84.76,0
76,80.45,84.67,0
77,80.39,84.59,0
77,80.32,84.52,0
76,80.23,84.43,0
76,80.15,84.35,0
77,80.08,84.27,0
77,80.02,84.20,0
76,79.94,84.12,0
76,79.86,84.04,0
78,79.83,83.98,0
77,79.77,83.91,0
76,79.69,83.83,0
76,79.62,83.75,0
77,79.57,83.68,0
78,79.54,83.62,0
76,79.47,83.55,0
76,79.40,83.47,0
76,79.33,83.40,0
76,79.26,83.32,0
76,79.20,83.25,0
76,79.13,83.18,0
77,79.09,83.12,0
75,79.01,83.04,0
76,78.95,82.97,0
76,78.89,82.90,0
77,78.85,82.84,0
76,78.79,82.77,0
76,78.74,82.70,0
78,78.72,82.65,0
76,78.67,82.59,0
76,78.62,82.52,0
76,78.56,82.46,0
76,78.51,82.39,0
76,78.46,82.33,0
74,78.37,82.24,0
76,78.32,82.18,0
78,78.32,82.14,0
75,78.25,82.07,0
76,78.21,82.01,0
74,78.12,81.93,0
76,78.08,81.87,0
78,78.08,81.83,0
76,78.04,81.77,0
76,78.00,81.71,0
76,77.96,81.66,0
77,77.94,81.61,0
76,77.90,81.55,0
76,77.86,81.50,0
76,77.82,81.44,0
79,77.85,81.42,0
76,77.81,81.36,0
77,77.79,81.32,0
75,77.74,81.26,0
76,77.70,81.21,0
76,77.67,81.15,0
76,77.64,81.10,0
75,77.58,81.04,0
75,77.53,80.98,0
76,77.50,80.93,0
76,77.47,80.88,0
74,77.40,80.81,0
75,77.35,80.75,0
77,77.35,80.72,0
76,77.32,80.67,0
76,77.29,80.62,0
76,77.27,80.58,0
76,77.24,80.53,0
76,77.22,80.49,0
76,77.19,80.44,0
74,77.13,80.38,0
76,77.11,80.33,0
75,77.06,80.28,0
75,77.02,80.23,0
76,77.00,80.18,0
76,76.98,80.14,0
74,76.92,80.08,0
74,76.86,80.02,0
76,76.85,79.98,0
75,76.81,79.93,0
73,76.73,79.86,0
74,76.68,79.80,0
74,76.63,79.74,0
73,76.55,79.68,0
73,76.48,79.61,0
74,76.43,79.55,0
75,76.40,79.51,0
74,76.36,79.45,0
73,76.29,79.39,0
73,76.22,79.32,0
73,76.16,79.26,0
74,76.12,79.21,0
73,76.05,79.15,0
74,76.01,79.10,0
73,75.95,79.03,0
73,75.89,78.97,0
74,75.85,78.92,0
74,75.82,78.88,0
74,75.78,78.83,0
74,75.75,78.78,0
72,75.67,78.71,0
73,75.62,78.65,0
73,75.56,78.60,0
72,75.49,78.53,0
72,75.42,78.47,0
72,75.36,78.40,0
73,75.31,78.35,0
74,75.28,78.30,0
72,75.22,78.24,0
72,75.15,78.18,0
72,75.09,78.12,0
72,75.03,78.05,0
72,74.97,77.99,0
74,74.95,77.95,0
73,74.91,77.90,0
72,74.85,77.85,0
72,74.79,77.79,0
72,74.74,77.73,0
73,74.70,77.68,0
72,74.65,77.63,0
72,74.60,77.57,0
72,74.54,77.51,0
72,74.49,77.46,0
71,74.42,77.39,0
70,74.33,77.32,0
74,74.33,77.29,0
73,74.30,77.24,0
72,74.26,77.19,0
72,74.21,77.14,0
70,74.13,77.07,0
71,74.06,77.01,0
70,73.98,76.94,0
72,73.94,76.89,0
73,73.92,76.85,0
72,73.89,76.80,0
72,73.85,76.75,0
71,73.79,76.70,0
70,73.71,76.63,0
72,73.68,76.58,0
72,73.65,76.54,0
72,73.61,76.49,0
70,73.54,76.43,0
71,73.49,76.37,0
70,73.42,76.31,0
70,73.35,76.24,0
71,73.31,76.19,0
71,73.26,76.14,0
70,73.19,76.08,0
71,73.15,76.03,0
70,73.09,75.97,0
70,73.03,75.91,0
72,73.01,75.87,0
70,72.94,75.81,0
70,72.89,75.75,0
70,72.83,75.69,0
71,72.79,75.65,0
70,72.74,75.59,0
73,72.74,75.57,0
70,72.69,75.51,0
72,72.67,75.47,0
70,72.62,75.42,0
69,72.55,75.36,0
70,72.50,75.30,0
70,72.45,75.25,0
70,72.40,75.20,0
71,72.37,75.15,0
70,72.32,75.10,0
69,72.26,75.04,0
68,72.17,74.97,0
70,72.13,74.92,0
70,72.08,74.87,0
69,72.02,74.81,0
70,71.98,74.77,0
67,71.88,74.69,0
71,71.86,74.65,0
69,71.81,74.59,0
68,71.73,74.53,0
68,71.66,74.46,0
68,71.58,74.40,0
68,71.51,74.33,0
68,71.44,74.27,0
66,71.33,74.19,0
70,71.31,74.15,0
69,71.26,74.10,0
68,71.19,74.03,0
68,71.13,73.97,0
69,71.09,73.92,0
68,71.03,73.87,0
68,70.97,73.81,0
67,70.89,73.74,0
69,70.85,73.69,0
68,70.79,73.63,0
68,70.74,73.58,0
67,70.66,73.51,0
68,70.61,73.46,0
70,70.60,73.42,0
67,70.52,73.36,0
70,70.51,73.32,0
69,70.48,73.28,0
68,70.43,73.23,0
68,70.39,73.18,0
66,70.30,73.10,0
68,70.25,73.05,0
68,70.21,73.00,0
66,70.12,72.93,0
66,70.04,72.86,0
67,69.98,72.80,0
67,69.92,72.75,0
68,69.88,72.70,0
68,69.84,72.65,0
68,69.81,72.61,0
67,69.75,72.55,0
66,69.68,72.48,0
68,69.64,72.44,0
68,69.61,72.40,0
67,69.56,72.34,0
66,69.49,72.28,0
66,69.42,72.21,0
67,69.37,72.16,0
66,69.30,72.10,0
68,69.27,72.06,0
66,69.21,72.00,0
65,69.12,71.93,0
66,69.06,71.87,0
66,69.00,71.81,0
66,68.94,71.75,0
67,68.90,71.71,0
66,68.84,71.65,0
66,68.79,71.59,0
66,68.73,71.54,0
66,68.68,71.48,0
66,68.62,71.43,0
68,68.61,71.39,0
66,68.56,71.34,0
67,68.53,71.29,0
66,68.48,71.24,0
66,68.43,71.19,0
68,68.42,71.16,0
67,68.39,71.12,0
68,68.38,71.08,0
66,68.33,71.03,0
68,68.33,71.00,0
67,68.30,70.96,0
68,68.30,70.93,0
66,68.25,70.88,0
66,68.20,70.84,0
66,68.16,70.79,0
66,68.12,70.74,0
66,68.08,70.69,0
66,68.03,70.65,0
66,67.99,70.60,0
66,67.95,70.55,0
66,67.91,70.51,0
65,67.86,70.45,0
66,67.82,70.41,0
65,67.76,70.35,0
66,67.73,70.31,0
66,67.69,70.27,0
66,67.66,70.22,0
65,67.61,70.17,0
66,67.57,70.13,0
65,67.52,70.08,0
64,67.45,70.02,0
66,67.42,69.98,0
66,67.39,69.94,0
65,67.35,69.89,0
65,67.30,69.84,0
65,67.25,69.79,0
66,67.23,69.75,0
66,67.20,69.72,0
67,67.20,69.69,0
66,67.18,69.65,0
64,67.11,69.60,0
64,67.05,69.54,0
67,67.05,69.51,0
67,67.05,69.49,0
65,67.01,69.44,0
65,66.97,69.40,0
63,66.89,69.34,0
65,66.85,69.29,0
68,66.87,69.28,0
66,66.86,69.25,0
67,66.86,69.22,0
64,66.80,69.17,0
65,66.76,69.13,0
65,66.73,69.09,0
65,66.70,69.05,0
66,66.68,69.02,0
63,66.61,68.96,0
64,66.56,68.91,0
64,66.50,68.86,0
65,66.47,68.82,0
65,66.44,68.78,0
66,66.44,68.75,0
65,66.41,68.72,0
64,66.36,68.67,0
64,66.31,68.62,0
64,66.27,68.58,0
65,66.24,68.54,0
66,66.24,68.52,0
66,66.23,68.49,0
64,66.19,68.45,0
65,66.16,68.41,0
64,66.12,68.37,0
64,66.08,68.32,0
65,66.06,68.29,0
64,66.01,68.25,0
65,65.99,68.21,0
64,65.95,68.17,0
64,65.91,68.13,0
64,65.88,68.09,0
64,65.84,68.05,0
64,65.80,68.01,0
64,65.77,67.97,0
65,65.75,67.94,0
66,65.76,67.92,0
66,65.76,67.90,0
64,65.73,67.86,0
64,65.69,67.82,0
64,65.66,67.78,0
66,65.66,67.77,0
65,65.65,67.74,0
66,65.66,67.72,0
70,65.74,67.74,0
66,65.75,67.73,0
67,65.77,67.72,0
66,65.78,67.70,0
66,65.78,67.68,0
66,65.79,67.67,0
66,65.79,67.65,0
67,65.82,67.64,0
68,65.86,67.65,0
66,65.86,67.63,0
66,65.87,67.62,0
66,65.87,67.60,0
66,65.87,67.58,0
66,65.87,67.57,0
66,65.88,67.55,0
65,65.86,67.53,0
66,65.86,67.51,0
64,65.82,67.48,0
66,65.83,67.46,0
65,65.81,67.44,0
64,65.77,67.40,0
64,65.74,67.37,0
64,65.70,67.33,0
66,65.71,67.32,0
66,65.72,67.31,0
66,65.72,67.29,0
65,65.71,67.27,0
66,65.71,67.26,0
64,65.68,67.23,0
66,65.69,67.21,0
65,65.67,67.19,0
65,65.66,67.17,0
65,65.65,67.15,0
66,65.65,67.14,0
65,65.64,67.12,0
64,65.61,67.08,0
65,65.59,67.06,0
66,65.60,67.05,0
65,65.59,67.03,0
64,65.56,67.00,0
66,65.57,66.99,0
64,65.54,66.96,0
66,65.55,66.95,0
64,65.51,66.92,0
64,65.48,66.89,0
65,65.47,66.88,0
65,65.47,66.86,0
66,65.48,66.85,0
66,65.49,66.84,0
65,65.48,66.82,0
65,65.47,66.80,0
65,65.46,66.78,0
70,65.55,66.82,0
71,65.66,66.86,0
67,65.68,66.86,0
66,65.69,66.85,0
68,65.74,66.86,0
68,65.78,66.87,0
67,65.81,66.88,0
69,65.87,66.90,0
66,65.87,66.89,0
66,65.88,66.88,0
66,65.88,66.87,0
65,65.86,66.85,0
66,65.86,66.84,0
66,65.87,66.83,0
66,65.87,66.83,0
65,65.85,66.81,0
66,65.85,66.80,0
65,65.84,66.78,0
66,65.84,66.77,0
65,65.82,66.76,0
67,65.85,66.76,0
65,65.83,66.74,0
66,65.83,66.73,0
65,65.82,66.72,0
67,65.84,66.72,0
64,65.80,66.69,0
66,65.81,66.69,0
68,65.85,66.70,0
68,65.89,66.71,0
67,65.92,66.71,0
66,65.92,66.71,0
65,65.90,66.69,0
67,65.92,66.69,0
66,65.92,66.69,0
70,66.01,66.72,0
70,66.08,66.75,0
67,66.10,66.75,0
68,66.14,66.77,0
66,66.14,66.76,0
68,66.18,66.77,0
68,66.21,66.78,0
68,66.25,66.80,0
68,66.28,66.81,0
68,66.32,66.82,0
67,66.33,66.82,0
66,66.32,66.81,0
70,66.40,66.85,0
69,66.45,66.87,0
68,66.48,66.88,0
66,66.47,66.87,0
68,66.50,66.88,0
69,66.55,66.90,0
72,66.66,66.95,0
70,66.73,66.98,0
70,66.79,67.01,0
67,66.80,67.01,0
68,66.82,67.02,0
68,66.84,67.03,0
68,66.87,67.04,0
68,66.89,67.05,0
68,66.91,67.06,0
68,66.93,67.07,0
68,66.96,67.08,0
70,67.02,67.11,0
66,67.00,67.10,0
68,67.02,67.11,0
70,67.08,67.14,0
69,67.11,67.16,0
68,67.13,67.16,0
70,67.19,67.19,0
68,67.21,67.20,0
68,67.22,67.21,0
68,67.24,67.22,0
68,67.25,67.22,0
72,67.35,67.27,0
71,67.42,67.31,0
68,67.43,67.32,0
70,67.48,67.34,0
69,67.51,67.36,0
69,67.54,67.38,0
70,67.59,67.40,0
70,67.64,67.43,0
70,67.69,67.45,0
68,67.69,67.46,0
72,67.78,67.50,0
70,67.82,67.53,0
69,67.85,67.54,0
71,67.91,67.58,0
73,68.01,67.63,0
72,68.09,67.68,0
74,68.21,67.74,0
74,68.33,67.80,0
72,68.40,67.84,0
72,68.47,67.89,0
72,68.54,67.93,0
76,68.69,68.01,0
81,68.94,68.14,0
74,69.04,68.20,0
74,69.14,68.25,0
76,69.28,68.33,0
75,69.39,68.40,0
74,69.48,68.45,0
71,69.51,68.48,0
74,69.60,68.54,0
75,69.71,68.60,0
72,69.76,68.63,0
76,69.88,68.71,0
77,70.02,68.79,0
76,70.14,68.86,0
74,70.22,68.91,0
74,70.30,68.96,0
76,70.41,69.04,0
77,70.54,69.11,0
74,70.61,69.16,0
74,70.68,69.21,0
77,70.81,69.29,0
77,70.93,69.37,0
78,71.07,69.45,0
76,71.17,69.52,0
77,71.29,69.59,0
82,71.50,69.72,0
78,71.63,69.80,0
78,71.76,69.88,0
81,71.94,69.99,0
80,72.10,70.09,0
78,72.22,70.17,0
78,72.34,70.25,0
78,72.45,70.33,0
77,72.54,70.40,0
76,72.61,70.45,0
78,72.72,70.53,0
79,72.84,70.61,0
80,72.99,70.71,0
82,73.17,70.82,0
78,73.26,70.89,0
81,73.42,70.99,0
80,73.55,71.08,0
80,73.68,71.17,0
82,73.85,71.28,0
82,74.01,71.39,0
81,74.15,71.48,0
82,74.31,71.59,0
80,74.42,71.67,0
81,74.55,71.76,0
81,74.68,71.86,0
84,74.87,71.98,0
82,75.01,72.08,0
80,75.11,72.16,0
82,75.25,72.26,0
82,75.38,72.35,0
82,75.51,72.45,0
83,75.66,72.56,0
82,75.79,72.65,0
82,75.91,72.74,0
83,76.06,72.85,0
83,76.20,72.95,0
82,76.31,73.04,0
84,76.47,73.15,0
82,76.58,73.24,0
82,76.68,73.32,0
82,76.79,73.41,0
82,76.89,73.50,0
82,77.00,73.58,0
82,77.10,73.67,0
86,77.28,73.79,0
84,77.41,73.89,0
82,77.50,73.97,0
84,77.63,74.07,0
90,77.88,74.23,0
90,78.12,74.39,0
89,78.34,74.54,0
85,78.47,74.64,0
90,78.70,74.79,0
91,78.95,74.96,0
93,79.23,75.14,0
89,79.42,75.28,0
92,79.68,75.44,0
92,79.92,75.61,0
91,80.14,75.76,0
90,80.34,75.90,0
92,80.57,76.07,0
87,80.70,76.17,0
91,80.91,76.32,0
88,81.05,76.44,0
90,81.23,76.58,0
89,81.39,76.70,0
88,81.52,76.81,0
88,81.65,76.92,0
94,81.89,77.10,0
93,82.12,77.25,0
89,82.25,77.37,0
90,82.41,77.50,0
93,82.62,77.65,0
90,82.77,77.78,0
89,82.89,77.89,0
92,83.08,78.03,0
92,83.25,78.17,0
90,83.39,78.29,0
90,83.52,78.40,0
91,83.67,78.53,0
92,83.84,78.67,0
92,84.00,78.80,0
92,84.16,78.93,0
90,84.28,79.04,0
93,84.45,79.18,0
90,84.56,79.29,0
90,84.67,79.40,0
92,84.82,79.52,0
90,84.92,79.63,0
90,85.02,79.73,0
97,85.26,79.90,0
97,85.50,80.07,0
98,85.75,80.25,0
92,85.87,80.37,0
100,86.16,80.57,0
104,86.51,80.80,0
103,86.84,81.02,0
97,87.04,81.18,0
102,87.34,81.39,0
102,87.64,81.60,0
102,87.92,81.80,0
100,88.17,81.98,0
98,88.36,82.14,0
99,88.58,82.31,0
103,88.86,82.52,0
102,89.13,82.71,0
99,89.32,82.88,0
103,89.60,83.08,0
103,89.87,83.28,0
105,90.17,83.49,0
100,90.36,83.66,0
102,90.60,83.84,0
105,90.89,84.05,0
102,91.11,84.23,0
105,91.39,84.44,0
103,91.62,84.63,0
105,91.89,84.83,0
101,92.07,84.99,0
105,92.33,85.19,0
112,92.72,85.46,0
112,93.11,85.73,0
105,93.34,85.92,0
109,93.66,86.15,0
108,93.94,86.37,0
109,94.24,86.59,0
107,94.50,86.80,0
109,94.79,87.02,0
107,95.03,87.22,0
106,95.25,87.41,0
110,95.55,87.63,0
107,95.78,87.83,0
107,96.00,88.02,0
109,96.26,88.23,0
105,96.44,88.40,0
110,96.71,88.61,0
111,96.99,88.84,0
108,97.21,89.03,0
109,97.45,89.23,0
107,97.64,89.41,0
109,97.87,89.60,0
108,98.07,89.79,0
111,98.33,90.00,0
111,98.58,90.21,0
109,98.79,90.40,0
109,98.99,90.58,0
109,99.20,90.77,0
107,99.35,90.93,0
108,99.52,91.10,0
108,99.69,91.27,0
109,99.88,91.45,0
108,100.04,91.61,0
108,100.20,91.78,0
109,100.38,91.95,0
111,100.59,92.14,0
114,100.86,92.36,0
113,101.10,92.56,0
110,101.28,92.74,0
110,101.45,92.91,0
108,101.58,93.06,0
110,101.75,93.23,0
109,101.90,93.39,0
110,102.06,93.55,0
109,102.20,93.71,0
114,102.43,93.91,0
115,102.69,94.12,0
110,102.83,94.28,0
110,102.98,94.44,0
113,103.18,94.62,0
120,103.51,94.88,0
115,103.74,95.08,0
114,103.95,95.27,0
115,104.17,95.47,0
114,104.36,95.65,0
115,104.58,95.84,0
113,104.75,96.02,0
118,105.01,96.24,0
116,105.23,96.43,0
116,105.45,96.63,0
114,105.62,96.80,0
114,105.79,96.97,0
115,105.97,97.16,0
118,106.21,97.36,0
116,106.41,97.55,0
114,106.56,97.71,0
114,106.71,97.88,0
113,106.83,98.03,0
112,106.94,98.17,0
114,107.08,98.33,0
116,107.26,98.50,0
112,107.35,98.64,0
117,107.54,98.82,0
116,107.71,98.99,0
114,107.84,99.14,0
116,108.00,99.31,0
114,108.12,99.46,0
114,108.24,99.60,0
113,108.33,99.74,0
113,108.43,99.87,0
113,108.52,100.00,0
115,108.65,100.15,0
113,108.74,100.28,0
113,108.82,100.41,0
114,108.92,100.54,0
113,109.01,100.67,0
114,109.11,100.80,0
112,109.16,100.91,0
111,109.20,101.01,0
112,109.26,101.12,0
111,109.29,101.22,0
112,109.35,101.33,0
111,109.38,101.43,0
111,109.41,101.52,0
113,109.48,101.64,0
111,109.51,101.73,0
111,109.54,101.82,0
110,109.55,101.91,0
110,109.56,101.99,0
109,109.55,102.06,0
109,109.54,102.13,0
109,109.53,102.20,0
110,109.54,102.27,0
109,109.53,102.34,0
109,109.52,102.41,0
109,109.51,102.47,0
109,109.50,102.54,0
109,109.49,102.60,0
108,109.46,102.66,0
110,109.47,102.73,0
108,109.44,102.78,0
108,109.41,102.84,0
108,109.38,102.89,0
109,109.37,102.95,0
109,109.37,103.01,0
108,109.34,103.06,0
108,109.31,103.11,0
107,109.27,103.15,0
108,109.24,103.20,0
109,109.24,103.25,0
107,109.19,103.29,0
107,109.15,103.33,0
108,109.12,103.37,0
107,109.08,103.41,0
107,109.04,103.45,0
107,109.00,103.48,0
107,108.96,103.52,0
107,108.92,103.55,0
107,108.88,103.59,0
106,108.82,103.61,0
107,108.79,103.65,0
105,108.71,103.66,0
106,108.66,103.68,0
106,108.60,103.71,0
106,108.55,103.73,0
105,108.48,103.74,0
105,108.41,103.75,0
105,108.34,103.77,0
105,108.28,103.78,0
106,108.23,103.80,0
105,108.17,103.81,0
105,108.10,103.82,0
105,108.04,103.84,0
103,107.94,103.83,0
105,107.88,103.84,0
105,107.82,103.85,0
105,107.77,103.86,0
107,107.75,103.89,0
104,107.68,103.90,0
105,107.62,103.91,0
104,107.55,103.91,0
107,107.54,103.94,0
105,107.49,103.95,0
104,107.42,103.95,0
104,107.35,103.95,0
104,107.28,103.95,0
104,107.22,103.95,0
103,107.13,103.94,0
105,107.09,103.95,0
104,107.03,103.95,0
104,106.97,103.95,0
103,106.89,103.94,0
104,106.83,103.94,0
102,106.73,103.92,0
103,106.66,103.92,0
102,106.57,103.90,0
102,106.48,103.88,0
103,106.41,103.87,0
102,106.32,103.85,0
101,106.21,103.82,0
101,106.11,103.79,0
101,106.01,103.76,0
101,105.91,103.74,0
102,105.83,103.72,0
101,105.73,103.69,0
101,105.64,103.67,0
102,105.56,103.65,0
101,105.47,103.62,0
101,105.38,103.60,0
101,105.29,103.57,0
100,105.19,103.53,0
101,105.11,103.51,0
100,105.00,103.47,0
101,104.92,103.45,0
99,104.80,103.40,0
99,104.69,103.36,0
99,104.57,103.32,0
100,104.48,103.28,0
100,104.39,103.25,0
95,104.21,103.17,0
98,104.08,103.12,0
98,103.96,103.07,0
98,103.84,103.02,0
98,103.72,102.97,0
98,103.61,102.92,0
97,103.48,102.86,0
96,103.33,102.79,0
97,103.20,102.73,0
98,103.10,102.68,0
95,102.94,102.61,0
96,102.80,102.54,0
97,102.68,102.48,0
95,102.53,102.41,0
95,102.38,102.34,0
96,102.25,102.27,0
96,102.12,102.21,0
95,101.98,102.14,0
96,101.86,102.08,0
94,101.70,102.00,0
97,101.61,101.95,0
94,101.46,101.87,0
96,101.35,101.81,0
96,101.24,101.75,0
95,101.12,101.68,0
94,100.97,101.60,0
95,100.86,101.54,0
95,100.74,101.47,0
95,100.62,101.41,0
94,100.49,101.33,0
94,100.36,101.26,0
94,100.23,101.19,0
94,100.11,101.12,0
92,99.95,101.03,0
93,99.81,100.95,0
94,99.69,100.88,0
93,99.56,100.80,0
93,99.43,100.72,0
93,99.30,100.64,0
93,99.17,100.57,0
93,99.05,100.49,0
93,98.93,100.41,0
92,98.79,100.33,0
93,98.67,100.26,0
92,98.54,100.17,0
92,98.41,100.09,0
91,98.26,100.00,0
93,98.16,99.93,0
92,98.03,99.85,0
91,97.89,99.76,0
91,97.75,99.68,0
92,97.64,99.60,0
92,97.53,99.52,0
91,97.40,99.44,0
90,97.25,99.34,0
92,97.14,99.27,0
91,97.02,99.19,0
90,96.88,99.10,0
91,96.76,99.02,0
92,96.67,98.95,0
90,96.53,98.86,0
92,96.44,98.79,0
92,96.35,98.72,0
90,96.23,98.63,0
90,96.10,98.55,0
90,95.98,98.46,0
92,95.90,98.40,0
90,95.78,98.31,0
91,95.69,98.24,0
90,95.57,98.16,0
91,95.48,98.08,0
89,95.35,97.99,0
90,95.25,97.91,0
90,95.14,97.83,0
92,95.08,97.78,0
90,94.98,97.70,0
90,94.88,97.62,0
90,94.78,97.55,0
89,94.66,97.46,0
89,94.55,97.38,0
90,94.46,97.30,0
92,94.41,97.25,0
90,94.32,97.18,0
89,94.22,97.09,0
88,94.09,97.00,0
88,93.97,96.91,0
88,93.85,96.82,0
88,93.73,96.74,0
88,93.62,96.65,0
88,93.51,96.56,0
88,93.40,96.48,0
88,93.29,96.39,0
87,93.16,96.30,0
88,93.06,96.21,0
88,92.96,96.13,0
87,92.84,96.04,0
87,92.72,95.95,0
87,92.61,95.86,0
87,92.50,95.77,0
87,92.39,95.69,0
87,92.28,95.60,0
85,92.13,95.49,0
86,92.01,95.40,0
86,91.89,95.30,0
89,91.83,95.24,0
85,91.69,95.14,0
86,91.58,95.05,0
86,91.47,94.96,0
86,91.36,94.87,0
88,91.29,94.80,0
87,91.21,94.72,0
87,91.12,94.64,0
85,91.00,94.55,0
89,90.96,94.49,0
88,90.90,94.43,0
87,90.82,94.35,0
86,90.73,94.27,0
86,90.63,94.19,0
86,90.54,94.10,0
86,90.45,94.02,0
87,90.38,93.95,0
86,90.29,93.87,0
86,90.21,93.79,0
86,90.12,93.72,0
87,90.06,93.65,0
87,90.00,93.58,0
84,89.88,93.49,0
84,89.76,93.39,0
85,89.67,93.31,0
84,89.55,93.21,0
84,89.44,93.12,0
84,89.33,93.03,0
85,89.25,92.95,0
85,89.16,92.87,0
84,89.06,92.78,0
84,88.96,92.70,0
84,88.86,92.61,0
86,88.80,92.54,0
86,88.74,92.48,0
84,88.65,92.39,0
86,88.60,92.33,0
86,88.54,92.26,0
86,88.49,92.20,0
86,88.44,92.14,0
85,88.37,92.07,0
85,88.31,92.00,0
84,88.22,91.92,0
84,88.14,91.84,0
84,88.05,91.76,0
84,87.97,91.68,0
82,87.85,91.59,0
85,87.80,91.52,0
85,87.74,91.45,0
84,87.67,91.38,0
84,87.59,91.31,0
85,87.54,91.24,0
83,87.45,91.16,0
87,87.44,91.12,0
84,87.37,91.05,0
84,87.30,90.98,0
83,87.22,90.90,0
83,87.13,90.82,0
82,87.03,90.73,0
84,86.97,90.66,0
83,86.89,90.59,0
82,86.79,90.50,0
84,86.74,90.44,0
84,86.68,90.37,0
85,86.65,90.32,0
84,86.60,90.25,0
84,86.54,90.19,0
84,86.49,90.13,0
82,86.40,90.05,0
82,86.32,89.97,0
84,86.27,89.91,0
84,86.22,89.85,0
83,86.16,89.78,0
82,86.08,89.70,0
82,85.99,89.63,0
81,85.89,89.54,0
82,85.82,89.46,0
84,85.78,89.41,0
82,85.70,89.34,0
81,85.61,89.25,0
82,85.54,89.18,0
86,85.55,89.15,0
82,85.48,89.08,0
81,85.39,89.00,0
82,85.32,88.93,0
82,85.25,88.86,0
84,85.23,88.81,0
82,85.16,88.74,0
81,85.08,88.66,0
81,85.00,88.59,0
82,84.94,88.52,0
81,84.86,88.45,0
84,84.84,88.40,0
80,84.75,88.32,0
81,84.67,88.24,0
82,84.62,88.18,0
82,84.57,88.12,0
82,84.51,88.06,0
81,84.44,87.99,0
79,84.33,87.90,0
81,84.27,87.83,0
81,84.20,87.76,0
80,84.12,87.68,0
79,84.02,87.60,0
81,83.96,87.53,0
80,83.88,87.45,0
80,83.80,87.38,0
79,83.70,87.30,0
80,83.63,87.22,0
80,83.56,87.15,0
79,83.47,87.07,0
79,83.38,86.99,0
80,83.31,86.92,0
79,83.22,86.84,0
78,83.12,86.75,0
78,83.02,86.66,0
79,82.94,86.59,0
79,82.86,86.51,0
78,82.76,86.43,0
78,82.66,86.34,0
78,82.57,86.26,0
78,82.48,86.18,0
78,82.39,86.09,0
78,82.30,86.01,0
77,82.20,85.92,0
78,82.11,85.84,0
79,82.05,85.78,0
77,81.95,85.69,0
79,81.89,85.62,0
78,81.81,85.54,0
78,81.74,85.47,0
76,81.62,85.37,0
79,81.57,85.31,0
77,81.48,85.23,0
76,81.37,85.14,0
76,81.26,85.04,0
77,81.18,84.96,0
77,81.09,84.88,0
77,81.01,84.81,0
76,80.91,84.72,0
77,80.83,84.64,0
78,80.78,84.57,0
76,80.68,84.49,0
77,80.61,84.41,0
77,80.53,84.34,0
78,80.48,84.28,0
76,80.39,84.19,0
76,80.31,84.11,0
76,80.22,84.03,0
76,80.14,83.95,0
74,80.01,83.85,0
79,79.99,83.80,0
75,79.89,83.71,0
75,79.79,83.63,0
74,79.68,83.53,0
76,79.61,83.45,0
76,79.53,83.38,0
76,79.46,83.31,0
76,79.39,83.23,0
75,79.31,83.15,0
75,79.22,83.07,0
76,79.15,83.00,0
76,79.09,82.93,0
74,78.99,82.84,0
75,78.91,82.76,0
76,78.85,82.69,0
76,78.79,82.63,0
73,78.68,82.53,0
74,78.59,82.44,0
74,78.49,82.36,0
75,78.42,82.29,0
74,78.34,82.20,0
75,78.27,82.13,0
76,78.22,82.07,0
74,78.14,81.99,0
73,78.04,81.90,0
74,77.96,81.82,0
74,77.88,81.74,0
73,77.78,81.66,0
73,77.68,81.57,0
72,77.57,81.47,0
73,77.48,81.39,0
74,77.41,81.31,0
73,77.32,81.23,0
72,77.21,81.14,0
76,77.19,81.09,0
74,77.13,81.02,0
73,77.04,80.94,0
73,76.96,80.86,0
74,76.90,80.79,0
72,76.81,80.70,0
73,76.73,80.62,0
71,76.61,80.53,0
72,76.52,80.44,0
72,76.43,80.36,0
72,76.34,80.27,0
74,76.30,80.21,0
72,76.21,80.13,0
72,76.13,80.05,0
71,76.02,79.96,0
73,75.96,79.89,0
72,75.88,79.81,0
71,75.79,79.72,0
70,75.67,79.62,0
71,75.58,79.54,0
71,75.49,79.45,0
70,75.38,79.36,0
70,75.27,79.26,0
72,75.20,79.19,0
72,75.14,79.12,0
70,75.04,79.03,0
70,74.94,78.94,0
72,74.88,78.87,0
72,74.82,78.80,0
70,74.72,78.71,0
70,74.63,78.62,0
71,74.56,78.55,0
70,74.46,78.46,0
67,74.32,78.35,0
70,74.23,78.27,0
69,74.12,78.17,0
70,74.04,78.09,0
70,73.96,78.01,0
69,73.86,77.92,0
69,73.76,77.83,0
70,73.69,77.75,0
70,73.62,77.67,0
68,73.50,77.58,0
69,73.41,77.49,0
70,73.34,77.42,0
68,73.24,77.32,0
68,73.13,77.23,0
70,73.07,77.16,0
68,72.97,77.07,0
68,72.87,76.98,0
68,72.77,76.89,0
69,72.70,76.81,0
68,72.60,76.72,0
68,72.51,76.63,0
68,72.42,76.55,0
68,72.33,76.46,0
67,72.23,76.37,0
70,72.18,76.30,0
68,72.10,76.22,0
68,72.02,76.14,0
68,71.94,76.05,0
68,71.86,75.97,0
70,71.82,75.91,0
68,71.74,75.84,0
67,71.65,75.75,0
68,71.58,75.67,0
68,71.50,75.59,0
70,71.47,75.54,0
68,71.40,75.46,0
68,71.34,75.39,0
68,71.27,75.31,0
67,71.18,75.23,0
68,71.12,75.16,0
68,71.06,75.09,0
68,71.00,75.02,0
67,70.92,74.94,0
66,70.82,74.85,0
66,70.72,74.76,0
68,70.67,74.69,0
67,70.59,74.61,0
66,70.50,74.53,0
70,70.49,74.48,0
68,70.44,74.42,0
68,70.39,74.35,0
67,70.33,74.28,0
66,70.24,74.20,0
67,70.17,74.12,0
68,70.13,74.06,0
66,70.05,73.98,0
64,69.93,73.88,0
66,69.85,73.80,0
66,69.77,73.73,0
66,69.70,73.65,0
66,69.62,73.57,0
66,69.55,73.50,0
66,69.48,73.42,0
68,69.45,73.37,0
65,69.36,73.28,0
66,69.29,73.21,0
68,69.27,73.16,0
67,69.22,73.10,0
66,69.16,73.03,0
66,69.09,72.96,0
66,69.03,72.89,0
66,68.97,72.82,0
66,68.91,72.75,0
65,68.83,72.67,0
67,68.80,72.61,0
66,68.74,72.55,0
66,68.69,72.48,0
65,68.61,72.41,0
65,68.54,72.33,0
65,68.47,72.26,0
66,68.42,72.20,0
65,68.35,72.13,0
66,68.31,72.07,0
66,68.26,72.00,0
66,68.21,71.94,0
66,68.17,71.88,0
65,68.11,71.82,0
66,68.06,71.76,0
65,68.00,71.69,0
66,67.96,71.63,0
68,67.96,71.60,0
65,67.90,71.53,0
65,67.85,71.47,0
66,67.81,71.41,0
65,67.75,71.35,0
66,67.72,71.29,0
66,67.68,71.24,0
64,67.61,71.17,0
66,67.58,71.12,0
66,67.55,71.07,0
66,67.52,71.01,0
64,67.44,70.94,0
65,67.40,70.89,0
64,67.33,70.82,0
64,67.26,70.75,0
66,67.24,70.70,0
65,67.19,70.64,0
64,67.13,70.58,0
64,67.07,70.51,0
64,67.00,70.45,0
66,66.98,70.40,0
65,66.94,70.35,0
64,66.89,70.28,0
64,66.83,70.22,0
65,66.79,70.17,0
66,66.78,70.13,0
64,66.72,70.07,0
64,66.67,70.01,0
67,66.67,69.98,0
66,66.66,69.94,0
66,66.65,69.90,0
66,66.63,69.86,0
65,66.60,69.81,0
66,66.59,69.77,0
66,66.58,69.73,0
66,66.56,69.70,0
65,66.53,69.65,0
67,66.54,69.62,0
66,66.53,69.59,0
66,66.52,69.55,0
67,66.53,69.52,0
66,66.52,69.49,0
64,66.47,69.43,0
65,66.44,69.39,0
65,66.41,69.35,0
64,66.36,69.29,0
64,66.32,69.24,0
66,66.31,69.21,0
65,66.28,69.17,0
64,66.24,69.11,0
64,66.19,69.06,0
64,66.15,69.01,0
65,66.13,68.97,0
64,66.08,68.92,0
64,66.04,68.87,0
64,66.00,68.82,0
64,65.96,68.78,0
65,65.94,68.74,0
64,65.90,68.69,0
64,65.87,68.64,0
65,65.85,68.61,0
64,65.81,68.56,0
64,65.77,68.52,0
65,65.76,68.48,0
64,65.72,68.44,0
64,65.69,68.39,0
64,65.66,68.35,0
64,65.62,68.30,0
64,65.59,68.26,0
66,65.60,68.24,0
64,65.57,68.20,0
63,65.52,68.14,0
63,65.46,68.09,0
66,65.48,68.07,0
64,65.45,68.03,0
64,65.42,67.99,0
64,65.39,67.95,0
64,65.36,67.91,0
64,65.33,67.87,0
63,65.29,67.82,0
64,65.26,67.79,0
67,65.30,67.78,0
64,65.27,67.74,0
63,65.22,67.69,0
62,65.16,67.64,0
63,65.12,67.59,0
64,65.09,67.55,0
64,65.07,67.52,0
64,65.05,67.48,0
64,65.03,67.45,0
64,65.01,67.41,0
62,64.95,67.36,0
63,64.91,67.32,0
62,64.85,67.26,0
62,64.80,67.21,0
62,64.74,67.16,0
63,64.70,67.12,0
61,64.63,67.05,0
62,64.58,67.00,0
62,64.53,66.95,0
62,64.48,66.90,0
62,64.43,66.86,0
62,64.38,66.81,0
62,64.33,66.76,0
63,64.30,66.72,0
62,64.26,66.67,0
62,64.21,66.63,0
62,64.17,66.58,0
62,64.12,66.54,0
62,64.08,66.49,0
61,64.02,66.44,0
62,63.98,66.39,0
62,63.94,66.35,0
61,63.88,66.29,0
60,63.80,66.23,0
60,63.73,66.17,0
61,63.67,66.12,0
61,63.62,66.07,0
62,63.59,66.02,0
60,63.52,65.96,0
61,63.47,65.91,0
60,63.40,65.86,0
62,63.37,65.82,0
60,63.30,65.76,0
61,63.25,65.71,0
60,63.19,65.65,0
60,63.13,65.60,0
60,63.06,65.54,0
60,63.00,65.49,0
62,62.98,65.45,0
62,62.96,65.42,0
61,62.92,65.37,0
60,62.86,65.32,0
62,62.85,65.29,0
62,62.83,65.25,0
62,62.81,65.22,0
61,62.78,65.18,0
61,62.74,65.14,0
60,62.69,65.09,0
60,62.63,65.03,0
62,62.62,65.00,0
60,62.57,64.95,0
60,62.52,64.90,0
60,62.47,64.86,0
59,62.40,64.80,0
60,62.35,64.75,0
60,62.30,64.70,0
60,62.26,64.65,0
59,62.19,64.60,0
60,62.15,64.55,0
60,62.10,64.51,0
60,62.06,64.46,0
61,62.04,64.43,0
60,62.00,64.38,0
62,62.00,64.36,0
60,61.96,64.31,0
60,61.92,64.27,0
60,61.88,64.23,0
61,61.87,64.20,0
59,61.81,64.14,0
60,61.77,64.10,0
62,61.78,64.08,0
60,61.74,64.04,0
60,61.71,64.00,0
60,61.67,63.96,0
62,61.68,63.94,0
60,61.64,63.90,0
60,61.61,63.86,0
59,61.56,63.81,0
62,61.57,63.80,0
59,61.52,63.75,0
60,61.49,63.71,0
59,61.44,63.66,0
58,61.37,63.61,0
60,61.34,63.57,0
60,61.31,63.54,0
58,61.25,63.48,0
60,61.22,63.45,0
60,61.20,63.41,0
61,61.19,63.39,0
61,61.19,63.36,0
60,61.17,63.33,0
62,61.18,63.32,0
63,61.22,63.31,0
63,61.26,63.31,0
61,61.25,63.29,0
60,61.23,63.25,0
60,61.20,63.22,0
64,61.26,63.23,0
61,61.25,63.21,0
60,61.23,63.17,0
61,61.22,63.15,0
60,61.20,63.12,0
60,61.17,63.09,0
60,61.15,63.06,0
61,61.15,63.04,0
61,61.14,63.02,0
60,61.12,62.99,0
60,61.10,62.96,0
60,61.08,62.93,0
61,61.08,62.91,0
61,61.07,62.89,0
60,61.05,62.86,0
60,61.03,62.83,0
59,60.99,62.79,0
60,60.97,62.77,0
59,60.93,62.73,0
60,60.91,62.70,0
61,60.91,62.68,0
60,60.90,62.66,0
60,60.88,62.63,0
58,60.82,62.58,0
60,60.80,62.56,0
60,60.79,62.53,0
59,60.75,62.50,0
60,60.74,62.47,0
59,60.70,62.44,0
61,60.71,62.42,0
60,60.69,62.40,0
58,60.64,62.36,0
59,60.61,62.32,0
58,60.56,62.28,0
58,60.50,62.24,0
60,60.49,62.21,0
59,60.46,62.18,0
58,60.42,62.14,0
58,60.37,62.10,0
58,60.32,62.06,0
59,60.29,62.03,0
59,60.27,62.00,0
58,60.22,61.96,0
60,60.22,61.94,0
61,60.23,61.93,0
59,60.21,61.90,0
59,60.18,61.87,0
58,60.14,61.83,0
60,60.14,61.81,0
58,60.10,61.77,0
58,60.05,61.74,0
59,60.03,61.71,0
58,59.99,61.67,0
58,59.95,61.64,0
60,59.95,61.62,0
60,59.95,61.60,0
60,59.95,61.59,0
58,59.92,61.55,0
60,59.92,61.54,0
61,59.94,61.53,0
58,59.90,61.49,0
58,59.86,61.46,0
60,59.86,61.45,0
58,59.83,61.41,0
59,59.81,61.39,0
58,59.77,61.35,0
60,59.78,61.34,0
60,59.78,61.33,0
58,59.75,61.29,0
60,59.75,61.28,0
60,59.76,61.27,0
60,59.76,61.25,0
58,59.73,61.22,0
58,59.69,61.19,0
60,59.70,61.18,0
59,59.69,61.16,0
58,59.65,61.12,0
60,59.66,61.11,0
58,59.63,61.08,0
57,59.57,61.04,0
58,59.54,61.01,0
58,59.51,60.98,0
58,59.48,60.95,0
57,59.43,60.91,0
58,59.40,60.88,0
58,59.37,60.85,0
58,59.35,60.82,0
57,59.30,60.79,0
59,59.29,60.77,0
60,59.31,60.76,0
60,59.32,60.75,0
58,59.30,60.73,0
60,59.31,60.72,0
60,59.32,60.71,0
58,59.30,60.68,0
58,59.27,60.66,0
58,59.25,60.63,0
57,59.20,60.59,0
57,59.16,60.56,0
58,59.13,60.53,0
59,59.13,60.52,0
57,59.09,60.48,0
57,59.05,60.45,0
58,59.03,60.42,0
60,59.04,60.42,0
60,59.06,60.41,0
58,59.04,60.39,0
57,59.00,60.36,0
57,58.96,60.32,0
58,58.94,60.30,0
58,58.92,60.28,0
58,58.91,60.25,0
57,58.87,60.22,0
57,58.83,60.19,0
56,58.77,60.15,0
58,58.76,60.13,0
57,58.72,60.09,0
58,58.71,60.07,0
58,58.69,60.05,0
58,58.68,60.03,0
59,58.69,60.02,0
58,58.67,60.00,0
58,58.66,59.98,0
59,58.67,59.97,0
60,58.69,59.97,0
58,58.68,59.95,0
58,58.67,59.93,0
58,58.65,59.91,0
60,58.68,59.91,0
58,58.67,59.90,0
58,58.65,59.88,0
54,58.56,59.82,0
59,58.57,59.81,0
57,58.54,59.78,0
58,58.53,59.76,0
58,58.52,59.75,0
57,58.48,59.72,0
57,58.46,59.69,0
56,58.41,59.65,0
56,58.36,59.62,0
57,58.33,59.59,0
58,58.32,59.58,0
58,58.32,59.56,0
59,58.33,59.55,0
59,58.34,59.55,0
58,58.34,59.53,0
58,58.33,59.52,0
63,58.42,59.55,0
62,58.50,59.58,0
59,58.51,59.57,0
60,58.54,59.58,0
58,58.53,59.56,0
58,58.51,59.54,0
60,58.54,59.55,0
61,58.59,59.56,0
58,58.58,59.55,0
58,58.57,59.53,0
58,58.56,59.52,0
58,58.55,59.50,0
60,58.58,59.51,0
59,58.59,59.50,0
58,58.57,59.49,0
58,58.56,59.47,0
58,58.55,59.46,0
61,58.60,59.47,0
60,58.63,59.48,0
58,58.62,59.46,0
60,58.64,59.47,0
59,58.65,59.46,0
60,58.68,59.47,0
60,58.70,59.47,0
60,58.73,59.48,0
59,58.73,59.48,0
62,58.80,59.50,0
58,58.78,59.49,0
60,58.81,59.49,0
60,58.83,59.50,0
62,58.90,59.52,0
60,58.92,59.53,0
60,58.94,59.53,0
60,58.96,59.53,0
62,59.02,59.56,0
60,59.04,59.56,0
60,59.06,59.57,0
60,59.08,59.57,0
61,59.12,59.59,0
62,59.17,59.61,0
62,59.23,59.63,0
62,59.29,59.66,0
60,59.30,59.66,0
64,59.40,59.71,0
62,59.45,59.73,0
63,59.52,59.76,0
60,59.53,59.76,0
60,59.54,59.77,0
62,59.59,59.79,0
60,59.59,59.79,0
61,59.62,59.80,0
62,59.67,59.82,0
62,59.72,59.85,0
63,59.78,59.88,0
64,59.87,59.92,0
64,59.95,59.96,0
62,59.99,59.98,0
64,60.07,60.02,0
64,60.15,60.06,0
64,60.23,60.10,0
62,60.26,60.12,0
61,60.28,60.13,0
62,60.31,60.15,0
61,60.33,60.15,0
62,60.36,60.17,0
63,60.41,60.20,0
64,60.48,60.24,0
62,60.51,60.26,0
62,60.54,60.27,0
63,60.59,60.30,0
63,60.64,60.33,0
62,60.67,60.35,0
62,60.69,60.36,0
65,60.78,60.41,0
61,60.78,60.41,0
62,60.81,60.43,0
60,60.79,60.43,0
61,60.80,60.43,0
62,60.82,60.45,0
60,60.80,60.44,0
60,60.79,60.44,0
62,60.81,60.45,0
62,60.84,60.47,0
64,60.90,60.50,0
62,60.92,60.52,0
64,60.98,60.55,0
65,61.06,60.60,0
62,61.08,60.61,0
64,61.14,60.65,0
65,61.22,60.69,0
62,61.23,60.70,0
63,61.27,60.73,0
65,61.34,60.77,0
68,61.48,60.84,0
64,61.53,60.87,0
64,61.58,60.90,0
66,61.67,60.96,0
65,61.73,61.00,0
64,61.78,61.03,0
64,61.82,61.06,0
64,61.87,61.08,0
65,61.93,61.12,0
66,62.01,61.17,0
64,62.05,61.20,0
64,62.09,61.23,0
64,62.13,61.26,0
64,62.16,61.28,0
64,62.20,61.31,0
64,62.24,61.34,0
66,62.31,61.38,0
64,62.35,61.41,0
66,62.42,61.46,0
64,62.45,61.48,0
66,62.52,61.53,0
66,62.59,61.57,0
65,62.64,61.61,0
66,62.71,61.65,0
66,62.77,61.69,0
67,62.86,61.75,0
65,62.90,61.78,0
66,62.96,61.82,0
66,63.02,61.86,0
66,63.08,61.90,0
68,63.18,61.97,0
68,63.28,62.03,0
68,63.37,62.09,0
68,63.46,62.15,0
66,63.51,62.18,0
65,63.54,62.21,0
66,63.59,62.25,0
66,63.64,62.29,0
68,63.73,62.34,0
67,63.79,62.39,0
68,63.88,62.45,0
66,63.92,62.48,0
66,63.96,62.52,0
67,64.02,62.56,0
68,64.10,62.62,0
69,64.20,62.68,0
70,64.32,62.75,0
66,64.35,62.79,0
67,64.40,62.83,0
66,64.44,62.86,0
70,64.55,62.93,0
70,64.66,63.00,0
71,64.78,63.08,0
69,64.87,63.14,0
68,64.93,63.19,0
68,64.99,63.24,0
70,65.09,63.31,0
68,65.15,63.35,0
69,65.23,63.41,0
67,65.26,63.45,0
72,65.40,63.53,0
69,65.47,63.59,0
68,65.52,63.63,0
68,65.57,63.67,0
69,65.64,63.73,0
70,65.72,63.79,0
70,65.81,63.85,0
70,65.89,63.91,0
70,65.98,63.97,0
73,66.12,64.06,0
73,66.25,64.15,0
72,66.37,64.23,0
71,66.46,64.30,0
72,66.57,64.38,0
70,66.64,64.43,0
70,66.71,64.49,0
71,66.79,64.55,0
74,66.94,64.65,0
74,67.08,64.74,0
74,67.22,64.83,0
81,67.49,65.00,0
83,67.80,65.18,0
76,67.97,65.28,0
74,68.09,65.37,0
81,68.35,65.53,0
81,68.60,65.68,0
80,68.83,65.83,0
78,69.01,65.95,0
77,69.17,66.06,0
76,69.31,66.16,0
78,69.48,66.28,0
80,69.69,66.41,0
82,69.94,66.57,0
80,70.14,66.70,0
78,70.30,66.82,0
80,70.49,66.95,0
84,70.76,67.12,0
82,70.99,67.27,0
82,71.21,67.41,0
85,71.48,67.59,0
82,71.69,67.73,0
84,71.94,67.90,0
80,72.10,68.02,0
85,72.36,68.19,0
82,72.55,68.33,0
80,72.70,68.44,0
84,72.93,68.60,0
87,73.21,68.78,0
88,73.50,68.97,0
86,73.75,69.14,0
88,74.04,69.33,0
84,74.24,69.48,0
83,74.41,69.62,0
83,74.58,69.75,0
82,74.73,69.87,0
84,74.92,70.01,0
85,75.12,70.16,0
90,75.42,70.36,0
94,75.79,70.60,0
93,76.13,70.82,0
89,76.39,71.00,0
87,76.60,71.16,0
88,76.83,71.33,0
87,77.03,71.49,0
87,77.23,71.64,0
86,77.41,71.79,0
86,77.58,71.93,0
90,77.83,72.11,0
88,78.03,72.27,0
86,78.19,72.41,0
88,78.39,72.56,0
88,78.58,72.72,0
87,78.75,72.86,0
96,79.09,73.09,0
92,79.35,73.28,0
89,79.54,73.44,0
88,79.71,73.58,0
91,79.94,73.76,0
88,80.10,73.90,0
89,80.28,74.05,0
94,80.55,74.25,0
90,80.74,74.41,0
92,80.97,74.58,0
95,81.25,74.79,0
94,81.50,74.98,0
92,81.71,75.15,0
92,81.92,75.32,0
98,82.24,75.54,0
102,82.64,75.81,0
95,82.88,76.00,0
93,83.08,76.17,0
93,83.28,76.34,0
92,83.46,76.50,0
95,83.69,76.68,0
94,83.89,76.85,0
93,84.08,77.02,0
98,84.36,77.23,0
100,84.67,77.45,0
98,84.93,77.66,0
102,85.28,77.90,0
111,85.79,78.23,0
99,86.05,78.44,0
107,86.47,78.73,0
105,86.84,78.99,0
109,87.29,79.29,0
105,87.64,79.55,0
105,87.99,79.80,0
109,88.41,80.09,0
111,88.86,80.40,0
105,89.18,80.65,0
104,89.48,80.88,0
103,89.75,81.10,0
103,90.02,81.32,0
105,90.31,81.56,0
105,90.61,81.79,0
104,90.88,82.02,0
103,91.12,82.22,0
106,91.42,82.46,0
104,91.67,82.68,0
105,91.93,82.90,0
104,92.18,83.11,0
103,92.39,83.31,0
108,92.70,83.56,0
106,92.97,83.78,0
103,93.17,83.97,0
107,93.45,84.20,0
104,93.66,84.40,0
105,93.89,84.61,0
105,94.11,84.81,0
106,94.35,85.02,0
107,94.60,85.24,0
104,94.79,85.43,0
104,94.97,85.62,0
106,95.19,85.82,0
104,95.37,86.00,0
107,95.60,86.21,0
110,95.89,86.45,0
111,96.19,86.70,0
106,96.39,86.89,0
113,96.72,87.15,0
109,96.96,87.37,0
109,97.21,87.59,0
109,97.44,87.80,0
107,97.63,87.99,0
110,97.88,88.21,0
111,98.14,88.44,0
111,98.40,88.67,0
114,98.71,88.92,0
115,99.04,89.18,0
112,99.30,89.41,0
115,99.61,89.66,0
113,99.88,89.90,0
114,100.16,90.14,0
113,100.42,90.37,0
109,100.59,90.55,0
112,100.82,90.77,0
112,101.04,90.98,0
112,101.26,91.19,0
112,101.48,91.40,0
111,101.67,91.59,0
112,101.87,91.80,0
114,102.11,92.02,0
111,102.29,92.21,0
111,102.47,92.40,0
110,102.62,92.57,0
114,102.85,92.79,0
111,103.01,92.97,0
116,103.27,93.20,0
111,103.42,93.38,0
114,103.63,93.58,0
111,103.78,93.76,0
111,103.93,93.93,0
111,104.07,94.10,0
114,104.27,94.30,0
111,104.40,94.47,0
112,104.55,94.64,0
111,104.68,94.81,0
112,104.83,94.98,0
110,104.93,95.13,0
111,105.05,95.29,0
111,105.17,95.44,0
111,105.29,95.60,0
110,105.38,95.74,0
111,105.49,95.90,0
111,105.61,96.05,0
110,105.69,96.19,0
109,105.76,96.32,0
110,105.84,96.45,0
110,105.93,96.59,0
114,106.09,96.76,0
111,106.19,96.90,0
110,106.26,97.04,0
108,106.30,97.15,0
110,106.37,97.27,0
112,106.48,97.42,0
109,106.53,97.54,0
110,106.60,97.66,0
110,106.67,97.78,0
110,106.74,97.91,0
109,106.78,98.02,0
108,106.81,98.12,0
109,106.85,98.23,0
108,106.87,98.32,0
108,106.90,98.42,0
108,106.92,98.52,0
108,106.94,98.61,0
108,106.96,98.71,0
105,106.92,98.77,0
106,106.90,98.84,0
108,106.93,98.93,0
108,106.95,99.02,0
108,106.97,99.11,0
108,106.99,99.20,0
107,106.99,99.28,0
108,107.01,99.37,0
108,107.03,99.45,0
107,107.03,99.53,0
108,107.05,99.61,0
108,107.07,99.70,0
106,107.05,99.76,0
106,107.03,99.82,0
106,107.00,99.88,0
106,106.98,99.95,0
106,106.97,100.01,0
106,106.95,100.07,0
106,106.93,100.13,0
105,106.89,100.17,0
106,106.87,100.23,0
107,106.87,100.30,0
105,106.84,100.35,0
105,106.80,100.39,0
105,106.76,100.44,0
105,106.73,100.49,0
105,106.69,100.53,0
105,106.66,100.58,0
105,106.63,100.62,0
104,106.57,100.65,0
104,106.52,100.69,0
103,106.45,100.71,0
104,106.40,100.74,0
105,106.37,100.79,0
104,106.33,100.82,0
104,106.28,100.85,0
103,106.21,100.87,0
104,106.17,100.90,0
103,106.11,100.92,0
103,106.05,100.94,0
103,105.98,100.96,0
103,105.92,100.98,0
100,105.81,100.97,0
103,105.75,101.00,0
103,105.69,101.02,0
102,105.62,101.02,0
101,105.53,101.02,0
102,105.46,101.03,0
103,105.41,101.05,0
104,105.38,101.08,0
101,105.29,101.08,0
101,105.21,101.08,0
101,105.12,101.08,0
101,105.04,101.08,0
102,104.98,101.09,0
101,104.90,101.09,0
100,104.80,101.08,0
101,104.73,101.08,0
100,104.63,101.07,0
101,104.56,101.07,0
101,104.49,101.06,0
101,104.42,101.06,0
99,104.31,101.04,0
100,104.22,101.03,0
102,104.18,101.04,0
99,104.08,101.02,0
99,103.97,101.00,0
100,103.89,100.99,0
101,103.84,100.99,0
100,103.76,100.98,0
99,103.66,100.96,0
100,103.59,100.95,0
99,103.50,100.93,0
98,103.39,100.90,0
99,103.30,100.88,0
98,103.20,100.86,0
98,103.09,100.83,0
98,102.99,100.80,0
100,102.93,100.79,0
98,102.83,100.76,0
98,102.73,100.74,0
99,102.66,100.72,0
98,102.57,100.69,0
98,102.48,100.66,0
96,102.35,100.62,0
96,102.22,100.57,0
100,102.17,100.57,0
97,102.07,100.53,0
98,101.99,100.50,0
98,101.91,100.48,0
97,101.81,100.44,0
98,101.74,100.42,0
99,101.68,100.41,0
98,101.61,100.38,0
97,101.52,100.35,0
96,101.40,100.30,0
95,101.28,100.25,0
96,101.17,100.21,0
95,101.05,100.16,0
96,100.95,100.12,0
95,100.83,100.06,0
96,100.73,100.02,0
95,100.62,99.97,0
95,100.50,99.92,0
95,100.39,99.87,0
95,100.29,99.83,0
96,100.20,99.79,0
96,100.12,99.75,0
97,100.05,99.72,0
97,99.99,99.70,0
95,99.89,99.65,0
95,99.80,99.60,0
97,99.74,99.58,0
97,99.68,99.55,0
95,99.59,99.50,0
95,99.50,99.46,0
96,99.43,99.42,0
98,99.40,99.41,0
99,99.39,99.41,0
95,99.30,99.36,0
96,99.24,99.33,0
95,99.15,99.29,0
96,99.09,99.25,0
94,98.99,99.20,0
96,98.93,99.17,0
95,98.85,99.13,0
95,98.77,99.09,0
94,98.68,99.03,0
94,98.58,98.98,0
95,98.51,98.94,0
98,98.50,98.93,0
96,98.45,98.91,0
96,98.40,98.88,0
95,98.34,98.84,0
95,98.27,98.80,0
96,98.22,98.77,0
96,98.18,98.74,0
94,98.10,98.70,0
94,98.01,98.65,0
94,97.93,98.60,0
95,97.87,98.57,0
94,97.80,98.52,0
94,97.72,98.48,0
94,97.65,98.43,0
95,97.59,98.40,0
94,97.52,98.35,0
94,97.45,98.31,0
94,97.38,98.27,0
94,97.31,98.22,0
94,97.25,98.18,0
94,97.18,98.14,0
94,97.12,98.10,0
93,97.04,98.05,0
92,96.94,97.99,0
94,96.88,97.95,0
94,96.82,97.91,0
93,96.74,97.86,0
94,96.69,97.82,0
94,96.64,97.78,0
92,96.54,97.72,0
93,96.47,97.68,0
94,96.42,97.64,0
92,96.33,97.58,0
94,96.29,97.55,0
93,96.22,97.50,0
92,96.14,97.45,0
92,96.05,97.39,0
92,95.97,97.34,0
92,95.89,97.28,0
91,95.80,97.22,0
92,95.72,97.17,0
92,95.65,97.12,0
92,95.57,97.07,0
93,95.52,97.03,0
91,95.43,96.97,0
92,95.36,96.92,0
91,95.27,96.86,0
92,95.21,96.81,0
91,95.13,96.75,0
92,95.06,96.70,0
91,94.98,96.65,0
91,94.90,96.59,0
89,94.78,96.51,0
90,94.69,96.45,0
91,94.61,96.39,0
94,94.60,96.37,0
91,94.53,96.32,0
90,94.44,96.25,0
91,94.37,96.20,0
91,94.30,96.15,0
91,94.24,96.10,0
90,94.15,96.04,0
90,94.07,95.98,0
92,94.03,95.94,0
90,93.95,95.88,0
90,93.87,95.82,0
90,93.79,95.76,0
90,93.72,95.70,0
89,93.62,95.64,0
89,93.53,95.57,0
90,93.46,95.51,0
89,93.37,95.45,0
90,93.30,95.39,0
88,93.20,95.32,0
89,93.11,95.26,0
90,93.05,95.20,0
88,92.95,95.13,0
88,92.85,95.06,0
89,92.77,95.00,0
88,92.68,94.93,0
88,92.58,94.86,0
88,92.49,94.79,0
88,92.40,94.72,0
88,92.31,94.66,0
88,92.23,94.59,0
87,92.12,94.51,0
87,92.02,94.44,0
88,91.94,94.37,0
88,91.86,94.31,0
86,91.74,94.23,0
86,91.63,94.15,0
88,91.56,94.08,0
86,91.45,94.00,0
88,91.38,93.94,0
87,91.29,93.87,0
88,91.22,93.82,0
87,91.14,93.75,0
86,91.04,93.67,0
86,90.94,93.59,0
86,90.84,93.52,0
86,90.74,93.44,0
86,90.65,93.37,0
88,90.59,93.31,0
86,90.50,93.24,0
83,90.35,93.14,0
86,90.26,93.07,0
86,90.18,93.00,0
86,90.09,92.93,0
86,90.01,92.86,0
84,89.89,92.77,0
86,89.81,92.70,0
86,89.74,92.63,0
82,89.58,92.53,0
86,89.51,92.46,0
87,89.46,92.41,0
86,89.39,92.34,0
84,89.28,92.26,0
86,89.22,92.20,0
85,89.13,92.13,0
87,89.09,92.07,0
86,89.03,92.01,0
84,88.93,91.93,0
85,88.85,91.86,0
87,88.81,91.82,0
84,88.72,91.74,0
85,88.64,91.67,0
84,88.55,91.59,0
84,88.46,91.52,0
84,88.37,91.44,0
85,88.30,91.38,0
85,88.24,91.31,0
83,88.13,91.23,0
84,88.05,91.16,0
84,87.97,91.09,0
83,87.87,91.01,0
83,87.77,90.93,0
84,87.70,90.86,0
84,87.62,90.79,0
83,87.53,90.71,0
84,87.46,90.64,0
84,87.39,90.58,0
83,87.30,90.50,0
84,87.24,90.44,0
82,87.13,90.35,0
84,87.07,90.29,0
84,87.01,90.23,0
83,86.93,90.15,0
81,86.81,90.06,0
84,86.75,90.00,0
84,86.70,89.94,0
79,86.54,89.83,0
84,86.49,89.77,0
84,86.44,89.72,0
82,86.35,89.64,0
82,86.27,89.56,0
83,86.20,89.50,0
81,86.10,89.41,0
82,86.02,89.34,0
82,85.94,89.26,0
83,85.88,89.20,0
82,85.80,89.13,0
82,85.72,89.06,0
83,85.67,89.00,0
83,85.62,88.94,0
83,85.56,88.88,0
82,85.49,88.81,0
82,85.42,88.74,0
81,85.33,88.66,0
82,85.27,88.60,0
82,85.20,88.53,0
81,85.12,88.46,0
81,85.04,88.38,0
81,84.95,88.31,0
82,84.90,88.24,0
79,84.78,88.15,0
81,84.70,88.08,0
80,84.61,88.00,0
80,84.52,87.92,0
80,84.43,87.84,0
80,84.34,87.76,0
81,84.27,87.69,0
79,84.16,87.61,0
82,84.12,87.55,0
80,84.04,87.48,0
80,83.96,87.40,0
79,83.86,87.32,0
79,83.76,87.23,0
79,83.67,87.15,0
80,83.59,87.08,0
80,83.52,87.01,0
80,83.45,86.94,0
80,83.38,86.87,0
80,83.31,86.80,0
80,83.25,86.73,0
80,83.18,86.67,0
81,83.14,86.61,0
79,83.06,86.53,0
78,82.96,86.45,0
80,82.90,86.38,0
79,82.82,86.31,0
78,82.72,86.23,0
78,82.63,86.14,0
79,82.56,86.07,0
80,82.50,86.01,0
79,82.43,85.94,0
78,82.35,85.86,0
78,82.26,85.78,0
78,82.17,85.71,0
78,82.09,85.63,0
78,82.01,85.55,0
78,81.93,85.48,0
80,81.89,85.42,0
78,81.81,85.35,0
78,81.74,85.27,0
81,81.72,85.23,0
80,81.69,85.18,0
81,81.67,85.14,0
82,81.68,85.11,0
79,81.63,85.05,0
79,81.57,84.98,0
78,81.50,84.91,0
79,81.45,84.86,0
78,81.38,84.79,0
78,81.31,84.72,0
78,81.25,84.65,0
78,81.18,84.59,0
78,81.12,84.52,0
78,81.06,84.45,0
78,81.00,84.39,0
78,80.94,84.33,0
78,80.88,84.26,0
78,80.82,84.20,0
79,80.78,84.15,0
78,80.73,84.09,0
79,80.69,84.04,0
78,80.64,83.98,0
80,80.63,83.94,0
78,80.57,83.88,0
77,80.50,83.81,0
76,80.41,83.73,0
76,80.32,83.65,0
78,80.28,83.60,0
77,80.21,83.53,0
78,80.17,83.47,0
77,80.10,83.41,0
78,80.06,83.36,0
78,80.02,83.30,0
77,79.96,83.24,0
77,79.90,83.18,0
76,79.82,83.10,0
76,79.75,83.03,0
76,79.67,82.96,0
76,79.60,82.89,0
76,79.53,82.82,0
76,79.46,82.76,0
76,79.39,82.69,0
76,79.32,82.62,0
76,79.25,82.56,0
76,79.19,82.49,0
78,79.16,82.45,0
76,79.10,82.38,0
76,79.04,82.32,0
77,79.00,82.26,0
75,78.92,82.19,0
76,78.86,82.13,0
76,78.80,82.07,0
76,78.75,82.01,0
73,78.63,81.92,0
74,78.54,81.84,0
74,78.45,81.76,0
75,78.38,81.69,0
75,78.31,81.63,0
74,78.23,81.55,0
74,78.14,81.47,0
76,78.10,81.42,0
73,78.00,81.33,0
74,77.92,81.26,0
75,77.86,81.20,0
74,77.78,81.13,0
74,77.71,81.06,0
74,77.63,80.98,0
74,77.56,80.92,0
76,77.53,80.87,0
76,77.50,80.82,0
75,77.45,80.76,0
74,77.38,80.69,0
75,77.33,80.63,0
76,77.30,80.59,0
74,77.24,80.52,0
74,77.17,80.46,0
76,77.15,80.41,0
74,77.09,80.35,0
74,77.02,80.28,0
74,76.96,80.22,0
74,76.90,80.16,0
76,76.89,80.12,0
74,76.83,80.06,0
74,76.77,80.00,0
76,76.76,79.96,0
76,76.74,79.92,0
74,76.69,79.86,0
73,76.61,79.79,0
74,76.56,79.73,0
73,76.49,79.66,0
74,76.44,79.61,0
74,76.39,79.55,0
74,76.34,79.50,0
74,76.30,79.44,0
74,76.25,79.39,0
74,76.21,79.33,0
73,76.14,79.27,0
74,76.10,79.22,0
72,76.02,79.14,0
72,75.94,79.07,0
74,75.90,79.02,0
73,75.84,78.96,0
72,75.76,78.89,0
74,75.73,78.84,0
76,75.73,78.82,0
73,75.68,78.76,0
72,75.60,78.69,0
72,75.53,78.62,0
72,75.46,78.56,0
72,75.39,78.49,0
72,75.33,78.43,0
72,75.26,78.36,0
75,75.25,78.33,0
73,75.21,78.27,0
70,75.10,78.19,0
70,75.00,78.11,0
72,74.94,78.05,0
72,74.88,77.99,0
72,74.83,77.93,0
70,74.73,77.85,0
69,74.61,77.76,0
72,74.56,77.70,0
70,74.47,77.63,0
70,74.38,77.55,0
71,74.31,77.48,0
70,74.23,77.41,0
70,74.14,77.34,0
70,74.06,77.26,0
69,73.96,77.18,0
70,73.88,77.11,0
70,73.80,77.04,0
70,73.73,76.97,0
70,73.65,76.90,0
72,73.62,76.85,0
71,73.57,76.79,0
70,73.49,76.72,0
70,73.43,76.65,0
70,73.36,76.59,0
69,73.27,76.51,0
70,73.20,76.45,0
71,73.16,76.39,0
69,73.08,76.32,0
70,73.02,76.25,0
70,72.95,76.19,0
70,72.90,76.13,0
73,72.90,76.10,0
70,72.84,76.04,0
70,72.78,75.98,0
71,72.75,75.93,0
69,72.67,75.86,0
70,72.62,75.80,0
70,72.57,75.74,0
70,72.52,75.68,0
69,72.45,75.62,0
70,72.40,75.56,0
69,72.33,75.50,0
70,72.28,75.44,0
69,72.22,75.38,0
70,72.17,75.32,0
68,72.09,75.25,0
71,72.07,75.21,0
69,72.01,75.15,0
69,71.95,75.08,0
68,71.87,75.01,0
69,71.81,74.95,0
69,71.75,74.89,0
68,71.68,74.82,0
68,71.60,74.76,0
69,71.55,74.70,0
68,71.48,74.63,0
68,71.41,74.57,0
68,71.34,74.50,0
69,71.30,74.44,0
69,71.25,74.39,0
68,71.19,74.33,0
68,71.12,74.26,0
68,71.06,74.20,0
68,71.00,74.14,0
68,70.94,74.08,0
68,70.88,74.02,0
68,70.82,73.96,0
68,70.77,73.90,0
67,70.69,73.83,0
66,70.60,73.75,0
66,70.50,73.67,0
67,70.43,73.60,0
70,70.43,73.57,0
70,70.42,73.53,0
68,70.37,73.48,0
67,70.30,73.41,0
66,70.22,73.34,0
66,70.13,73.27,0
66,70.05,73.19,0
67,69.99,73.13,0
67,69.93,73.07,0
67,69.87,73.01,0
67,69.81,72.95,0
67,69.76,72.89,0
66,69.68,72.82,0
66,69.61,72.75,0
66,69.53,72.68,0
66,69.46,72.62,0
66,69.39,72.55,0
68,69.37,72.51,0
67,69.32,72.45,0
66,69.25,72.39,0
66,69.19,72.32,0
66,69.12,72.26,0
66,69.06,72.20,0
66,69.00,72.14,0
66,68.94,72.07,0
66,68.88,72.01,0
67,68.84,71.96,0
66,68.79,71.90,0
66,68.73,71.84,0
66,68.68,71.79,0
65,68.60,71.72,0
66,68.55,71.66,0
66,68.50,71.60,0
70,68.53,71.59,0
66,68.48,71.53,0
66,68.43,71.48,0
66,68.38,71.42,0
66,68.33,71.37,0
65,68.27,71.30,0
66,68.22,71.25,0
68,68.22,71.22,0
70,68.25,71.21,0
65,68.19,71.14,0
66,68.14,71.09,0
68,68.14,71.06,0
65,68.08,71.00,0
65,68.02,70.94,0
64,67.94,70.87,0
64,67.86,70.80,0
64,67.78,70.74,0
64,67.71,70.67,0
66,67.67,70.62,0
65,67.62,70.56,0
65,67.57,70.51,0
64,67.49,70.44,0
64,67.42,70.38,0
64,67.36,70.32,0
64,67.29,70.25,0
64,67.22,70.19,0
63,67.14,70.12,0
64,67.08,70.06,0
64,67.01,70.00,0
64,66.95,69.94,0
63,66.87,69.87,0
64,66.82,69.81,0
64,66.76,69.75,0
63,66.69,69.68,0
63,66.61,69.62,0
63,66.54,69.55,0
64,66.49,69.49,0
67,66.50,69.47,0
64,66.45,69.41,0
64,66.40,69.36,0
64,66.35,69.31,0
64,66.30,69.25,0
64,66.26,69.20,0
64,66.21,69.15,0
64,66.17,69.10,0
64,66.13,69.05,0
64,66.08,69.00,0
63,66.02,68.94,0
63,65.96,68.88,0
64,65.92,68.83,0
64,65.88,68.78,0
62,65.81,68.71,0
62,65.73,68.65,0
64,65.70,68.60,0
63,65.64,68.54,0
62,65.57,68.48,0
62,65.50,68.41,0
62,65.43,68.35,0
62,65.36,68.29,0
62,65.29,68.22,0
62,65.23,68.16,0
63,65.18,68.11,0
61,65.10,68.04,0
62,65.04,67.98,0
62,64.97,67.92,0
63,64.94,67.87,0
62,64.88,67.81,0
62,64.82,67.75,0
62,64.76,67.69,0
64,64.75,67.66,0
61,64.67,67.59,0
62,64.62,67.53,0
62,64.57,67.48,0
62,64.52,67.42,0
62,64.47,67.37,0
62,64.42,67.32,0
62,64.37,67.26,0
61,64.30,67.20,0
61,64.23,67.14,0
62,64.19,67.09,0
62,64.15,67.04,0
62,64.10,66.99,0
61,64.04,66.93,0
62,64.00,66.88,0
62,63.96,66.83,0
62,63.92,66.78,0
62,63.88,66.73,0
62,63.84,66.68,0
62,63.81,66.64,0
61,63.75,66.58,0
62,63.72,66.54,0
60,63.64,66.47,0
61,63.59,66.42,0
63,63.58,66.38,0
60,63.51,66.32,0
60,63.44,66.25,0
60,63.37,66.19,0
61,63.32,66.14,0
60,63.25,66.08,0
60,63.19,66.02,0
62,63.16,65.98,0
61,63.12,65.93,0
60,63.06,65.87,0
62,63.04,65.83,0
60,62.98,65.77,0
61,62.94,65.72,0
60,62.88,65.67,0
62,62.86,65.63,0
60,62.80,65.57,0
60,62.75,65.52,0
62,62.73,65.48,0
61,62.70,65.44,0
60,62.64,65.38,0
59,62.57,65.32,0
60,62.52,65.27,0
60,62.47,65.21,0
60,62.42,65.16,0
60,62.37,65.11,0
60,62.32,65.06,0
60,62.28,65.01,0
59,62.21,64.95,0
60,62.17,64.90,0
60,62.12,64.85,0
64,62.16,64.84,0
60,62.12,64.79,0
60,62.08,64.74,0
60,62.04,64.70,0
60,61.99,64.65,0
61,61.97,64.61,0
61,61.96,64.58,0
61,61.94,64.54,0
62,61.94,64.52,0
60,61.90,64.47,0
59,61.84,64.42,0
60,61.80,64.37,0
60,61.77,64.33,0
60,61.73,64.29,0
60,61.70,64.24,0
61,61.68,64.21,0
60,61.65,64.17,0
60,61.62,64.13,0
59,61.56,64.08,0
60,61.53,64.03,0
59,61.48,63.98,0
58,61.41,63.92,0
58,61.34,63.87,0
60,61.32,63.83,0
58,61.25,63.77,0
58,61.19,63.71,0
57,61.10,63.64,0
58,61.04,63.59,0
58,60.98,63.53,0
58,60.92,63.48,0
58,60.86,63.42,0
58,60.80,63.37,0
58,60.75,63.31,0
58,60.69,63.26,0
57,60.62,63.20,0
60,60.61,63.17,0
58,60.56,63.11,0
58,60.50,63.06,0
57,60.43,63.00,0
58,60.39,62.95,0
58,60.34,62.90,0
58,60.29,62.85,0
58,60.25,62.80,0
59,60.22,62.77,0
58,60.18,62.72,0
58,60.13,62.67,0
57,60.07,62.62,0
57,60.01,62.56,0
58,59.97,62.51,0
56,59.89,62.45,0
58,59.85,62.40,0
58,59.81,62.36,0
58,59.78,62.32,0
56,59.70,62.25,0
58,59.67,62.21,0
58,59.63,62.17,0
58,59.60,62.13,0
58,59.57,62.09,0
57,59.52,62.03,0
58,59.49,61.99,0
56,59.42,61.93,0
56,59.35,61.88,0
57,59.30,61.83,0
58,59.28,61.79,0
56,59.21,61.73,0
58,59.19,61.69,0
58,59.16,61.66,0
58,59.14,61.62,0
56,59.08,61.56,0
56,59.02,61.51,0
56,58.96,61.45,0
56,58.90,61.40,0
58,58.88,61.36,0
56,58.82,61.31,0
57,58.78,61.27,0
56,58.73,61.21,0
60,58.75,61.20,0
56,58.70,61.15,0
56,58.65,61.10,0
56,58.59,61.05,0
56,58.54,61.00,0
56,58.49,60.95,0
56,58.44,60.90,0
57,58.41,60.86,0
56,58.36,60.81,0
56,58.32,60.76,0
55,58.25,60.70,0
54,58.16,60.64,0
56,58.12,60.59,0
56,58.08,60.55,0
56,58.04,60.50,0
55,57.98,60.44,0
56,57.94,60.40,0
55,57.88,60.35,0
55,57.82,60.29,0
58,57.82,60.27,0
54,57.75,60.21,0
54,57.67,60.15,0
54,57.60,60.08,0
54,57.53,60.02,0
54,57.46,59.96,0
54,57.39,59.90,0
55,57.34,59.85,0
55,57.29,59.81,0
54,57.23,59.75,0
54,57.16,59.69,0
54,57.10,59.63,0
56,57.08,59.60,0
54,57.02,59.54,0
54,56.96,59.49,0
56,56.94,59.45,0
56,56.92,59.42,0
55,56.88,59.37,0
54,56.82,59.32,0
53,56.75,59.26,0
58,56.77,59.24,0
55,56.73,59.20,0
54,56.68,59.15,0
53,56.61,59.09,0
53,56.53,59.03,0
54,56.48,58.98,0
53,56.41,58.92,0
55,56.39,58.88,0
56,56.38,58.85,0
54,56.33,58.80,0
54,56.28,58.75,0
55,56.26,58.71,0
54,56.21,58.67,0
54,56.17,58.62,0
54,56.13,58.57,0
54,56.08,58.53,0
51,55.98,58.45,0
54,55.94,58.41,0
54,55.90,58.36,0
54,55.86,58.32,0
53,55.81,58.27,0
54,55.77,58.22,0
52,55.70,58.16,0
53,55.64,58.11,0
54,55.61,58.07,0
54,55.58,58.03,0
52,55.51,57.97,0
53,55.46,57.92,0
53,55.41,57.87,0
54,55.38,57.83,0
52,55.31,57.77,0
54,55.28,57.74,0
53,55.24,57.69,0
54,55.21,57.65,0
54,55.19,57.61,0
53,55.15,57.57,0
52,55.08,57.51,0
54,55.06,57.48,0
54,55.04,57.44,0
53,55.00,57.40,0
54,54.98,57.36,0
52,54.92,57.31,0
52,54.86,57.26,0
53,54.82,57.21,0
54,54.81,57.18,0
52,54.75,57.13,0
53,54.72,57.09,0
52,54.66,57.04,0
51,54.59,56.98,0
52,54.54,56.93,0
52,54.49,56.88,0
52,54.44,56.83,0
52,54.39,56.78,0
52,54.34,56.73,0
52,54.29,56.69,0
54,54.29,56.66,0
54,54.28,56.63,0
52,54.24,56.59,0
52,54.19,56.54,0
53,54.17,56.51,0
52,54.12,56.46,0
52,54.08,56.42,0
52,54.04,56.37,0
52,54.00,56.33,0
52,53.96,56.29,0
54,53.96,56.26,0
52,53.92,56.22,0
54,53.92,56.20,0
52,53.88,56.16,0
52,53.85,56.11,0
51,53.79,56.06,0
53,53.77,56.03,0
54,53.78,56.01,0
53,53.76,55.98,0
53,53.75,55.95,0
52,53.71,55.91,0
54,53.72,55.89,0
52,53.68,55.85,0
52,53.65,55.82,0
52,53.62,55.78,0
52,53.58,55.74,0
52,53.55,55.70,0
53,53.54,55.68,0
54,53.55,55.66,0
56,53.60,55.66,0
54,53.61,55.65,0
58,53.70,55.67,0
59,53.80,55.70,0
55,53.83,55.70,0
55,53.85,55.69,0
57,53.91,55.70,0
56,53.95,55.70,0
55,53.98,55.70,0
54,53.98,55.68,0
56,54.02,55.68,0
55,54.04,55.68,0
56,54.08,55.68,0
55,54.09,55.67,0
55,54.11,55.67,0
56,54.15,55.67,0
56,54.19,55.67,0
55,54.20,55.67,0
54,54.20,55.65,0
54,54.19,55.63,0
57,54.25,55.65,0
54,54.25,55.63,0
54,54.24,55.61,0
56,54.28,55.62,0
54,54.27,55.60,0
54,54.27,55.59,0
54,54.26,55.57,0
54,54.25,55.55,0
55,54.27,55.55,0
54,54.26,55.53,0
54,54.26,55.52,0
60,54.37,55.56,0
56,54.41,55.57,0
56,54.44,55.57,0
55,54.45,55.57,0
55,54.46,55.56,0
54,54.45,55.54,0
54,54.44,55.53,0
54,54.43,55.51,0
54,54.42,55.50,0
55,54.44,55.49,0
56,54.47,55.50,0
56,54.50,55.50,0
54,54.49,55.49,0
58,54.56,55.51,0
58,54.63,55.54,0
58,54.69,55.56,0
59,54.78,55.60,0
57,54.83,55.61,0
58,54.89,55.64,0
58,54.95,55.66,0
60,55.05,55.70,0
58,55.11,55.73,0
58,55.17,55.75,0
60,55.27,55.79,0
57,55.30,55.80,0
58,55.35,55.82,0
56,55.37,55.83,0
57,55.40,55.84,0
58,55.45,55.86,0
57,55.48,55.87,0
57,55.51,55.88,0
58,55.56,55.90,0
57,55.59,55.91,0
58,55.64,55.94,0
58,55.69,55.96,0
57,55.71,55.97,0
57,55.74,55.98,0
56,55.74,55.98,0
56,55.75,55.98,0
56,55.75,55.98,0
56,55.76,55.98,0
58,55.80,56.00,0
58,55.85,56.02,0
58,55.89,56.04,0
57,55.91,56.05,0
59,55.97,56.08,0
57,56.00,56.09,0
56,56.00,56.09,0
58,56.04,56.10,0
58,56.07,56.12,0
58,56.11,56.14,0
59,56.17,56.17,0
59,56.23,56.20,0
56,56.22,56.20,0
57,56.24,56.21,0
59,56.29,56.23,0
59,56.35,56.26,0
60,56.42,56.30,0
58,56.45,56.32,0
62,56.56,56.37,0
60,56.63,56.41,0
59,56.68,56.43,0
58,56.71,56.45,0
59,56.75,56.48,0
59,56.80,56.50,0
66,56.98,56.60,0
62,57.08,56.65,0
60,57.14,56.68,0
63,57.26,56.75,0
62,57.35,56.80,0
60,57.40,56.83,0
60,57.46,56.86,0
59,57.49,56.88,0
60,57.54,56.92,0
60,57.59,56.95,0
60,57.64,56.98,0
59,57.66,57.00,0
60,57.71,57.03,0
61,57.78,57.07,0
61,57.84,57.11,0
61,57.90,57.14,0
61,57.96,57.18,0
60,58.01,57.21,0
60,58.05,57.24,0
59,58.06,57.26,0
61,58.12,57.29,0
62,58.20,57.34,0
59,58.22,57.36,0
59,58.23,57.37,0
61,58.29,57.41,0
60,58.32,57.44,0
64,58.44,57.50,0
61,58.49,57.54,0
63,58.58,57.59,0
60,58.61,57.62,0
60,58.63,57.64,0
64,58.74,57.70,0
61,58.79,57.74,0
62,58.85,57.78,0
62,58.91,57.82,0
62,58.97,57.86,0
64,59.08,57.92,0
62,59.13,57.97,0
62,59.19,58.01,0
62,59.25,58.05,0
63,59.32,58.10,0
60,59.34,58.11,0
64,59.43,58.17,0
63,59.50,58.22,0
62,59.55,58.26,0
64,59.64,58.32,0
66,59.77,58.39,0
65,59.87,58.46,0
64,59.95,58.51,0
63,60.02,58.56,0
68,60.17,58.65,0
63,60.23,58.70,0
64,60.31,58.75,0
68,60.46,58.84,0
68,60.61,58.93,0
64,60.68,58.99,0
64,60.75,59.04,0
66,60.85,59.11,0
70,61.03,59.21,0
72,61.25,59.34,0
68,61.39,59.43,0
72,61.60,59.55,0
76,61.89,59.72,0
72,62.09,59.84,0
70,62.25,59.94,0
68,62.36,60.02,0
66,62.44,60.08,0
69,62.57,60.17,0
68,62.68,60.25,0
70,62.82,60.35,0
70,62.97,60.44,0
68,63.07,60.52,0
68,63.17,60.60,0
68,63.26,60.67,0
68,63.36,60.74,0
67,63.43,60.81,0
70,63.56,60.90,0
70,63.69,60.99,0
70,63.82,61.08,0
69,63.92,61.16,0
68,64.00,61.23,0
72,64.16,61.33,0
74,64.36,61.46,0
73,64.53,61.58,0
70,64.64,61.66,0
72,64.79,61.76,0
74,64.97,61.89,0
73,65.13,62.00,0
71,65.25,62.09,0
73,65.40,62.20,0
72,65.54,62.29,0
71,65.65,62.38,0
70,65.73,62.46,0
72,65.86,62.55,0
71,65.96,62.64,0
76,66.16,62.77,0
74,66.32,62.88,0
74,66.47,62.99,0
79,66.72,63.15,0
86,67.11,63.38,0
83,67.43,63.58,0
76,67.60,63.70,0
80,67.85,63.87,0
81,68.11,64.04,0
79,68.33,64.19,0
81,68.58,64.36,0
81,68.83,64.52,0
79,69.03,64.67,0
79,69.23,64.81,0
83,69.51,64.99,0
81,69.74,65.15,0
79,69.92,65.29,0
82,70.16,65.46,0
82,70.40,65.62,0
84,70.67,65.81,0
83,70.92,65.98,0
81,71.12,66.13,0
83,71.36,66.30,0
88,71.69,66.51,0
88,72.02,66.73,0
84,72.26,66.90,0
82,72.45,67.05,0
86,72.72,67.24,0
86,72.99,67.43,0
88,73.29,67.64,0
86,73.54,67.82,0
84,73.75,67.98,0
82,73.92,68.12,0
88,74.20,68.32,0
86,74.43,68.50,0
84,74.63,68.65,0
88,74.89,68.85,0
89,75.18,69.05,0
86,75.39,69.22,0
89,75.66,69.41,0
99,76.13,69.71,0
98,76.57,69.99,0
89,76.82,70.18,0
90,77.08,70.38,0
95,77.44,70.63,0
93,77.75,70.85,0
91,78.02,71.05,0
90,78.25,71.24,0
94,78.57,71.47,0
94,78.88,71.70,0
90,79.10,71.88,0
96,79.44,72.12,0
101,79.87,72.41,0
93,80.13,72.61,0
95,80.43,72.84,0
97,80.76,73.08,0
96,81.07,73.31,0
96,81.36,73.54,0
95,81.64,73.75,0
94,81.88,73.95,0
98,82.21,74.19,0
98,82.52,74.43,0
95,82.77,74.64,0
99,83.10,74.88,0
102,83.48,75.15,0
99,83.79,75.39,0
98,84.07,75.62,0
97,84.33,75.83,0
100,84.64,76.07,0
99,84.93,76.30,0
97,85.17,76.51,0
100,85.47,76.74,0
99,85.74,76.97,0
99,86.00,77.19,0
101,86.30,77.42,0
99,86.56,77.64,0
99,86.81,77.85,0
98,87.03,78.06,0
102,87.33,78.29,0
99,87.56,78.50,0
102,87.85,78.74,0
100,88.09,78.95,0
103,88.39,79.19,0
103,88.68,79.43,0
102,88.95,79.65,0
101,89.19,79.87,0
99,89.39,80.06,0
100,89.60,80.26,0
103,89.87,80.49,0
99,90.05,80.67,0
102,90.29,80.88,0
105,90.58,81.12,0
101,90.79,81.32,0
103,91.04,81.54,0
101,91.24,81.73,0
103,91.47,81.95,0
104,91.72,82.17,0
103,91.95,82.38,0
107,92.25,82.62,0
103,92.46,82.83,0
106,92.73,83.06,0
107,93.02,83.30,0
104,93.24,83.50,0
101,93.39,83.68,0
103,93.59,83.87,0
108,93.87,84.11,0
107,94.14,84.34,0
108,94.41,84.58,0
106,94.65,84.79,0
109,94.93,85.04,0
104,95.11,85.23,0
106,95.33,85.43,0
105,95.53,85.63,0
105,95.72,85.82,0
106,95.92,86.02,0
108,96.16,86.24,0
106,96.36,86.44,0
109,96.61,86.67,0
111,96.90,86.91,0
111,97.18,87.15,0
107,97.38,87.35,0
111,97.65,87.59,0
112,97.94,87.83,0
114,98.26,88.09,0
116,98.61,88.37,0
112,98.88,88.61,0
112,99.14,88.84,0
111,99.38,89.06,0
114,99.67,89.31,0
114,99.96,89.56,0
113,100.22,89.79,0
113,100.48,90.03,0
113,100.73,90.26,0
112,100.95,90.47,0
113,101.19,90.70,0
110,101.37,90.89,0
114,101.62,91.12,0
118,101.95,91.39,0
112,102.15,91.60,0
112,102.35,91.80,0
111,102.52,91.99,0
112,102.71,92.19,0
112,102.90,92.39,0
112,103.08,92.59,0
113,103.28,92.79,0
110,103.41,92.96,0
114,103.62,93.17,0
112,103.79,93.36,0
111,103.93,93.54,0
110,104.06,93.70,0
111,104.19,93.88,0
111,104.33,94.05,0
111,104.46,94.22,0
110,104.57,94.37,0
113,104.74,94.56,0
110,104.85,94.72,0
110,104.95,94.87,0
110,105.05,95.02,0
109,105.13,95.16,0
108,105.19,95.29,0
110,105.28,95.43,0
110,105.38,95.58,0
108,105.43,95.70,0
108,105.48,95.83,0
108,105.53,95.95,0
108,105.58,96.07,0
108,105.63,96.19,0
107,105.66,96.30,0
107,105.69,96.40,0
107,105.71,96.51,0
108,105.76,96.63,0
106,105.76,96.72,0
108,105.81,96.83,0
106,105.81,96.92,0
107,105.83,97.02,0
106,105.84,97.11,0
108,105.88,97.22,0
107,105.90,97.32,0
106,105.91,97.41,0
106,105.91,97.49,0
106,105.91,97.58,0
106,105.91,97.66,0
106,105.91,97.75,0
106,105.91,97.83,0
108,105.96,97.93,0
106,105.96,98.01,0
105,105.94,98.08,0
104,105.90,98.14,0
105,105.88,98.21,0
106,105.88,98.29,0
106,105.89,98.36,0
106,105.89,98.44,0
104,105.85,98.50,0
107,105.87,98.58,0
106,105.88,98.65,0
106,105.88,98.73,0
106,105.88,98.80,0
104,105.84,98.85,0
104,105.81,98.90,0
105,105.79,98.97,0
107,105.81,99.05,0
106,105.82,99.12,0
104,105.78,99.16,0
104,105.75,99.21,0
104,105.71,99.26,0
104,105.68,99.31,0
103,105.62,99.34,0
105,105.61,99.40,0
106,105.62,99.47,0
103,105.57,99.50,0
107,105.60,99.58,0
108,105.64,99.66,0
104,105.61,99.71,0
104,105.58,99.75,0
108,105.63,99.83,0
106,105.63,99.89,0
104,105.60,99.93,0
106,105.61,99.99,0
104,105.58,100.03,0
104,105.55,100.07,0
103,105.49,100.10,0
104,105.46,100.14,0
104,105.44,100.18,0
104,105.41,100.22,0
104,105.38,100.26,0
104,105.35,100.29,0
104,105.32,100.33,0
103,105.28,100.36,0
103,105.23,100.38,0
103,105.19,100.41,0
103,105.14,100.44,0
104,105.12,100.47,0
103,105.08,100.50,0
105,105.08,100.54,0
104,105.06,100.58,0
104,105.03,100.61,0
103,104.99,100.64,0
103,104.95,100.66,0
103,104.91,100.68,0
103,104.88,100.71,0
103,104.84,100.73,0
103,104.80,100.75,0
101,104.73,100.75,0
101,104.65,100.76,0
101,104.58,100.76,0
101,104.51,100.76,0
101,104.44,100.76,0
101,104.37,100.77,0
102,104.32,100.78,0
101,104.25,100.78,0
101,104.19,100.78,0
101,104.13,100.78,0
101,104.06,100.79,0
101,104.00,100.79,0
105,104.02,100.83,0
102,103.98,100.84,0
101,103.92,100.84,0
99,103.82,100.83,0
99,103.73,100.81,0
100,103.65,100.80,0
101,103.60,100.80,0
100,103.53,100.79,0
99,103.44,100.78,0
101,103.39,100.78,0
100,103.32,100.77,0
99,103.23,100.75,0
100,103.17,100.74,0
99,103.09,100.73,0
99,103.00,100.71,0
99,102.92,100.69,0
98,102.83,100.67,0
98,102.73,100.64,0
98,102.63,100.61,0
98,102.54,100.59,0
99,102.47,100.57,0
100,102.42,100.57,0
99,102.35,100.55,0
99,102.29,100.53,0
101,102.26,100.54,0
97,102.15,100.50,0
98,102.07,100.48,0
98,101.99,100.45,0
97,101.89,100.42,0
97,101.79,100.38,0
97,101.70,100.35,0
97,101.60,100.32,0
96,101.49,100.27,0
98,101.42,100.25,0
98,101.35,100.23,0
97,101.27,100.20,0
98,101.20,100.17,0
97,101.12,100.14,0
96,101.01,100.10,0
97,100.93,100.07,0
98,100.88,100.05,0
96,100.78,100.01,0
96,100.68,99.97,0
97,100.61,99.94,0
95,100.50,99.89,0
95,100.39,99.84,0
96,100.30,99.80,0
95,100.19,99.75,0
96,100.11,99.72,0
96,100.03,99.68,0
95,99.93,99.63,0
95,99.83,99.59,0
95,99.73,99.54,0
97,99.68,99.52,0
96,99.60,99.48,0
96,99.53,99.45,0
95,99.44,99.40,0
95,99.35,99.36,0
94,99.24,99.30,0
94,99.14,99.25,0
94,99.04,99.20,0
94,98.94,99.15,0
94,98.84,99.09,0
94,98.74,99.04,0
95,98.67,99.00,0
95,98.59,98.96,0
94,98.50,98.91,0
94,98.41,98.86,0
94,98.32,98.82,0
95,98.26,98.78,0
94,98.17,98.73,0
93,98.07,98.67,0
94,97.99,98.63,0
94,97.91,98.58,0
94,97.83,98.53,0
96,97.79,98.51,0
95,97.74,98.47,0
92,97.62,98.41,0
92,97.51,98.34,0
94,97.44,98.30,0
93,97.35,98.25,0
92,97.24,98.19,0
92,97.14,98.12,0
95,97.10,98.09,0
93,97.01,98.04,0
92,96.91,97.98,0
94,96.85,97.94,0
92,96.76,97.88,0
92,96.66,97.82,0
93,96.59,97.77,0
92,96.50,97.72,0
90,96.37,97.64,0
92,96.28,97.58,0
94,96.23,97.55,0
92,96.15,97.49,0
92,96.07,97.44,0
92,95.99,97.38,0
92,95.91,97.33,0
93,95.85,97.29,0
92,95.77,97.23,0
92,95.70,97.18,0
90,95.58,97.11,0
92,95.51,97.06,0
93,95.46,97.02,0
91,95.37,96.96,0
94,95.34,96.93,0
92,95.28,96.88,0
91,95.19,96.82,0
91,95.11,96.76,0
90,95.00,96.69,0
90,94.90,96.63,0
92,94.85,96.58,0
90,94.75,96.51,0
92,94.69,96.47,0
93,94.66,96.43,0
91,94.59,96.38,0
92,94.54,96.34,0
94,94.52,96.31,0
92,94.47,96.27,0
91,94.40,96.22,0
92,94.36,96.18,0
92,94.31,96.13,0
92,94.26,96.09,0
90,94.18,96.03,0
90,94.09,95.97,0
92,94.05,95.93,0
90,93.97,95.87,0
91,93.91,95.82,0
96,93.95,95.83,0
90,93.87,95.77,0
90,93.80,95.71,0
90,93.72,95.65,0
91,93.67,95.61,0
90,93.59,95.55,0
90,93.52,95.49,0
90,93.45,95.44,0
93,93.44,95.41,0
92,93.41,95.38,0
90,93.35,95.33,0
90,93.28,95.27,0
91,93.23,95.23,0
90,93.17,95.18,0
90,93.10,95.13,0
90,93.04,95.08,0
92,93.02,95.04,0
92,93.00,95.01,0
92,92.98,94.98,0
90,92.92,94.93,0
91,92.88,94.89,0
93,92.89,94.88,0
91,92.85,94.84,0
90,92.79,94.79,0
92,92.78,94.76,0
91,92.74,94.72,0
94,92.76,94.72,0
90,92.71,94.67,0
92,92.70,94.64,0
91,92.66,94.61,0
90,92.61,94.56,0
90,92.56,94.51,0
91,92.53,94.48,0
90,92.47,94.43,0
90,92.43,94.39,0
90,92.38,94.35,0
91,92.35,94.31,0
90,92.30,94.27,0
90,92.26,94.23,0
90,92.21,94.18,0
89,92.15,94.13,0
90,92.10,94.09,0
90,92.06,94.05,0
90,92.02,94.01,0
89,91.96,93.96,0
90,91.92,93.92,0
90,91.88,93.88,0
90,91.84,93.84,0
89,91.79,93.79,0
89,91.73,93.75,0
88,91.66,93.69,0
90,91.62,93.65,0
89,91.57,93.60,0
89,91.52,93.56,0
88,91.45,93.50,0
88,91.38,93.45,0
89,91.33,93.40,0
88,91.27,93.35,0
90,91.24,93.32,0
90,91.22,93.28,0
89,91.17,93.24,0
88,91.11,93.19,0
92,91.13,93.18,0
88,91.06,93.12,0
89,91.02,93.08,0
88,90.96,93.03,0
90,90.94,93.00,0
88,90.88,92.95,0
90,90.87,92.92,0
88,90.81,92.87,0
92,90.83,92.86,0
88,90.78,92.82,0
90,90.76,92.79,0
90,90.75,92.76,0
88,90.69,92.71,0
89,90.66,92.67,0
88,90.60,92.63,0
88,90.55,92.58,0
87,90.48,92.53,0
89,90.45,92.49,0
88,90.40,92.45,0
87,90.33,92.39,0
90,90.33,92.37,0
89,90.30,92.33,0
88,90.25,92.29,0
89,90.23,92.26,0
88,90.19,92.22,0
88,90.14,92.17,0
90,90.14,92.15,0
90,90.14,92.13,0
88,90.09,92.09,0
91,90.11,92.08,0
90,90.11,92.06,0
88,90.07,92.02,0
88,90.03,91.98,0
88,89.99,91.94,0
90,89.99,91.92,0
89,89.97,91.89,0
89,89.95,91.86,0
88,89.91,91.82,0
90,89.91,91.80,0
90,89.91,91.78,0
88,89.87,91.75,0
87,89.82,91.70,0
89,89.80,91.67,0
88,89.76,91.63,0
87,89.71,91.59,0
87,89.65,91.54,0
88,89.62,91.51,0
88,89.59,91.47,0
87,89.54,91.43,0
86,89.47,91.37,0
88,89.44,91.34,0
88,89.41,91.31,0
87,89.36,91.26,0
86,89.29,91.21,0
85,89.21,91.15,0
87,89.16,91.11,0
86,89.10,91.06,0
86,89.04,91.01,0
89,89.04,90.99,0
89,89.04,90.97,0
86,88.97,90.92,0
88,88.96,90.89,0
88,88.94,90.86,0
87,88.90,90.82,0
88,88.88,90.79,0
90,88.90,90.78,0
88,88.88,90.76,0
86,88.83,90.71,0
86,88.77,90.66,0
86,88.71,90.61,0
90,88.74,90.61,0
87,88.71,90.57,0
86,88.65,90.53,0
88,88.64,90.50,0
89,88.65,90.49,0
90,88.67,90.48,0
86,88.62,90.44,0
90,88.65,90.43,0
89,88.65,90.42,0
87,88.62,90.38,0
86,88.57,90.34,0
87,88.54,90.31,0
88,88.53,90.28,0
86,88.48,90.24,0
88,88.47,90.22,0
88,88.46,90.20,0
89,88.47,90.18,0
90,88.50,90.18,0
86,88.45,90.14,0
88,88.44,90.12,0
88,88.43,90.10,0
88,88.42,90.08,0
86,88.37,90.04,0
87,88.35,90.01,0
86,88.30,89.97,0
86,88.25,89.93,0
86,88.21,89.89,0
87,88.18,89.86,0
88,88.18,89.84,0
88,88.18,89.82,0
86,88.13,89.78,0
87,88.11,89.75,0
87,88.09,89.73,0
86,88.05,89.69,0
86,88.01,89.65,0
86,87.97,89.62,0
86,87.93,89.58,0
85,87.87,89.53,0
86,87.83,89.50,0
86,87.79,89.46,0
86,87.76,89.43,0
84,87.68,89.37,0
85,87.63,89.33,0
85,87.58,89.29,0
86,87.54,89.26,0
88,87.55,89.24,0
86,87.52,89.21,0
85,87.47,89.17,0
86,87.44,89.14,0
86,87.41,89.10,0
86,87.39,89.07,0
85,87.34,89.03,0
86,87.31,89.00,0
88,87.33,88.99,0
85,87.28,88.95,0
85,87.23,88.91,0
86,87.21,88.88,0
84,87.14,88.84,0
84,87.08,88.79,0
84,87.02,88.74,0
86,87.00,88.71,0
83,86.92,88.65,0
84,86.86,88.61,0
84,86.80,88.56,0
84,86.75,88.52,0
85,86.71,88.48,0
84,86.66,88.44,0
86,86.65,88.41,0
87,86.65,88.40,0
85,86.62,88.36,0
84,86.57,88.32,0
87,86.58,88.31,0
89,86.62,88.31,0
86,86.61,88.29,0
85,86.58,88.26,0
86,86.57,88.24,0
85,86.54,88.20,0
87,86.55,88.19,0
86,86.53,88.17,0
84,86.48,88.13,0
84,86.43,88.09,0
84,86.39,88.05,0
84,86.34,88.00,0
84,86.29,87.96,0
85,86.27,87.94,0
86,86.26,87.92,0
83,86.19,87.87,0
82,86.11,87.81,0
86,86.11,87.79,0
85,86.09,87.76,0
84,86.04,87.72,0
84,86.00,87.69,0
84,85.96,87.65,0
84,85.92,87.61,0
83,85.87,87.57,0
82,85.79,87.51,0
84,85.75,87.48,0
83,85.70,87.43,0
82,85.62,87.38,0
82,85.55,87.32,0
84,85.52,87.29,0
82,85.45,87.24,0
82,85.38,87.19,0
82,85.31,87.13,0
83,85.27,87.09,0
82,85.20,87.04,0
82,85.14,86.99,0
82,85.08,86.94,0
83,85.03,86.90,0
83,84.99,86.86,0
84,84.97,86.83,0
84,84.95,86.81,0
84,84.93,86.78,0
83,84.90,86.74,0
82,84.84,86.69,0
86,84.86,86.69,0
83,84.82,86.65,0
83,84.79,86.61,0
82,84.73,86.57,0
86,84.76,86.56,0
85,84.76,86.54,0
82,84.71,86.50,0
86,84.73,86.49,0
84,84.72,86.47,0
83,84.68,86.43,0
82,84.63,86.39,0
84,84.62,86.37,0
84,84.61,86.34,0
85,84.61,86.33,0
84,84.60,86.31,0
84,84.59,86.28,0
82,84.54,86.24,0
82,84.49,86.20,0
82,84.44,86.16,0
82,84.39,86.11,0
82,84.34,86.07,0
85,84.35,86.06,0
82,84.31,86.02,0
82,84.26,85.98,0
82,84.21,85.94,0
82,84.17,85.90,0
83,84.15,85.87,0
84,84.14,85.85,0
83,84.12,85.83,0
82,84.08,85.79,0
82,84.04,85.75,0
82,84.00,85.71,0
82,83.96,85.68,0
82,83.92,85.64,0
81,83.86,85.59,0
80,83.78,85.54,0
81,83.73,85.49,0
81,83.67,85.45,0
80,83.60,85.39,0
80,83.53,85.34,0
80,83.46,85.28,0
80,83.39,85.23,0
80,83.32,85.18,0
80,83.25,85.13,0
80,83.19,85.08,0
81,83.14,85.04,0
80,83.08,84.98,0
80,83.02,84.93,0
80,82.96,84.89,0
79,82.88,84.83,0
81,82.84,84.79,0
80,82.79,84.74,0
79,82.71,84.68,0
84,82.74,84.68,0
80,82.68,84.63,0
78,82.59,84.56,0
86,82.66,84.58,0
84,82.68,84.57,0
82,82.67,84.55,0
82,82.66,84.52,0
82,82.64,84.50,0
82,82.63,84.47,0
80,82.58,84.43,0
81,82.55,84.39,0
82,82.53,84.37,0
81,82.50,84.33,0
81,82.47,84.30,0
80,82.42,84.26,0
80,82.38,84.22,0
77,82.27,84.14,0
81,82.24,84.11,0
80,82.20,84.07,0
78,82.11,84.01,0
81,82.09,83.98,0
80,82.05,83.94,0
80,82.01,83.90,0
78,81.93,83.84,0
81,81.91,83.81,0
80,81.87,83.77,0
82,81.87,83.76,0
82,81.88,83.74,0
81,81.86,83.71,0
80,81.82,83.68,0
80,81.79,83.64,0
80,81.75,83.60,0
80,81.72,83.57,0
79,81.66,83.52,0
79,81.61,83.48,0
80,81.58,83.44,0
79,81.52,83.40,0
79,81.47,83.35,0
78,81.40,83.30,0
80,81.38,83.27,0
79,81.33,83.22,0
79,81.28,83.18,0
78,81.22,83.13,0
78,81.15,83.08,0
79,81.11,83.04,0
79,81.07,83.00,0
78,81.01,82.95,0
78,80.95,82.90,0
79,80.91,82.86,0
78,80.85,82.81,0
78,80.79,82.76,0
79,80.76,82.72,0
78,80.70,82.68,0
78,80.65,82.63,0
78,80.59,82.58,0
78,80.54,82.54,0
77,80.47,82.48,0
78,80.42,82.44,0
79,80.39,82.40,0
79,80.36,82.37,0
77,80.30,82.32,0
78,80.25,82.27,0
78,80.21,82.23,0
79,80.18,82.20,0
78,80.14,82.16,0
78,80.10,82.11,0
78,80.05,82.07,0
76,79.97,82.01,0
78,79.93,81.97,0
78,79.89,81.93,0
78,79.86,81.89,0
77,79.80,81.84,0
78,79.76,81.81,0
80,79.77,81.79,0
78,79.73,81.75,0
78,79.70,81.71,0
78,79.66,81.67,0
78,79.63,81.64,0
79,79.62,81.61,0
78,79.59,81.58,0
78,79.55,81.54,0
79,79.54,81.51,0
78,79.51,81.48,0
77,79.46,81.43,0
76,79.39,81.38,0
77,79.35,81.34,0
77,79.30,81.29,0
77,79.25,81.25,0
80,79.27,81.24,0
77,79.22,81.19,0
76,79.16,81.14,0
78,79.13,81.11,0
78,79.11,81.08,0
79,79.11,81.06,0
78,79.09,81.03,0
78,79.07,81.00,0
81,79.10,81.00,0
80,79.12,80.99,0
78,79.10,80.96,0
77,79.06,80.92,0
77,79.02,80.88,0
78,79.00,80.85,0
78,78.98,80.82,0
77,78.94,80.78,0
77,78.90,80.75,0
77,78.86,80.71,0
76,78.80,80.66,0
77,78.77,80.63,0
77,78.73,80.59,0
77,78.70,80.55,0
77,78.66,80.52,0
78,78.65,80.49,0
79,78.66,80.48,0
79,78.66,80.46,0
78,78.65,80.44,0
82,78.72,80.45,0
77,78.68,80.42,0
80,78.71,80.42,0
78,78.70,80.39,0
78,78.68,80.37,0
77,78.65,80.33,0
77,78.61,80.30,0
78,78.60,80.28,0
75,78.53,80.22,0
77,78.50,80.19,0
78,78.49,80.17,0
78,78.48,80.15,0
78,78.47,80.13,0
77,78.44,80.10,0
78,78.43,80.07,0
78,78.42,80.05,0
74,78.33,79.99,0
77,78.31,79.96,0
78,78.30,79.94,0
