Teste de posicionamento 2(EMG ao centro do bíceps (Vermelho A, Verde B) + Ref no cotovelo) - 19/10/2024 - teste9 - 5 contrações
long frequencia = 1000;                 //frequência de aquisição do sinal, neste caso, 1000 sinais por segundo
float fator1 = 0.02, fator2 = 0.01;
float incerteza = 0.13;
float pico_basal = 130; // Mínimo para ser considerado um pico de contração
int filtro_horizontal=200000; //intervalo de 200ms valores não pode ter mais de 1 contração

Biceps_D,mediaMovel_1,mediaMovel_2,Contracao
41,0.82,0.41,0
39,1.58,0.80,0
40,2.35,1.19,0
40,3.10,1.58,0
40,3.84,1.96,0
39,4.55,2.33,0
42,5.30,2.73,0
42,6.03,3.12,0
40,6.71,3.49,0
43,7.43,3.88,0
40,8.09,4.25,0
44,8.80,4.64,0
40,9.43,5.00,0
40,10.04,5.35,0
41,10.66,5.70,0
40,11.25,6.05,0
41,11.84,6.40,0
41,12.42,6.74,0
41,13.00,7.08,0
41,13.56,7.42,0
41,14.10,7.76,0
41,14.64,8.09,0
41,15.17,8.42,0
41,15.69,8.75,0
40,16.17,9.06,0
40,16.65,9.37,0
40,17.12,9.67,0
40,17.57,9.98,0
40,18.02,10.28,0
40,18.46,10.58,0
40,18.89,10.87,0
41,19.33,11.17,0
40,19.75,11.46,0
41,20.17,11.75,0
41,20.59,12.05,0
40,20.98,12.33,0
40,21.36,12.60,0
42,21.77,12.90,0
41,22.16,13.18,0
40,22.51,13.45,0
40,22.86,13.71,0
40,23.20,13.97,0
40,23.54,14.24,0
40,23.87,14.49,0
40,24.19,14.75,0
40,24.51,15.00,0
40,24.82,15.25,0
40,25.12,15.50,0
40,25.42,15.74,0
41,25.73,16.00,0
40,26.02,16.24,0
40,26.30,16.47,0
40,26.57,16.71,0
40,26.84,16.94,0
40,27.10,17.17,0
40,27.36,17.40,0
40,27.61,17.63,0
41,27.88,17.86,0
40,28.12,18.08,0
40,28.36,18.30,0
40,28.59,18.52,0
40,28.82,18.73,0
40,29.05,18.94,0
40,29.26,19.16,0
42,29.52,19.38,0
41,29.75,19.60,0
40,29.95,19.80,0
37,30.09,19.98,0
40,30.29,20.18,0
41,30.51,20.38,0
41,30.72,20.59,0
42,30.94,20.80,0
41,31.14,21.01,0
41,31.34,21.21,0
40,31.51,21.39,0
39,31.66,21.57,0
41,31.85,21.76,0
40,32.01,21.95,0
41,32.19,22.14,0
41,32.37,22.33,0
41,32.54,22.51,0
40,32.69,22.69,0
44,32.92,22.90,0
39,33.04,23.06,0
41,33.20,23.24,0
42,33.37,23.43,0
40,33.51,23.59,0
40,33.64,23.76,0
40,33.76,23.92,0
40,33.89,24.08,0
41,34.03,24.25,0
40,34.15,24.41,0
41,34.29,24.57,0
42,34.44,24.75,0
41,34.57,24.91,0
40,34.68,25.06,0
40,34.79,25.21,0
41,34.91,25.37,0
40,35.01,25.52,0
40,35.11,25.66,0
40,35.21,25.80,0
41,35.33,25.96,0
41,35.44,26.11,0
40,35.53,26.25,0
40,35.62,26.38,0
40,35.71,26.52,0
41,35.81,26.66,0
40,35.90,26.80,0
40,35.98,26.93,0
40,36.06,27.06,0
40,36.14,27.19,0
40,36.22,27.32,0
40,36.29,27.44,0
41,36.39,27.58,0
40,36.46,27.70,0
40,36.53,27.83,0
40,36.60,27.95,0
40,36.67,28.07,0
40,36.73,28.19,0
40,36.80,28.31,0
40,36.86,28.42,0
41,36.95,28.55,0
41,37.03,28.67,0
40,37.09,28.79,0
40,37.14,28.90,0
41,37.22,29.02,0
41,37.30,29.14,0
40,37.35,29.25,0
40,37.40,29.36,0
41,37.48,29.47,0
40,37.53,29.58,0
40,37.58,29.68,0
42,37.66,29.81,0
41,37.73,29.92,0
40,37.78,30.02,0
40,37.82,30.12,0
40,37.86,30.22,0
41,37.93,30.32,0
42,38.01,30.44,0
40,38.05,30.54,0
41,38.11,30.64,0
40,38.15,30.74,0
40,38.18,30.83,0
40,38.22,30.92,0
40,38.25,31.01,0
40,38.29,31.10,0
42,38.36,31.21,0
40,38.40,31.30,0
40,38.43,31.38,0
41,38.48,31.48,0
40,38.51,31.57,0
42,38.58,31.67,0
40,38.61,31.75,0
41,38.66,31.85,0
40,38.68,31.93,0
42,38.75,32.03,0
40,38.77,32.11,0
40,38.80,32.19,0
44,38.90,32.30,0
41,38.94,32.39,0
40,38.97,32.47,0
42,39.03,32.56,0
40,39.05,32.64,0
40,39.07,32.71,0
40,39.08,32.78,0
40,39.10,32.86,0
40,39.12,32.93,0
40,39.14,33.00,0
40,39.16,33.07,0
40,39.17,33.14,0
40,39.19,33.21,0
40,39.20,33.27,0
40,39.22,33.34,0
40,39.24,33.41,0
42,39.29,33.49,0
40,39.31,33.56,0
40,39.32,33.62,0
40,39.33,33.69,0
40,39.35,33.75,0
40,39.36,33.81,0
39,39.35,33.86,0
41,39.39,33.94,0
42,39.44,34.02,0
39,39.43,34.07,0
40,39.44,34.13,0
41,39.47,34.19,0
40,39.48,34.25,0
40,39.49,34.31,0
40,39.50,34.37,0
41,39.53,34.43,0
40,39.54,34.49,0
40,39.55,34.54,0
40,39.56,34.60,0
40,39.57,34.65,0
39,39.56,34.70,0
40,39.57,34.75,0
40,39.57,34.80,0
38,39.54,34.83,0
37,39.49,34.86,0
39,39.48,34.90,0
38,39.45,34.93,0
40,39.46,34.98,0
41,39.49,35.04,0
39,39.48,35.08,0
40,39.50,35.13,0
39,39.49,35.17,0
41,39.52,35.22,0
39,39.51,35.26,0
38,39.48,35.29,0
41,39.51,35.35,0
39,39.50,35.38,0
39,39.49,35.42,0
38,39.46,35.45,0
39,39.45,35.48,0
39,39.44,35.52,0
38,39.41,35.54,0
38,39.38,35.57,0
39,39.37,35.60,0
39,39.37,35.63,0
38,39.34,35.66,0
38,39.31,35.68,0
39,39.31,35.71,0
39,39.30,35.75,0
38,39.27,35.77,0
38,39.25,35.79,0
39,39.24,35.82,0
40,39.26,35.87,0
38,39.23,35.89,0
38,39.21,35.91,0
39,39.20,35.94,0
39,39.20,35.97,0
38,39.18,35.99,0
38,39.15,36.01,0
39,39.15,36.04,0
39,39.15,36.07,0
40,39.16,36.11,0
38,39.14,36.13,0
39,39.14,36.16,0
39,39.13,36.19,0
38,39.11,36.20,0
40,39.13,36.24,0
39,39.13,36.27,0
38,39.10,36.29,0
40,39.12,36.32,0
38,39.10,36.34,0
39,39.10,36.37,0
38,39.08,36.38,0
38,39.05,36.40,0
38,39.03,36.42,0
39,39.03,36.44,0
40,39.05,36.48,0
40,39.07,36.51,0
39,39.07,36.54,0
39,39.07,36.56,0
39,39.07,36.59,0
38,39.05,36.60,0
40,39.06,36.63,0
39,39.06,36.66,0
39,39.06,36.68,0
38,39.04,36.69,0
38,39.02,36.71,0
39,39.02,36.73,0
41,39.06,36.77,0
38,39.04,36.79,0
39,39.04,36.81,0
39,39.04,36.83,0
39,39.04,36.85,0
38,39.02,36.86,0
39,39.01,36.88,0
40,39.03,36.91,0
40,39.05,36.95,0
40,39.07,36.98,0
38,39.05,36.99,0
39,39.05,37.01,0
39,39.05,37.03,0
40,39.07,37.06,0
40,39.09,37.09,0
39,39.09,37.10,0
39,39.08,37.12,0
40,39.10,37.15,0
38,39.08,37.16,0
39,39.08,37.18,0
40,39.10,37.21,0
39,39.09,37.23,0
39,39.09,37.24,0
41,39.13,37.28,0
40,39.15,37.31,0
40,39.17,37.34,0
40,39.18,37.36,0
40,39.20,37.39,0
40,39.21,37.41,0
40,39.23,37.44,0
40,39.25,37.47,0
40,39.26,37.49,0
40,39.28,37.52,0
39,39.27,37.53,0
40,39.28,37.56,0
43,39.36,37.61,0
40,39.37,37.63,0
39,39.36,37.65,0
40,39.38,37.67,0
39,39.37,37.68,0
40,39.38,37.71,0
40,39.39,37.73,0
40,39.41,37.75,0
39,39.40,37.77,0
41,39.43,37.80,0
40,39.44,37.82,0
38,39.41,37.82,0
40,39.42,37.84,0
40,39.44,37.87,0
38,39.41,37.87,0
38,39.38,37.87,0
37,39.33,37.86,0
40,39.35,37.88,0
40,39.36,37.90,0
40,39.37,37.92,0
40,39.38,37.94,0
40,39.40,37.96,0
38,39.37,37.96,0
40,39.38,37.98,0
40,39.39,38.00,0
40,39.41,38.02,0
38,39.38,38.02,0
39,39.37,38.03,0
40,39.38,38.05,0
39,39.37,38.06,0
40,39.39,38.08,0
39,39.38,38.09,0
40,39.39,38.11,0
38,39.36,38.11,0
40,39.38,38.13,0
40,39.39,38.15,0
40,39.40,38.17,0
40,39.41,38.18,0
42,39.46,38.22,0
40,39.48,38.24,0
39,39.47,38.25,0
40,39.48,38.27,0
40,39.49,38.28,0
39,39.48,38.29,0
40,39.49,38.31,0
41,39.52,38.33,0
40,39.53,38.35,0
39,39.52,38.36,0
40,39.53,38.37,0
39,39.52,38.38,0
40,39.53,38.40,0
38,39.50,38.39,0
40,39.51,38.41,0
39,39.50,38.41,0
40,39.51,38.43,0
39,39.50,38.44,0
39,39.49,38.44,0
41,39.52,38.47,0
40,39.53,38.48,0
39,39.52,38.49,0
40,39.52,38.50,0
40,39.53,38.52,0
40,39.54,38.53,0
39,39.53,38.54,0
39,39.52,38.54,0
40,39.53,38.56,0
40,39.54,38.57,0
39,39.53,38.58,0
39,39.52,38.58,0
40,39.53,38.59,0
40,39.54,38.61,0
39,39.53,38.61,0
39,39.52,38.62,0
40,39.53,38.63,0
39,39.52,38.63,0
38,39.49,38.63,0
39,39.48,38.63,0
40,39.49,38.64,0
39,39.48,38.65,0
40,39.49,38.66,0
41,39.52,38.68,0
42,39.57,38.72,0
40,39.58,38.73,0
40,39.58,38.74,0
40,39.59,38.76,0
41,39.62,38.78,0
42,39.67,38.81,0
40,39.68,38.82,0
41,39.70,38.84,0
41,39.73,38.87,0
40,39.73,38.88,0
40,39.74,38.89,0
41,39.76,38.91,0
41,39.79,38.93,0
41,39.81,38.95,0
40,39.82,38.96,0
40,39.82,38.97,0
42,39.86,39.00,0
40,39.87,39.01,0
40,39.87,39.02,0
40,39.87,39.03,0
40,39.87,39.04,0
42,39.92,39.07,0
40,39.92,39.08,0
40,39.92,39.09,0
41,39.94,39.11,0
40,39.94,39.12,0
40,39.94,39.13,0
41,39.97,39.15,0
41,39.99,39.16,0
42,40.03,39.19,0
42,40.07,39.22,0
41,40.08,39.24,0
42,40.12,39.27,0
42,40.16,39.29,0
44,40.24,39.34,0
42,40.27,39.37,0
41,40.29,39.38,0
42,40.32,39.41,0
42,40.35,39.43,0
42,40.39,39.46,0
42,40.42,39.49,0
40,40.41,39.49,0
42,40.44,39.52,0
43,40.49,39.55,0
42,40.52,39.58,0
42,40.55,39.60,0
42,40.58,39.62,0
42,40.61,39.65,0
42,40.64,39.67,0
42,40.67,39.69,0
40,40.65,39.70,0
42,40.68,39.72,0
42,40.71,39.74,0
42,40.73,39.77,0
41,40.74,39.78,0
42,40.76,39.80,0
42,40.79,39.82,0
41,40.79,39.83,0
42,40.82,39.86,0
42,40.84,39.88,0
43,40.88,39.91,0
42,40.91,39.93,0
41,40.91,39.94,0
42,40.93,39.96,0
43,40.97,39.99,0
42,40.99,40.01,0
42,41.01,40.03,0
44,41.07,40.07,0
43,41.11,40.10,0
44,41.17,40.14,0
43,41.20,40.17,0
43,41.24,40.20,0
44,41.30,40.23,0
44,41.35,40.27,0
43,41.38,40.30,0
44,41.43,40.34,0
44,41.49,40.37,0
44,41.54,40.41,0
43,41.57,40.43,0
43,41.59,40.46,0
44,41.64,40.50,0
44,41.69,40.53,0
44,41.74,40.57,0
43,41.76,40.59,0
44,41.81,40.62,0
44,41.85,40.66,0
43,41.87,40.68,0
43,41.90,40.70,0
44,41.94,40.74,0
44,41.98,40.77,0
44,42.02,40.80,0
44,42.06,40.83,0
44,42.10,40.87,0
44,42.14,40.90,0
44,42.17,40.93,0
45,42.23,40.97,0
45,42.28,41.01,0
45,42.34,41.05,0
44,42.37,41.08,0
46,42.44,41.13,0
46,42.52,41.18,0
43,42.53,41.19,0
45,42.58,41.23,0
45,42.62,41.27,0
45,42.67,41.31,0
46,42.74,41.35,0
46,42.80,41.40,0
46,42.87,41.45,0
46,42.93,41.49,0
46,42.99,41.54,0
46,43.05,41.58,0
45,43.09,41.62,0
45,43.13,41.65,0
46,43.19,41.69,0
46,43.24,41.74,0
47,43.32,41.79,0
46,43.37,41.83,0
46,43.42,41.87,0
46,43.47,41.91,0
46,43.53,41.96,0
46,43.57,42.00,0
46,43.62,42.04,0
46,43.67,42.08,0
48,43.76,42.13,0
48,43.84,42.19,0
46,43.89,42.23,0
47,43.95,42.28,0
47,44.01,42.33,0
48,44.09,42.38,0
48,44.17,42.44,0
50,44.28,42.52,0
52,44.44,42.61,0
50,44.55,42.68,0
50,44.66,42.76,0
50,44.76,42.83,0
50,44.87,42.90,0
49,44.95,42.96,0
50,45.05,43.03,0
50,45.15,43.10,0
51,45.27,43.18,0
50,45.36,43.25,0
52,45.50,43.34,0
52,45.63,43.42,0
51,45.73,43.50,0
51,45.84,43.57,0
52,45.96,43.66,0
52,46.08,43.74,0
51,46.18,43.81,0
51,46.28,43.89,0
54,46.43,43.99,0
50,46.50,44.05,0
52,46.61,44.13,0
55,46.78,44.24,0
52,46.89,44.31,0
52,46.99,44.39,0
53,47.11,44.48,0
55,47.27,44.58,0
58,47.48,44.72,0
52,47.57,44.79,0
52,47.66,44.86,0
53,47.77,44.94,0
54,47.89,45.03,0
54,48.01,45.12,0
54,48.13,45.21,0
55,48.27,45.31,0
53,48.37,45.39,0
55,48.50,45.48,0
55,48.63,45.58,0
54,48.74,45.66,0
55,48.86,45.75,0
54,48.96,45.84,0
57,49.12,45.95,0
53,49.20,46.02,0
56,49.34,46.12,0
56,49.47,46.22,0
55,49.58,46.31,0
56,49.71,46.40,0
55,49.82,46.49,0
55,49.92,46.57,0
56,50.04,46.67,0
56,50.16,46.76,0
55,50.26,46.84,0
56,50.37,46.94,0
56,50.48,47.03,0
56,50.59,47.12,0
56,50.70,47.20,0
56,50.81,47.29,0
57,50.93,47.39,0
59,51.09,47.51,0
58,51.23,47.61,0
58,51.37,47.71,0
59,51.52,47.83,0
58,51.65,47.93,0
58,51.78,48.03,0
58,51.90,48.13,0
59,52.04,48.24,0
59,52.18,48.35,0
58,52.30,48.44,0
58,52.41,48.54,0
59,52.54,48.64,0
60,52.69,48.76,0
58,52.80,48.85,0
58,52.90,48.94,0
59,53.03,49.04,0
59,53.15,49.14,0
60,53.28,49.25,0
60,53.42,49.36,0
61,53.57,49.47,0
59,53.68,49.57,0
62,53.84,49.69,0
62,54.01,49.82,0
62,54.17,49.94,0
62,54.32,50.06,0
62,54.48,50.18,0
64,54.67,50.32,0
61,54.79,50.42,0
62,54.94,50.54,0
62,55.08,50.65,0
62,55.22,50.77,0
62,55.35,50.88,0
63,55.51,51.00,0
64,55.68,51.13,0
63,55.82,51.25,0
64,55.99,51.38,0
64,56.15,51.50,0
66,56.34,51.65,0
65,56.52,51.78,0
65,56.69,51.91,0
65,56.85,52.04,0
66,57.04,52.18,0
66,57.21,52.32,0
67,57.41,52.47,0
65,57.56,52.59,0
66,57.73,52.73,0
68,57.94,52.88,0
68,58.14,53.03,0
68,58.33,53.18,0
69,58.55,53.34,0
70,58.78,53.51,0
72,59.04,53.69,0
72,59.30,53.87,0
72,59.55,54.06,0
72,59.80,54.24,0
73,60.07,54.42,0
72,60.31,54.60,0
75,60.60,54.80,0
73,60.85,54.98,0
74,61.11,55.17,0
74,61.37,55.36,0
74,61.62,55.55,0
74,61.87,55.73,0
74,62.11,55.92,0
74,62.35,56.10,0
76,62.62,56.30,0
74,62.85,56.47,0
75,63.09,56.66,0
74,63.31,56.83,0
76,63.56,57.02,0
76,63.81,57.21,0
77,64.08,57.41,0
77,64.34,57.61,0
76,64.57,57.79,0
76,64.80,57.97,0
76,65.02,58.15,0
77,65.26,58.34,0
77,65.50,58.53,0
78,65.75,58.72,0
78,65.99,58.92,0
79,66.25,59.12,0
78,66.49,59.31,0
79,66.74,59.50,0
78,66.96,59.69,0
82,67.26,59.91,0
80,67.52,60.11,0
80,67.77,60.31,0
81,68.03,60.52,0
81,68.29,60.72,0
82,68.57,60.94,0
83,68.85,61.16,0
85,69.18,61.39,0
83,69.45,61.61,0
84,69.74,61.83,0
84,70.03,62.06,0
84,70.31,62.28,0
84,70.58,62.49,0
85,70.87,62.72,0
86,71.17,62.95,0
86,71.47,63.18,0
86,71.76,63.41,0
86,72.05,63.63,0
87,72.34,63.87,0
87,72.64,64.10,0
86,72.90,64.32,0
88,73.21,64.56,0
86,73.46,64.77,0
88,73.75,65.00,0
88,74.04,65.23,0
88,74.32,65.46,0
88,74.59,65.69,0
91,74.92,65.94,0
91,75.24,66.19,0
90,75.54,66.43,0
91,75.85,66.67,0
92,76.17,66.93,0
92,76.49,67.18,0
94,76.84,67.45,0
94,77.18,67.71,0
95,77.54,67.98,0
98,77.94,68.28,0
98,78.35,68.58,0
98,78.74,68.88,0
95,79.06,69.14,0
97,79.42,69.42,0
97,79.77,69.69,0
98,80.14,69.97,0
98,80.50,70.25,0
98,80.85,70.53,0
98,81.19,70.81,0
100,81.57,71.10,0
100,81.93,71.39,0
95,82.20,71.62,0
99,82.53,71.90,0
99,82.86,72.17,0
100,83.20,72.45,0
102,83.58,72.74,0
103,83.97,73.04,0
103,84.35,73.34,0
103,84.72,73.64,0
104,85.11,73.94,0
105,85.51,74.26,0
107,85.93,74.58,0
105,86.32,74.89,0
107,86.73,75.21,0
106,87.12,75.52,0
108,87.53,75.84,0
108,87.94,76.16,0
107,88.32,76.47,0
107,88.70,76.78,0
108,89.08,77.09,0
107,89.44,77.39,0
107,89.79,77.68,0
108,90.16,77.99,0
108,90.51,78.29,0
111,90.92,78.61,0
111,91.32,78.94,0
112,91.74,79.27,0
114,92.18,79.62,0
113,92.60,79.95,0
116,93.07,80.31,0
115,93.51,80.66,0
116,93.96,81.01,0
115,94.38,81.35,0
115,94.79,81.69,0
116,95.21,82.03,0
117,95.65,82.38,0
115,96.04,82.71,0
116,96.44,83.04,0
116,96.83,83.37,0
116,97.21,83.69,0
118,97.63,84.04,0
118,98.03,84.38,0
117,98.41,84.70,0
119,98.83,85.05,0
118,99.21,85.38,0
118,99.58,85.70,0
120,99.99,86.05,0
118,100.35,86.36,0
119,100.73,86.69,0
119,101.09,87.01,0
121,101.49,87.35,0
122,101.90,87.70,0
125,102.36,88.07,0
122,102.75,88.41,0
121,103.12,88.74,0
124,103.54,89.09,0
124,103.95,89.44,0
124,104.35,89.79,0
124,104.74,90.13,0
123,105.11,90.46,0
124,105.48,90.79,0
124,105.85,91.12,0
124,106.22,91.45,0
124,106.57,91.78,0
125,106.94,92.11,0
124,107.28,92.43,0
125,107.64,92.76,0
126,108.00,93.09,0
126,108.36,93.42,0
125,108.70,93.73,0
124,109.00,94.04,0
125,109.32,94.35,0
124,109.62,94.64,0
125,109.92,94.95,0
124,110.21,95.24,0
125,110.50,95.53,0
124,110.77,95.82,0
124,111.04,96.10,0
124,111.29,96.38,0
124,111.55,96.66,0
125,111.82,96.94,0
124,112.06,97.21,0
124,112.30,97.48,0
128,112.61,97.78,0
124,112.84,98.04,0
123,113.05,98.29,0
125,113.28,98.56,0
123,113.48,98.81,0
124,113.69,99.06,0
124,113.90,99.31,0
122,114.06,99.53,0
122,114.22,99.76,0
122,114.37,99.98,0
123,114.54,100.21,0
123,114.71,100.44,0
122,114.86,100.65,0
123,115.02,100.88,0
123,115.18,101.10,0
123,115.34,101.32,0
123,115.49,101.54,0
122,115.62,101.74,0
122,115.75,101.94,0
122,115.87,102.14,0
121,115.98,102.33,0
122,116.10,102.53,0
121,116.20,102.71,0
121,116.29,102.90,0
121,116.39,103.08,0
121,116.48,103.26,0
121,116.57,103.43,0
121,116.66,103.61,0
121,116.74,103.78,0
122,116.85,103.97,0
120,116.91,104.13,0
121,116.99,104.29,0
121,117.07,104.46,0
121,117.15,104.63,0
121,117.23,104.79,0
120,117.28,104.94,0
120,117.34,105.09,0
120,117.39,105.24,0
120,117.44,105.39,0
119,117.48,105.53,0
120,117.53,105.67,0
119,117.56,105.80,0
119,117.58,105.94,0
119,117.61,106.07,0
120,117.66,106.21,0
118,117.67,106.32,0
119,117.69,106.45,0
117,117.68,106.56,0
117,117.67,106.66,0
118,117.67,106.77,0
118,117.68,106.89,0
117,117.67,106.99,0
117,117.65,107.09,0
117,117.64,107.19,0
117,117.63,107.28,0
117,117.61,107.38,0
117,117.60,107.48,0
117,117.59,107.57,0
117,117.58,107.67,0
117,117.57,107.76,0
117,117.56,107.85,0
117,117.54,107.94,0
115,117.49,108.02,0
117,117.48,108.11,0
115,117.43,108.17,0
115,117.39,108.24,0
113,117.30,108.29,0
115,117.25,108.36,0
115,117.21,108.42,0
115,117.16,108.49,0
115,117.12,108.55,0
114,117.06,108.61,0
115,117.02,108.67,0
114,116.96,108.73,0
113,116.88,108.77,0
115,116.84,108.83,0
113,116.76,108.87,0
113,116.69,108.91,0
114,116.63,108.96,0
113,116.56,109.01,0
113,116.49,109.05,0
113,116.42,109.08,0
113,116.35,109.12,0
114,116.30,109.17,0
114,116.26,109.22,0
113,116.19,109.26,0
113,116.13,109.30,0
113,116.07,109.33,0
113,116.00,109.37,0
112,115.92,109.40,0
113,115.87,109.43,0
111,115.77,109.45,0
112,115.69,109.47,0
113,115.64,109.51,0
111,115.55,109.52,0
111,115.46,109.54,0
111,115.37,109.55,0
111,115.28,109.57,0
109,115.15,109.56,0
111,115.07,109.58,0
111,114.99,109.59,0
111,114.91,109.60,0
110,114.81,109.61,0
110,114.72,109.61,0
111,114.64,109.63,0
109,114.53,109.62,0
110,114.44,109.62,0
110,114.35,109.63,0
109,114.24,109.62,0
109,114.14,109.61,0
109,114.03,109.61,0
109,113.93,109.60,0
109,113.83,109.60,0
109,113.74,109.59,0
109,113.64,109.58,0
111,113.59,109.60,0
110,113.52,109.60,0
108,113.41,109.59,0
109,113.32,109.58,0
108,113.21,109.57,0
108,113.11,109.55,0
108,113.01,109.53,0
108,112.91,109.52,0
108,112.81,109.50,0
107,112.69,109.48,0
108,112.60,109.46,0
107,112.49,109.44,0
105,112.34,109.39,0
107,112.23,109.37,0
107,112.13,109.35,0
107,112.02,109.32,0
104,111.86,109.27,0
107,111.77,109.25,0
108,111.69,109.24,0
105,111.56,109.19,0
107,111.47,109.17,0
105,111.34,109.13,0
105,111.21,109.09,0
106,111.11,109.06,0
106,111.00,109.03,0
105,110.88,108.99,0
105,110.77,108.95,0
105,110.65,108.91,0
105,110.54,108.87,0
105,110.43,108.83,0
104,110.30,108.78,0
105,110.19,108.74,0
104,110.07,108.70,0
105,109.97,108.66,0
104,109.85,108.61,0
105,109.75,108.58,0
104,109.64,108.53,0
104,109.52,108.48,0
104,109.41,108.44,0
104,109.30,108.40,0
103,109.18,108.34,0
103,109.05,108.29,0
103,108.93,108.24,0
103,108.81,108.18,0
103,108.70,108.13,0
102,108.56,108.07,0
103,108.45,108.02,0
103,108.34,107.97,0
103,108.24,107.92,0
102,108.11,107.86,0
103,108.01,107.81,0
102,107.89,107.75,0
103,107.79,107.71,0
101,107.66,107.64,0
101,107.52,107.57,0
101,107.39,107.51,0
102,107.28,107.45,0
101,107.16,107.39,0
101,107.04,107.32,0
101,106.92,107.26,0
101,106.80,107.20,0
101,106.68,107.14,0
101,106.57,107.07,0
100,106.44,107.00,0
101,106.33,106.94,0
101,106.22,106.88,0
99,106.08,106.81,0
99,105.93,106.73,0
99,105.80,106.65,0
100,105.68,106.58,0
100,105.57,106.52,0
99,105.44,106.44,0
99,105.31,106.37,0
100,105.20,106.30,0
99,105.08,106.23,0
99,104.95,106.16,0
100,104.86,106.10,0
99,104.74,106.03,0
98,104.60,105.95,0
99,104.49,105.88,0
100,104.40,105.82,0
98,104.27,105.74,0
98,104.15,105.66,0
98,104.03,105.59,0
98,103.91,105.51,0
98,103.79,105.43,0
98,103.67,105.36,0
98,103.56,105.29,0
98,103.45,105.21,0
98,103.34,105.14,0
97,103.21,105.06,0
96,103.07,104.97,0
97,102.95,104.89,0
98,102.85,104.82,0
97,102.73,104.74,0
97,102.61,104.67,0
98,102.52,104.60,0
96,102.39,104.51,0
96,102.26,104.43,0
96,102.14,104.34,0
95,102.00,104.25,0
96,101.88,104.17,0
96,101.76,104.09,0
96,101.64,104.00,0
96,101.53,103.92,0
96,101.42,103.85,0
97,101.33,103.78,0
96,101.23,103.70,0
96,101.12,103.62,0
95,101.00,103.54,0
95,100.88,103.45,0
95,100.76,103.37,0
95,100.65,103.28,0
95,100.53,103.20,0
94,100.40,103.11,0
94,100.27,103.02,0
96,100.19,102.95,0
96,100.10,102.88,0
96,100.02,102.81,0
94,99.90,102.72,0
95,99.80,102.64,0
95,99.71,102.57,0
94,99.59,102.48,0
94,99.48,102.40,0
94,99.37,102.31,0
95,99.28,102.24,0
94,99.18,102.16,0
94,99.08,102.08,0
93,98.95,101.98,0
93,98.84,101.89,0
93,98.72,101.81,0
93,98.60,101.72,0
93,98.49,101.63,0
93,98.38,101.54,0
93,98.27,101.46,0
93,98.17,101.37,0
93,98.07,101.29,0
93,97.96,101.21,0
93,97.86,101.13,0
93,97.77,101.04,0
93,97.67,100.96,0
92,97.56,100.87,0
91,97.43,100.78,0
92,97.32,100.69,0
92,97.21,100.60,0
92,97.11,100.51,0
93,97.03,100.44,0
92,96.93,100.36,0
91,96.81,100.26,0
92,96.71,100.18,0
92,96.62,100.10,0
92,96.52,100.02,0
93,96.45,99.95,0
91,96.34,99.86,0
91,96.24,99.77,0
91,96.13,99.68,0
92,96.05,99.60,0
92,95.97,99.53,0
90,95.85,99.43,0
90,95.73,99.34,0
92,95.66,99.26,0
91,95.57,99.18,0
90,95.45,99.09,0
90,95.35,99.00,0
92,95.28,98.93,0
91,95.19,98.85,0
90,95.09,98.76,0
91,95.01,98.68,0
92,94.95,98.62,0
89,94.83,98.52,0
92,94.77,98.46,0
90,94.68,98.37,0
90,94.58,98.29,0
90,94.49,98.20,0
90,94.40,98.12,0
92,94.35,98.06,0
90,94.27,97.98,0
90,94.18,97.90,0
90,94.10,97.82,0
90,94.02,97.74,0
89,93.91,97.66,0
90,93.84,97.58,0
91,93.78,97.51,0
90,93.70,97.44,0
89,93.61,97.35,0
88,93.50,97.26,0
92,93.47,97.21,0
88,93.36,97.12,0
89,93.27,97.03,0
89,93.19,96.95,0
89,93.10,96.87,0
88,93.00,96.79,0
89,92.92,96.71,0
90,92.86,96.64,0
89,92.78,96.56,0
88,92.69,96.48,0
88,92.60,96.39,0
88,92.50,96.31,0
89,92.43,96.24,0
89,92.36,96.16,0
88,92.28,96.08,0
88,92.19,96.00,0
88,92.11,95.92,0
90,92.07,95.86,0
88,91.98,95.78,0
89,91.92,95.72,0
89,91.87,95.65,0
88,91.79,95.57,0
88,91.71,95.50,0
88,91.64,95.42,0
88,91.57,95.35,0
92,91.57,95.31,0
87,91.48,95.23,0
87,91.39,95.15,0
87,91.31,95.07,0
86,91.20,94.98,0
86,91.10,94.89,0
88,91.03,94.82,0
88,90.97,94.75,0
87,90.89,94.67,0
86,90.80,94.59,0
88,90.74,94.52,0
87,90.66,94.44,0
86,90.57,94.36,0
86,90.48,94.28,0
87,90.41,94.20,0
87,90.34,94.13,0
85,90.24,94.04,0
86,90.15,93.96,0
86,90.07,93.88,0
87,90.01,93.81,0
86,89.93,93.73,0
86,89.85,93.66,0
87,89.79,93.59,0
87,89.74,93.52,0
86,89.66,93.45,0
86,89.59,93.37,0
86,89.52,93.30,0
86,89.45,93.23,0
86,89.38,93.16,0
86,89.31,93.08,0
86,89.24,93.01,0
86,89.18,92.94,0
86,89.11,92.87,0
86,89.05,92.80,0
87,89.01,92.75,0
86,88.95,92.68,0
86,88.89,92.61,0
86,88.83,92.55,0
85,88.76,92.47,0
85,88.68,92.40,0
86,88.63,92.33,0
84,88.54,92.25,0
85,88.47,92.18,0
85,88.40,92.10,0
84,88.31,92.02,0
86,88.26,91.96,0
85,88.20,91.89,0
84,88.11,91.81,0
86,88.07,91.76,0
86,88.03,91.70,0
84,87.95,91.62,0
84,87.87,91.55,0
85,87.81,91.48,0
84,87.74,91.41,0
84,87.66,91.33,0
84,87.59,91.26,0
84,87.52,91.19,0
84,87.45,91.11,0
84,87.38,91.04,0
85,87.33,90.98,0
84,87.26,90.91,0
84,87.20,90.84,0
85,87.15,90.78,0
85,87.11,90.73,0
84,87.05,90.66,0
84,86.99,90.59,0
84,86.93,90.53,0
84,86.87,90.46,0
84,86.81,90.40,0
84,86.76,90.33,0
83,86.68,90.26,0
83,86.61,90.19,0
84,86.55,90.13,0
83,86.48,90.05,0
85,86.45,90.00,0
84,86.40,89.94,0
83,86.34,89.87,0
83,86.27,89.81,0
82,86.18,89.73,0
83,86.12,89.66,0
83,86.06,89.59,0
83,86.00,89.53,0
83,85.94,89.46,0
82,85.86,89.39,0
83,85.80,89.32,0
82,85.73,89.25,0
84,85.69,89.20,0
82,85.62,89.13,0
82,85.54,89.05,0
82,85.47,88.98,0
82,85.40,88.91,0
82,85.34,88.85,0
82,85.27,88.78,0
82,85.20,88.71,0
84,85.18,88.66,0
81,85.10,88.59,0
82,85.03,88.52,0
82,84.97,88.45,0
82,84.91,88.39,0
82,84.86,88.33,0
81,84.78,88.25,0
80,84.68,88.17,0
81,84.61,88.10,0
81,84.54,88.03,0
82,84.49,87.97,0
81,84.42,87.90,0
82,84.37,87.84,0
82,84.32,87.78,0
82,84.27,87.72,0
80,84.19,87.65,0
81,84.13,87.58,0
81,84.06,87.51,0
80,83.98,87.44,0
80,83.90,87.36,0
79,83.80,87.28,0
82,83.77,87.23,0
80,83.69,87.15,0
80,83.62,87.08,0
81,83.57,87.02,0
80,83.50,86.95,0
82,83.47,86.90,0
80,83.40,86.83,0
80,83.33,86.77,0
80,83.26,86.70,0
80,83.20,86.63,0
81,83.15,86.57,0
79,83.07,86.50,0
79,82.99,86.42,0
80,82.93,86.36,0
79,82.85,86.29,0
80,82.79,86.22,0
80,82.74,86.16,0
78,82.64,86.08,0
79,82.57,86.01,0
79,82.50,85.94,0
78,82.41,85.86,0
78,82.32,85.78,0
79,82.25,85.71,0
79,82.19,85.65,0
78,82.10,85.57,0
78,82.02,85.49,0
78,81.94,85.42,0
80,81.90,85.36,0
78,81.82,85.29,0
78,81.75,85.22,0
78,81.67,85.15,0
78,81.60,85.07,0
78,81.53,85.00,0
79,81.48,84.94,0
78,81.41,84.87,0
78,81.34,84.80,0
78,81.27,84.74,0
79,81.23,84.68,0
78,81.16,84.61,0
78,81.10,84.55,0
78,81.04,84.48,0
78,80.98,84.42,0
78,80.92,84.35,0
78,80.86,84.29,0
77,80.78,84.22,0
78,80.73,84.15,0
77,80.65,84.08,0
78,80.60,84.02,0
79,80.57,83.97,0
77,80.50,83.90,0
78,80.45,83.84,0
77,80.38,83.77,0
77,80.31,83.71,0
76,80.22,83.63,0
76,80.14,83.55,0
77,80.08,83.49,0
77,80.01,83.42,0
76,79.93,83.35,0
76,79.86,83.27,0
77,79.80,83.21,0
77,79.74,83.15,0
76,79.67,83.08,0
76,79.59,83.01,0
77,79.54,82.95,0
76,79.47,82.88,0
76,79.40,82.81,0
75,79.31,82.73,0
76,79.25,82.66,0
76,79.18,82.60,0
75,79.10,82.52,0
76,79.04,82.46,0
76,78.98,82.39,0
76,78.92,82.33,0
76,78.86,82.26,0
74,78.76,82.18,0
75,78.69,82.11,0
76,78.63,82.05,0
75,78.56,81.98,0
75,78.49,81.91,0
75,78.42,81.84,0
76,78.37,81.78,0
74,78.28,81.70,0
74,78.20,81.63,0
75,78.13,81.56,0
75,78.07,81.49,0
74,77.99,81.42,0
76,77.95,81.37,0
76,77.91,81.31,0
74,77.83,81.24,0
74,77.76,81.17,0
74,77.68,81.09,0
75,77.63,81.03,0
74,77.55,80.96,0
74,77.48,80.89,0
74,77.41,80.82,0
74,77.35,80.76,0
74,77.28,80.69,0
74,77.21,80.62,0
74,77.15,80.56,0
75,77.11,80.50,0
74,77.04,80.43,0
74,76.98,80.37,0
74,76.92,80.31,0
74,76.86,80.24,0
74,76.81,80.18,0
74,76.75,80.12,0
74,76.70,80.06,0
74,76.64,80.00,0
74,76.59,79.94,0
74,76.54,79.88,0
74,76.49,79.82,0
74,76.44,79.76,0
74,76.39,79.70,0
74,76.34,79.65,0
74,76.29,79.59,0
75,76.27,79.54,0
74,76.22,79.49,0
73,76.16,79.42,0
72,76.07,79.35,0
73,76.01,79.29,0
72,75.93,79.21,0
72,75.85,79.14,0
74,75.82,79.09,0
74,75.78,79.04,0
72,75.71,78.97,0
73,75.65,78.91,0
73,75.60,78.85,0
73,75.55,78.79,0
74,75.52,78.74,0
73,75.47,78.69,0
72,75.40,78.62,0
69,75.27,78.52,0
72,75.20,78.46,0
72,75.14,78.39,0
72,75.08,78.33,0
72,75.01,78.27,0
72,74.95,78.20,0
72,74.89,78.14,0
72,74.84,78.08,0
72,74.78,78.02,0
72,74.72,77.96,0
73,74.69,77.91,0
72,74.64,77.85,0
73,74.60,77.80,0
72,74.55,77.74,0
72,74.50,77.69,0
72,74.45,77.63,0
71,74.38,77.56,0
71,74.31,77.50,0
71,74.25,77.43,0
72,74.20,77.38,0
70,74.12,77.30,0
72,74.08,77.25,0
71,74.01,77.19,0
70,73.93,77.12,0
71,73.88,77.06,0
71,73.82,77.00,0
70,73.74,76.93,0
70,73.67,76.86,0
70,73.59,76.79,0
71,73.54,76.73,0
70,73.47,76.66,0
70,73.40,76.60,0
72,73.37,76.55,0
70,73.31,76.48,0
70,73.24,76.42,0
70,73.18,76.36,0
69,73.09,76.28,0
70,73.03,76.22,0
70,72.97,76.16,0
70,72.91,76.10,0
71,72.87,76.04,0
70,72.81,75.98,0
70,72.76,75.92,0
70,72.70,75.86,0
70,72.65,75.81,0
70,72.60,75.75,0
70,72.54,75.69,0
70,72.49,75.63,0
69,72.42,75.57,0
70,72.37,75.51,0
70,72.33,75.46,0
70,72.28,75.40,0
70,72.24,75.35,0
70,72.19,75.29,0
70,72.15,75.24,0
70,72.10,75.19,0
70,72.06,75.14,0
71,72.04,75.10,0
70,72.00,75.04,0
70,71.96,74.99,0
70,71.92,74.94,0
70,71.88,74.89,0
70,71.84,74.85,0
71,71.83,74.81,0
69,71.77,74.75,0
72,71.78,74.72,0
70,71.74,74.67,0
70,71.71,74.63,0
71,71.69,74.59,0
72,71.70,74.57,0
70,71.66,74.52,0
70,71.63,74.47,0
71,71.62,74.44,0
70,71.59,74.40,0
70,71.55,74.35,0
70,71.52,74.31,0
70,71.49,74.27,0
72,71.50,74.24,0
70,71.47,74.20,0
70,71.44,74.16,0
71,71.43,74.13,0
70,71.41,74.09,0
71,71.40,74.05,0
70,71.37,74.01,0
71,71.36,73.98,0
71,71.35,73.95,0
70,71.33,73.91,0
70,71.30,73.88,0
70,71.27,73.84,0
69,71.23,73.79,0
70,71.20,73.75,0
70,71.18,73.71,0
70,71.16,73.68,0
70,71.13,73.64,0
70,71.11,73.60,0
70,71.09,73.57,0
70,71.07,73.53,0
72,71.09,73.52,0
70,71.06,73.48,0
74,71.12,73.49,0
70,71.10,73.45,0
72,71.12,73.44,0
70,71.10,73.40,0
70,71.07,73.37,0
70,71.05,73.33,0
69,71.01,73.29,0
69,70.97,73.25,0
70,70.95,73.22,0
70,70.93,73.18,0
71,70.93,73.16,0
70,70.92,73.13,0
70,70.90,73.10,0
71,70.90,73.08,0
70,70.88,73.05,0
70,70.86,73.02,0
67,70.79,72.96,0
70,70.77,72.93,0
70,70.76,72.90,0
70,70.74,72.87,0
70,70.73,72.84,0
70,70.71,72.81,0
69,70.68,72.77,0
70,70.66,72.75,0
70,70.65,72.72,0
70,70.64,72.69,0
71,70.64,72.67,0
70,70.63,72.65,0
70,70.62,72.62,0
70,70.61,72.59,0
69,70.57,72.56,0
70,70.56,72.53,0
70,70.55,72.51,0
71,70.56,72.49,0
70,70.55,72.47,0
70,70.54,72.44,0
70,70.53,72.42,0
69,70.50,72.38,0
70,70.49,72.36,0
70,70.48,72.34,0
70,70.47,72.31,0
69,70.44,72.28,0
70,70.43,72.26,0
70,70.42,72.23,0
68,70.37,72.19,0
70,70.37,72.17,0
70,70.36,72.15,0
70,70.35,72.13,0
70,70.34,72.11,0
70,70.34,72.08,0
70,70.33,72.06,0
70,70.32,72.04,0
70,70.32,72.02,0
70,70.31,72.00,0
68,70.26,71.96,0
70,70.26,71.94,0
70,70.25,71.92,0
71,70.27,71.91,0
70,70.26,71.90,0
67,70.20,71.85,0
70,70.19,71.83,0
71,70.21,71.82,0
70,70.21,71.80,0
70,70.20,71.78,0
70,70.20,71.77,0
70,70.19,71.75,0
70,70.19,71.73,0
72,70.23,71.73,0
70,70.22,71.72,0
71,70.24,71.71,0
71,70.25,71.70,0
70,70.25,71.68,0
70,70.24,71.67,0
71,70.26,71.66,0
70,70.25,71.64,0
70,70.25,71.63,0
69,70.22,71.60,0
70,70.22,71.59,0
72,70.25,71.59,0
69,70.23,71.56,0
70,70.22,71.55,0
70,70.22,71.53,0
70,70.22,71.52,0
70,70.21,71.50,0
69,70.19,71.48,0
70,70.18,71.46,0
70,70.18,71.45,0
70,70.18,71.43,0
70,70.17,71.42,0
70,70.17,71.40,0
70,70.17,71.39,0
70,70.16,71.38,0
70,70.16,71.36,0
69,70.14,71.34,0
68,70.09,71.31,0
70,70.09,71.29,0
69,70.07,71.27,0
70,70.07,71.26,0
72,70.11,71.26,0
70,70.10,71.25,0
68,70.06,71.22,0
70,70.06,71.21,0
69,70.04,71.19,0
69,70.02,71.16,0
69,70.00,71.14,0
69,69.98,71.12,0
70,69.98,71.11,0
74,70.06,71.14,0
70,70.06,71.13,0
70,70.06,71.12,0
74,70.14,71.14,0
70,70.13,71.13,0
70,70.13,71.12,0
71,70.15,71.12,0
70,70.15,71.11,0
70,70.14,71.10,0
70,70.14,71.09,0
71,70.16,71.09,0
71,70.17,71.09,0
70,70.17,71.07,0
70,70.17,71.06,0
71,70.18,71.06,0
71,70.20,71.06,0
71,70.22,71.06,0
70,70.21,71.05,0
72,70.25,71.06,0
71,70.26,71.06,0
70,70.26,71.05,0
70,70.25,71.04,0
71,70.27,71.04,0
71,70.28,71.04,0
70,70.28,71.03,0
70,70.27,71.02,0
72,70.30,71.03,0
72,70.34,71.04,0
72,70.37,71.05,0
72,70.40,71.06,0
72,70.44,71.07,0
72,70.47,71.08,0
72,70.50,71.08,0
74,70.57,71.11,0
74,70.64,71.14,0
72,70.66,71.15,0
72,70.69,71.16,0
72,70.72,71.17,0
72,70.74,71.18,0
72,70.77,71.18,0
72,70.79,71.19,0
72,70.82,71.20,0
72,70.84,71.21,0
72,70.86,71.22,0
74,70.93,71.24,0
72,70.95,71.25,0
72,70.97,71.26,0
72,70.99,71.27,0
72,71.01,71.27,0
74,71.07,71.30,0
73,71.11,71.32,0
74,71.17,71.35,0
74,71.22,71.37,0
74,71.28,71.40,0
73,71.31,71.41,0
72,71.33,71.42,0
73,71.36,71.44,0
72,71.37,71.44,0
73,71.41,71.46,0
73,71.44,71.47,0
76,71.53,71.52,0
74,71.58,71.54,0
74,71.63,71.57,0
76,71.71,71.61,0
76,71.80,71.66,0
76,71.88,71.70,0
76,71.97,71.74,0
76,72.05,71.78,0
76,72.13,71.83,0
76,72.20,71.87,0
77,72.30,71.92,0
76,72.37,71.96,0
76,72.45,72.00,0
76,72.52,72.04,0
76,72.59,72.08,0
76,72.65,72.12,0
76,72.72,72.16,0
76,72.79,72.20,0
75,72.83,72.22,0
76,72.89,72.26,0
76,72.96,72.30,0
76,73.02,72.34,0
78,73.12,72.39,0
78,73.21,72.45,0
76,73.27,72.49,0
77,73.35,72.53,0
77,73.42,72.58,0
77,73.49,72.62,0
77,73.56,72.66,0
76,73.61,72.70,0
77,73.68,72.74,0
78,73.76,72.79,0
78,73.85,72.84,0
78,73.93,72.90,0
78,74.01,72.95,0
77,74.07,72.99,0
78,74.15,73.04,0
78,74.23,73.09,0
78,74.30,73.14,0
78,74.38,73.18,0
78,74.45,73.23,0
78,74.52,73.28,0
78,74.59,73.33,0
78,74.66,73.37,0
78,74.73,73.42,0
77,74.77,73.46,0
78,74.84,73.50,0
78,74.90,73.55,0
78,74.96,73.59,0
78,75.02,73.64,0
78,75.08,73.68,0
78,75.14,73.72,0
79,75.22,73.78,0
78,75.27,73.82,0
81,75.39,73.89,0
80,75.48,73.95,0
80,75.57,74.01,0
80,75.66,74.07,0
82,75.78,74.15,0
83,75.93,74.24,0
82,76.05,74.32,0
82,76.17,74.39,0
84,76.33,74.49,0
84,76.48,74.58,0
84,76.63,74.68,0
84,76.78,74.77,0
85,76.94,74.87,0
86,77.12,74.99,0
86,77.30,75.10,0
88,77.51,75.22,0
87,77.70,75.34,0
87,77.89,75.46,0
88,78.09,75.58,0
88,78.29,75.71,0
89,78.50,75.84,0
91,78.75,75.99,0
90,78.98,76.13,0
90,79.20,76.27,0
89,79.40,76.40,0
91,79.63,76.54,0
92,79.88,76.70,0
89,80.06,76.82,0
91,80.28,76.96,0
92,80.51,77.11,0
94,80.78,77.28,0
92,81.01,77.43,0
92,81.23,77.58,0
92,81.44,77.72,0
94,81.69,77.88,0
92,81.90,78.02,0
93,82.12,78.17,0
92,82.32,78.31,0
93,82.53,78.46,0
94,82.76,78.61,0
93,82.97,78.76,0
94,83.19,78.91,0
94,83.40,79.06,0
93,83.59,79.20,0
93,83.78,79.34,0
96,84.03,79.51,0
94,84.23,79.65,0
94,84.42,79.79,0
94,84.61,79.94,0
96,84.84,80.10,0
94,85.02,80.24,0
94,85.20,80.37,0
95,85.40,80.52,0
93,85.55,80.64,0
94,85.72,80.78,0
96,85.93,80.93,0
95,86.11,81.07,0
95,86.29,81.21,0
95,86.46,81.35,0
95,86.63,81.48,0
95,86.80,81.62,0
97,87.00,81.77,0
95,87.16,81.91,0
96,87.34,82.05,0
96,87.51,82.19,0
96,87.68,82.32,0
95,87.83,82.45,0
99,88.05,82.62,0
102,88.33,82.81,0
102,88.60,83.00,0
101,88.85,83.18,0
102,89.11,83.37,0
103,89.39,83.57,0
101,89.62,83.74,0
103,89.89,83.93,0
103,90.15,84.12,0
104,90.43,84.32,0
103,90.68,84.51,0
104,90.95,84.71,0
104,91.21,84.90,0
104,91.47,85.09,0
105,91.74,85.29,0
105,92.00,85.49,0
103,92.22,85.66,0
107,92.52,85.87,0
108,92.83,86.10,0
109,93.15,86.32,0
109,93.47,86.55,0
109,93.78,86.78,0
111,94.12,87.02,0
112,94.48,87.27,0
112,94.83,87.51,0
111,95.15,87.75,0
113,95.51,88.00,0
115,95.90,88.27,0
115,96.28,88.54,0
116,96.68,88.81,0
119,97.12,89.12,0
122,97.62,89.44,0
119,98.05,89.74,0
121,98.51,90.05,0
119,98.92,90.34,0
119,99.32,90.63,0
119,99.71,90.91,0
119,100.10,91.19,0
119,100.48,91.47,0
119,100.85,91.75,0
120,101.23,92.03,0
121,101.63,92.32,0
119,101.97,92.59,0
120,102.33,92.86,0
122,102.73,93.15,0
120,103.07,93.42,0
121,103.43,93.70,0
120,103.76,93.96,0
120,104.09,94.22,0
120,104.41,94.48,0
122,104.76,94.75,0
122,105.10,95.02,0
123,105.46,95.30,0
124,105.83,95.59,0
125,106.21,95.89,0
125,106.59,96.18,0
125,106.96,96.46,0
126,107.34,96.76,0
133,107.85,97.12,0
128,108.26,97.43,0
128,108.65,97.74,0
129,109.06,98.05,0
130,109.48,98.37,0
130,109.89,98.69,0
130,110.29,99.00,0
131,110.70,99.32,0
134,111.17,99.67,0
134,111.63,100.01,0
132,112.03,100.33,0
131,112.41,100.64,0
134,112.84,100.97,0
134,113.27,101.30,0
133,113.66,101.62,0
133,114.05,101.93,0
133,114.43,102.24,0
133,114.80,102.55,0
133,115.16,102.85,0
133,115.52,103.15,0
134,115.89,103.46,0
134,116.25,103.77,0
135,116.63,104.08,0
134,116.97,104.38,0
134,117.31,104.68,0
133,117.63,104.96,0
135,117.98,105.26,0
135,118.32,105.56,0
135,118.65,105.85,0
137,119.02,106.16,0
136,119.36,106.46,0
136,119.69,106.76,0
135,120.00,107.04,0
136,120.32,107.33,0
136,120.63,107.62,0
135,120.92,107.89,0
136,121.22,108.17,0
136,121.51,108.45,0
135,121.78,108.71,0
136,122.07,108.99,0
135,122.33,109.25,0
136,122.60,109.51,0
136,122.87,109.78,0
135,123.11,110.03,0
138,123.41,110.31,0
136,123.66,110.57,0
137,123.93,110.83,0
137,124.19,111.09,0
137,124.44,111.35,0
136,124.68,111.60,0
137,124.92,111.85,0
137,125.16,112.11,0
139,125.44,112.37,0
139,125.71,112.64,0
139,125.98,112.90,0
139,126.24,113.17,0
139,126.49,113.42,0
139,126.74,113.68,0
139,126.99,113.93,0
138,127.21,114.17,0
136,127.38,114.39,0
138,127.60,114.63,0
139,127.83,114.87,0
137,128.01,115.09,0
137,128.19,115.31,0
137,128.36,115.53,0
137,128.54,115.74,0
138,128.73,115.97,0
137,128.89,116.18,0
137,129.05,116.38,0
137,129.21,116.59,0
137,129.37,116.79,0
136,129.50,116.99,0
137,129.65,117.19,0
137,129.80,117.38,0
136,129.92,117.57,0
136,130.04,117.76,0
135,130.14,117.93,0
135,130.24,118.10,0
135,130.34,118.27,0
135,130.43,118.43,0
134,130.50,118.59,0
135,130.59,118.75,0
134,130.66,118.91,0
135,130.75,119.07,0
134,130.81,119.22,0
133,130.85,119.36,0
133,130.90,119.49,0
133,130.94,119.63,0
133,130.98,119.76,0
133,131.02,119.89,0
133,131.06,120.02,0
133,131.10,120.15,0
133,131.14,120.28,0
134,131.19,120.42,0
132,131.21,120.54,0
132,131.23,120.65,0
132,131.24,120.76,0
131,131.24,120.87,0
134,131.29,121.00,0
131,131.29,121.10,0
131,131.28,121.20,0
131,131.28,121.29,0
129,131.23,121.37,0
131,131.22,121.47,0
129,131.18,121.54,0
129,131.14,121.62,0
131,131.13,121.71,0
130,131.11,121.79,0
130,131.09,121.88,0
129,131.05,121.95,0
131,131.05,122.04,0
129,131.01,122.11,0
131,131.01,122.20,0
129,130.97,122.26,0
128,130.91,122.32,0
130,130.89,122.40,0
129,130.85,122.46,0
129,130.81,122.53,0
129,130.78,122.59,0
130,130.76,122.67,0
129,130.73,122.73,0
129,130.69,122.79,0
129,130.66,122.86,0
129,130.62,122.92,0
129,130.59,122.98,0
129,130.56,123.04,0
128,130.51,123.09,0
129,130.48,123.15,0
128,130.43,123.20,0
128,130.38,123.24,0
127,130.31,123.28,0
128,130.27,123.33,0
127,130.20,123.37,0
128,130.16,123.41,0
127,130.09,123.45,0
129,130.07,123.50,0
127,130.01,123.54,0
127,129.95,123.57,0
127,129.89,123.61,0
127,129.83,123.64,0
127,129.78,123.68,0
126,129.70,123.70,0
127,129.65,123.73,0
126,129.57,123.75,0
127,129.52,123.79,0
125,129.43,123.80,0
125,129.34,123.81,0
125,129.26,123.82,0
125,129.17,123.83,0
125,129.09,123.85,0
125,129.01,123.86,0
125,128.93,123.87,0
125,128.85,123.88,0
127,128.81,123.91,0
123,128.70,123.90,0
124,128.60,123.90,0
124,128.51,123.90,0
124,128.42,123.91,0
123,128.31,123.90,0
125,128.24,123.91,0
123,128.14,123.90,0
123,128.04,123.89,0
121,127.90,123.86,0
122,127.78,123.84,0
124,127.70,123.84,0
124,127.63,123.84,0
122,127.52,123.83,0
122,127.41,123.81,0
122,127.30,123.79,0
121,127.17,123.76,0
122,127.07,123.74,0
121,126.95,123.72,0
121,126.83,123.69,0
121,126.71,123.66,0
121,126.60,123.64,0
121,126.49,123.61,0
121,126.38,123.58,0
121,126.27,123.56,0
120,126.14,123.52,0
121,126.04,123.50,0
121,125.94,123.47,0
120,125.82,123.44,0
121,125.72,123.41,0
120,125.61,123.38,0
119,125.48,123.34,0
120,125.37,123.30,0
119,125.24,123.26,0
120,125.14,123.23,0
119,125.01,123.18,0
119,124.89,123.14,0
119,124.77,123.10,0
117,124.62,123.04,0
119,124.51,123.00,0
119,124.40,122.96,0
117,124.25,122.90,0
117,124.10,122.84,0
118,123.98,122.79,0
117,123.84,122.73,0
117,123.71,122.68,0
117,123.57,122.62,0
117,123.44,122.56,0
117,123.31,122.51,0
115,123.14,122.43,0
115,122.98,122.36,0
117,122.86,122.31,0
116,122.72,122.24,0
117,122.61,122.19,0
115,122.46,122.12,0
114,122.29,122.04,0
115,122.14,121.97,0
116,122.02,121.91,0
115,121.88,121.84,0
114,121.72,121.76,0
114,121.57,121.68,0
116,121.46,121.63,0
117,121.37,121.58,0
114,121.22,121.50,0
113,121.06,121.42,0
113,120.89,121.33,0
114,120.76,121.26,0
114,120.62,121.19,0
113,120.47,121.11,0
113,120.32,121.02,0
113,120.17,120.94,0
113,120.03,120.87,0
113,119.89,120.79,0
113,119.75,120.71,0
113,119.62,120.63,0
113,119.48,120.56,0
113,119.35,120.48,0
113,119.23,120.40,0
112,119.08,120.32,0
112,118.94,120.24,0
112,118.80,120.16,0
111,118.65,120.06,0
111,118.49,119.97,0
112,118.36,119.89,0
111,118.22,119.80,0
110,118.05,119.71,0
111,117.91,119.62,0
111,117.77,119.53,0
110,117.62,119.44,0
111,117.48,119.35,0
111,117.36,119.27,0
111,117.23,119.19,0
112,117.12,119.12,0
111,117.00,119.03,0
114,116.94,118.98,0
111,116.82,118.90,0
109,116.67,118.81,0
110,116.53,118.72,0
109,116.38,118.62,0
110,116.25,118.53,0
109,116.11,118.44,0
109,115.97,118.34,0
109,115.83,118.25,0
109,115.69,118.16,0
110,115.58,118.08,0
109,115.45,117.99,0
109,115.32,117.90,0
109,115.19,117.81,0
109,115.07,117.72,0
108,114.93,117.62,0
107,114.77,117.52,0
108,114.63,117.42,0
109,114.52,117.34,0
109,114.41,117.25,0
108,114.28,117.16,0
107,114.13,117.06,0
108,114.01,116.97,0
107,113.87,116.87,0
108,113.75,116.78,0
108,113.64,116.69,0
107,113.51,116.59,0
108,113.40,116.51,0
107,113.27,116.41,0
107,113.14,116.32,0
107,113.02,116.23,0
107,112.90,116.13,0
106,112.76,116.03,0
107,112.65,115.94,0
105,112.49,115.83,0
105,112.34,115.72,0
105,112.20,115.62,0
106,112.07,115.52,0
105,111.93,115.42,0
105,111.79,115.31,0
105,111.66,115.21,0
105,111.52,115.11,0
105,111.39,115.01,0
105,111.27,114.91,0
105,111.14,114.81,0
104,111.00,114.70,0
105,110.88,114.60,0
104,110.74,114.50,0
105,110.63,114.40,0
104,110.49,114.30,0
105,110.38,114.20,0
104,110.26,114.10,0
103,110.11,113.99,0
103,109.97,113.88,0
105,109.87,113.79,0
103,109.73,113.68,0
103,109.60,113.58,0
103,109.46,113.47,0
103,109.34,113.37,0
103,109.21,113.26,0
103,109.08,113.16,0
102,108.94,113.05,0
102,108.80,112.94,0
103,108.69,112.84,0
102,108.55,112.73,0
103,108.44,112.63,0
101,108.29,112.52,0
101,108.15,112.40,0
101,108.01,112.29,0
101,107.87,112.17,0
101,107.73,112.06,0
103,107.63,111.97,0
101,107.50,111.86,0
101,107.37,111.75,0
101,107.24,111.65,0
101,107.12,111.54,0
101,107.00,111.43,0
101,106.88,111.33,0
100,106.74,111.22,0
100,106.60,111.10,0
100,106.47,110.99,0
99,106.32,110.87,0
100,106.20,110.77,0
99,106.05,110.65,0
100,105.93,110.54,0
99,105.79,110.43,0
98,105.64,110.30,0
100,105.52,110.20,0
100,105.41,110.10,0
100,105.30,110.00,0
99,105.18,109.89,0
100,105.08,109.79,0
100,104.97,109.69,0
100,104.87,109.59,0
100,104.78,109.50,0
100,104.68,109.40,0
99,104.57,109.30,0
99,104.46,109.19,0
100,104.37,109.10,0
100,104.28,109.01,0
99,104.17,108.91,0
99,104.07,108.81,0
99,103.97,108.71,0
100,103.89,108.63,0
99,103.79,108.53,0
99,103.70,108.43,0
95,103.52,108.30,0
98,103.41,108.20,0
98,103.30,108.10,0
98,103.20,107.99,0
100,103.13,107.91,0
98,103.03,107.82,0
98,102.93,107.72,0
98,102.83,107.62,0
97,102.72,107.51,0
98,102.62,107.42,0
97,102.51,107.31,0
96,102.38,107.20,0
100,102.33,107.13,0
98,102.24,107.04,0
97,102.14,106.94,0
97,102.04,106.84,0
96,101.92,106.73,0
97,101.82,106.63,0
96,101.70,106.53,0
97,101.61,106.43,0
96,101.49,106.33,0
96,101.38,106.22,0
96,101.28,106.12,0
96,101.17,106.02,0
97,101.09,105.93,0
96,100.99,105.83,0
97,100.91,105.74,0
96,100.81,105.64,0
97,100.73,105.56,0
96,100.64,105.46,0
95,100.53,105.36,0
96,100.43,105.26,0
95,100.33,105.16,0
96,100.24,105.07,0
95,100.13,104.97,0
95,100.03,104.87,0
95,99.93,104.77,0
95,99.83,104.67,0
96,99.76,104.59,0
95,99.66,104.49,0
95,99.57,104.40,0
96,99.50,104.31,0
95,99.41,104.22,0
95,99.32,104.13,0
94,99.21,104.03,0
94,99.11,103.93,0
95,99.03,103.84,0
95,98.95,103.75,0
95,98.87,103.66,0
93,98.75,103.55,0
93,98.63,103.45,0
93,98.52,103.34,0
94,98.43,103.25,0
95,98.36,103.17,0
94,98.27,103.08,0
93,98.17,102.98,0
93,98.07,102.88,0
93,97.96,102.78,0
93,97.87,102.68,0
93,97.77,102.58,0
93,97.67,102.49,0
93,97.58,102.39,0
93,97.49,102.30,0
93,97.40,102.20,0
93,97.31,102.11,0
92,97.20,102.01,0
93,97.12,101.92,0
93,97.04,101.83,0
93,96.96,101.74,0
92,96.86,101.65,0
92,96.76,101.55,0
92,96.67,101.45,0
92,96.57,101.36,0
93,96.50,101.28,0
93,96.43,101.19,0
92,96.34,101.10,0
93,96.27,101.02,0
93,96.21,100.94,0
92,96.13,100.85,0
91,96.02,100.75,0
92,95.94,100.66,0
91,95.84,100.57,0
92,95.77,100.48,0
93,95.71,100.41,0
91,95.62,100.31,0
91,95.52,100.22,0
91,95.43,100.13,0
91,95.35,100.04,0
91,95.26,99.95,0
90,95.15,99.85,0
90,95.05,99.75,0
91,94.97,99.66,0
94,94.95,99.60,0
90,94.85,99.51,0
90,94.75,99.41,0
90,94.66,99.32,0
90,94.57,99.23,0
90,94.47,99.13,0
90,94.38,99.04,0
90,94.30,98.95,0
92,94.25,98.88,0
90,94.17,98.79,0
92,94.12,98.73,0
89,94.02,98.63,0
89,93.92,98.53,0
89,93.82,98.44,0
88,93.71,98.33,0
88,93.59,98.23,0
89,93.50,98.14,0
88,93.39,98.04,0
89,93.30,97.95,0
88,93.20,97.85,0
88,93.09,97.75,0
91,93.05,97.68,0
88,92.95,97.58,0
88,92.85,97.49,0
87,92.73,97.38,0
88,92.64,97.29,0
88,92.55,97.20,0
88,92.45,97.10,0
87,92.35,97.00,0
88,92.26,96.91,0
88,92.17,96.82,0
88,92.09,96.74,0
88,92.01,96.65,0
88,91.93,96.56,0
88,91.85,96.48,0
87,91.75,96.38,0
87,91.66,96.29,0
87,91.56,96.19,0
87,91.47,96.10,0
87,91.38,96.01,0
86,91.28,95.91,0
87,91.19,95.82,0
87,91.11,95.73,0
86,91.00,95.64,0
86,90.90,95.54,0
85,90.79,95.43,0
86,90.69,95.34,0
86,90.60,95.25,0
86,90.50,95.15,0
88,90.45,95.08,0
86,90.37,94.99,0
86,90.28,94.90,0
86,90.19,94.81,0
86,90.11,94.73,0
86,90.03,94.64,0
86,89.95,94.55,0
86,89.87,94.47,0
85,89.77,94.37,0
85,89.67,94.28,0
86,89.60,94.19,0
84,89.49,94.09,0
85,89.40,94.00,0
84,89.29,93.90,0
84,89.19,93.80,0
84,89.08,93.71,0
85,89.00,93.62,0
86,88.94,93.54,0
85,88.86,93.46,0
86,88.80,93.38,0
84,88.71,93.29,0
84,88.61,93.20,0
84,88.52,93.10,0
86,88.47,93.03,0
83,88.36,92.93,0
84,88.27,92.84,0
84,88.19,92.75,0
84,88.11,92.67,0
83,88.00,92.57,0
84,87.92,92.48,0
84,87.84,92.40,0
84,87.77,92.32,0
83,87.67,92.22,0
82,87.56,92.12,0
84,87.49,92.04,0
84,87.42,91.96,0
83,87.33,91.87,0
83,87.24,91.78,0
84,87.18,91.70,0
82,87.07,91.61,0
83,86.99,91.52,0
82,86.89,91.42,0
83,86.82,91.34,0
84,86.76,91.27,0
83,86.68,91.18,0
86,86.67,91.13,0
82,86.58,91.04,0
82,86.49,90.95,0
84,86.44,90.88,0
82,86.35,90.79,0
82,86.26,90.70,0
82,86.17,90.62,0
82,86.09,90.53,0
82,86.01,90.45,0
82,85.93,90.36,0
81,85.83,90.27,0
84,85.79,90.20,0
83,85.74,90.13,0
82,85.66,90.05,0
81,85.57,89.96,0
82,85.50,89.88,0
81,85.41,89.79,0
81,85.32,89.70,0
81,85.23,89.62,0
83,85.19,89.55,0
81,85.11,89.47,0
80,85.00,89.37,0
81,84.92,89.29,0
83,84.89,89.22,0
81,84.81,89.14,0
80,84.71,89.05,0
80,84.62,88.96,0
82,84.56,88.89,0
81,84.49,88.81,0
80,84.40,88.72,0
79,84.30,88.63,0
81,84.23,88.55,0
81,84.16,88.47,0
80,84.08,88.39,0
80,84.00,88.31,0
81,83.94,88.23,0
80,83.86,88.15,0
79,83.76,88.06,0
78,83.65,87.96,0
79,83.56,87.87,0
80,83.48,87.79,0
80,83.41,87.71,0
80,83.35,87.64,0
80,83.28,87.56,0
80,83.21,87.48,0
80,83.15,87.41,0
78,83.05,87.31,0
80,82.99,87.24,0
80,82.93,87.17,0
80,82.87,87.10,0
78,82.77,87.01,0
81,82.73,86.95,0
79,82.66,86.87,0
78,82.57,86.78,0
78,82.48,86.69,0
79,82.41,86.61,0
78,82.32,86.53,0
78,82.23,86.44,0
79,82.17,86.37,0
79,82.10,86.29,0
78,82.02,86.21,0
78,81.94,86.13,0
78,81.86,86.05,0
78,81.79,85.97,0
78,81.71,85.89,0
78,81.64,85.81,0
78,81.56,85.73,0
79,81.51,85.66,0
78,81.44,85.59,0
78,81.37,85.51,0
78,81.30,85.44,0
78,81.24,85.36,0
78,81.17,85.29,0
78,81.11,85.21,0
78,81.05,85.14,0
78,80.99,85.07,0
78,80.93,85.00,0
78,80.87,84.93,0
78,80.81,84.86,0
79,80.78,84.80,0
78,80.72,84.73,0
77,80.65,84.66,0
78,80.59,84.59,0
78,80.54,84.52,0
76,80.45,84.44,0
77,80.38,84.36,0
77,80.31,84.29,0
77,80.25,84.22,0
77,80.18,84.15,0
78,80.14,84.08,0
77,80.08,84.01,0
77,80.01,83.94,0
80,80.01,83.90,0
78,79.97,83.85,0
77,79.91,83.78,0
76,79.84,83.70,0
78,79.80,83.64,0
78,79.76,83.59,0
78,79.73,83.53,0
76,79.65,83.45,0
77,79.60,83.39,0
76,79.53,83.32,0
76,79.46,83.24,0
76,79.39,83.17,0
77,79.34,83.11,0
76,79.27,83.04,0
76,79.21,82.97,0
77,79.16,82.91,0
76,79.10,82.84,0
76,79.04,82.77,0
76,78.98,82.70,0
76,78.92,82.64,0
76,78.86,82.57,0
76,78.80,82.50,0
75,78.73,82.43,0
76,78.67,82.36,0
76,78.62,82.30,0
74,78.53,82.22,0
76,78.48,82.16,0
75,78.41,82.08,0
74,78.32,82.00,0
75,78.25,81.93,0
74,78.17,81.85,0
75,78.10,81.78,0
76,78.06,81.73,0
75,78.00,81.66,0
75,77.94,81.59,0
75,77.88,81.53,0
74,77.80,81.45,0
74,77.73,81.38,0
74,77.65,81.30,0
76,77.62,81.25,0
76,77.59,81.20,0
74,77.52,81.13,0
74,77.45,81.05,0
76,77.42,81.00,0
76,77.39,80.95,0
74,77.32,80.88,0
74,77.25,80.82,0
76,77.23,80.77,0
76,77.20,80.72,0
74,77.14,80.65,0
74,77.08,80.59,0
74,77.02,80.52,0
74,76.96,80.46,0
74,76.90,80.39,0
74,76.84,80.33,0
75,76.80,80.27,0
74,76.75,80.21,0
74,76.69,80.15,0
74,76.64,80.09,0
73,76.56,80.02,0
76,76.55,79.98,0
74,76.50,79.92,0
74,76.45,79.86,0
74,76.40,79.80,0
74,76.36,79.74,0
74,76.31,79.68,0
74,76.26,79.63,0
74,76.22,79.57,0
71,76.11,79.48,0
74,76.07,79.43,0
74,76.03,79.38,0
74,75.99,79.32,0
74,75.95,79.27,0
74,75.91,79.22,0
74,75.87,79.16,0
74,75.83,79.11,0
71,75.74,79.03,0
72,75.66,78.96,0
74,75.63,78.91,0
75,75.62,78.87,0
74,75.58,78.82,0
73,75.53,78.76,0
73,75.48,78.71,0
74,75.45,78.66,0
76,75.46,78.63,0
73,75.41,78.58,0
73,75.37,78.52,0
73,75.32,78.47,0
72,75.25,78.40,0
74,75.23,78.36,0
74,75.20,78.31,0
74,75.18,78.27,0
74,75.15,78.23,0
74,75.13,78.19,0
73,75.09,78.13,0
74,75.07,78.09,0
74,75.05,78.05,0
73,75.01,78.00,0
73,74.96,77.95,0
74,74.95,77.91,0
73,74.91,77.86,0
74,74.89,77.82,0
73,74.85,77.78,0
74,74.83,77.74,0
73,74.80,77.69,0
74,74.78,77.65,0
74,74.77,77.62,0
74,74.75,77.58,0
73,74.72,77.54,0
73,74.68,77.49,0
73,74.65,77.44,0
73,74.61,77.40,0
73,74.58,77.36,0
72,74.53,77.30,0
74,74.52,77.27,0
74,74.51,77.24,0
74,74.50,77.20,0
72,74.45,77.15,0
72,74.40,77.10,0
73,74.37,77.06,0
72,74.32,77.01,0
72,74.28,76.96,0
74,74.27,76.93,0
73,74.25,76.89,0
73,74.22,76.85,0
72,74.18,76.80,0
72,74.13,76.76,0
72,74.09,76.71,0
73,74.07,76.67,0
72,74.03,76.62,0
72,73.99,76.58,0
73,73.97,76.54,0
72,73.93,76.50,0
72,73.89,76.45,0
72,73.85,76.41,0
72,73.82,76.36,0
72,73.78,76.32,0
72,73.74,76.28,0
72,73.71,76.23,0
73,73.69,76.20,0
73,73.68,76.17,0
72,73.65,76.13,0
72,73.61,76.09,0
74,73.62,76.07,0
72,73.59,76.02,0
72,73.56,75.98,0
72,73.53,75.94,0
73,73.52,75.92,0
73,73.51,75.89,0
72,73.48,75.85,0
72,73.45,75.81,0
73,73.44,75.78,0
73,73.43,75.75,0
72,73.40,75.72,0
74,73.41,75.70,0
73,73.40,75.67,0
73,73.40,75.64,0
74,73.41,75.63,0
74,73.42,75.61,0
73,73.41,75.59,0
74,73.42,75.57,0
74,73.43,75.55,0
76,73.49,75.56,0
74,73.50,75.54,0
74,73.51,75.53,0
74,73.52,75.51,0
74,73.53,75.50,0
74,73.54,75.48,0
74,73.54,75.47,0
74,73.55,75.45,0
74,73.56,75.44,0
74,73.57,75.42,0
74,73.58,75.41,0
74,73.59,75.40,0
75,73.62,75.39,0
78,73.70,75.42,0
76,73.75,75.42,0
76,73.80,75.43,0
74,73.80,75.41,0
74,73.80,75.40,0
76,73.85,75.41,0
76,73.89,75.41,0
75,73.91,75.41,0
75,73.93,75.40,0
76,73.98,75.41,0
76,74.02,75.42,0
74,74.02,75.40,0
76,74.06,75.41,0
79,74.15,75.44,0
76,74.19,75.45,0
76,74.23,75.45,0
71,74.16,75.41,0
76,74.20,75.42,0
76,74.24,75.42,0
76,74.27,75.43,0
76,74.31,75.43,0
77,74.36,75.45,0
76,74.39,75.45,0
77,74.44,75.47,0
79,74.54,75.51,0
77,74.58,75.52,0
77,74.63,75.54,0
76,74.66,75.54,0
76,74.69,75.54,0
77,74.73,75.56,0
76,74.76,75.56,0
77,74.80,75.58,0
79,74.89,75.61,0
77,74.93,75.63,0
76,74.95,75.63,0
77,74.99,75.64,0
79,75.07,75.68,0
78,75.13,75.70,0
77,75.17,75.71,0
78,75.22,75.74,0
79,75.30,75.77,0
79,75.37,75.80,0
78,75.43,75.82,0
78,75.48,75.84,0
79,75.55,75.88,0
79,75.62,75.91,0
78,75.67,75.93,0
78,75.71,75.95,0
79,75.78,75.98,0
79,75.84,76.01,0
79,75.91,76.04,0
79,75.97,76.07,0
81,76.07,76.12,0
80,76.15,76.16,0
79,76.20,76.19,0
80,76.28,76.22,0
80,76.35,76.26,0
80,76.43,76.30,0
80,76.50,76.34,0
79,76.55,76.36,0
80,76.62,76.40,0
81,76.71,76.45,0
82,76.81,76.50,0
82,76.91,76.56,0
82,77.02,76.61,0
82,77.12,76.66,0
82,77.21,76.72,0
82,77.31,76.77,0
83,77.42,76.83,0
82,77.51,76.88,0
82,77.60,76.94,0
82,77.69,76.99,0
83,77.80,77.05,0
82,77.88,77.10,0
82,77.97,77.14,0
83,78.07,77.20,0
82,78.14,77.25,0
84,78.26,77.32,0
83,78.36,77.38,0
83,78.45,77.43,0
83,78.54,77.49,0
82,78.61,77.53,0
82,78.68,77.58,0
84,78.78,77.64,0
83,78.87,77.70,0
84,78.97,77.76,0
84,79.07,77.82,0
84,79.17,77.88,0
83,79.25,77.93,0
84,79.34,77.99,0
85,79.45,78.06,0
84,79.55,78.12,0
85,79.65,78.19,0
84,79.74,78.25,0
86,79.87,78.33,0
85,79.97,78.39,0
84,80.05,78.45,0
86,80.17,78.53,0
86,80.29,78.60,0
86,80.40,78.68,0
86,80.51,78.75,0
86,80.62,78.82,0
86,80.73,78.89,0
86,80.83,78.96,0
86,80.94,79.03,0
86,81.04,79.10,0
86,81.14,79.17,0
88,81.28,79.26,0
86,81.37,79.33,0
85,81.44,79.39,0
86,81.53,79.45,0
86,81.62,79.52,0
86,81.71,79.58,0
85,81.78,79.64,0
87,81.88,79.71,0
91,82.06,79.82,0
88,82.18,79.90,0
88,82.30,79.99,0
88,82.41,80.07,0
87,82.50,80.13,0
90,82.65,80.23,0
87,82.74,80.30,0
89,82.87,80.39,0
87,82.95,80.45,0
90,83.09,80.55,0
89,83.21,80.63,0
90,83.34,80.73,0
91,83.50,80.83,0
92,83.67,80.94,0
92,83.83,81.05,0
91,83.98,81.15,0
88,84.06,81.22,0
91,84.20,81.32,0
92,84.35,81.43,0
93,84.53,81.54,0
92,84.68,81.65,0
93,84.84,81.76,0
96,85.06,81.90,0
97,85.30,82.05,0
96,85.52,82.19,0
97,85.75,82.34,0
96,85.95,82.48,0
96,86.15,82.61,0
96,86.35,82.75,0
97,86.56,82.89,0
98,86.79,83.04,0
100,87.06,83.21,0
99,87.29,83.37,0
101,87.57,83.54,0
101,87.84,83.72,0
103,88.14,83.91,0
103,88.44,84.10,0
103,88.73,84.29,0
104,89.03,84.49,0
103,89.31,84.67,0
103,89.59,84.86,0
104,89.88,85.05,0
104,90.16,85.24,0
104,90.44,85.42,0
104,90.71,85.61,0
105,90.99,85.80,0
105,91.27,86.00,0
105,91.55,86.19,0
105,91.82,86.37,0
107,92.12,86.58,0
107,92.42,86.78,0
107,92.71,86.99,0
107,92.99,87.19,0
106,93.26,87.38,0
106,93.51,87.56,0
107,93.78,87.76,0
107,94.04,87.95,0
107,94.30,88.14,0
108,94.58,88.34,0
106,94.81,88.51,0
107,95.05,88.70,0
108,95.31,88.89,0
109,95.58,89.09,0
108,95.83,89.28,0
109,96.09,89.48,0
107,96.31,89.65,0
107,96.53,89.83,0
109,96.78,90.02,0
112,97.08,90.24,0
110,97.34,90.44,0
111,97.61,90.64,0
111,97.88,90.85,0
109,98.10,91.03,0
111,98.36,91.23,0
111,98.61,91.43,0
112,98.88,91.63,0
112,99.14,91.83,0
114,99.44,92.06,0
115,99.75,92.29,0
117,100.10,92.53,0
117,100.43,92.78,0
117,100.77,93.02,0
118,101.11,93.27,0
120,101.49,93.54,0
120,101.86,93.80,0
121,102.24,94.07,0
122,102.64,94.35,0
123,103.04,94.64,0
122,103.42,94.91,0
124,103.83,95.20,0
123,104.22,95.48,0
125,104.63,95.78,0
124,105.02,96.06,0
125,105.42,96.35,0
124,105.79,96.63,0
125,106.18,96.91,0
125,106.55,97.19,0
126,106.94,97.48,0
127,107.34,97.77,0
127,107.74,98.07,0
130,108.18,98.38,0
130,108.62,98.70,0
128,109.00,98.99,0
130,109.42,99.30,0
132,109.88,99.63,0
130,110.28,99.93,0
132,110.71,100.26,0
131,111.12,100.56,0
130,111.50,100.86,0
129,111.85,101.14,0
132,112.25,101.45,0
131,112.62,101.74,0
131,112.99,102.04,0
131,113.35,102.32,0
130,113.69,102.60,0
131,114.03,102.89,0
129,114.33,103.15,0
132,114.68,103.44,0
133,115.05,103.73,0
133,115.41,104.02,0
133,115.76,104.31,0
136,116.17,104.63,0
136,116.56,104.94,0
136,116.95,105.25,0
136,117.33,105.56,0
138,117.75,105.89,0
137,118.13,106.20,0
138,118.53,106.52,0
137,118.90,106.82,0
137,119.26,107.12,0
137,119.61,107.42,0
139,120.00,107.74,0
139,120.38,108.05,0
139,120.75,108.36,0
142,121.18,108.70,0
140,121.56,109.01,0
141,121.94,109.33,0
140,122.31,109.63,0
141,122.68,109.95,0
141,123.05,110.26,0
141,123.41,110.57,0
145,123.84,110.91,0
143,124.22,111.23,0
143,124.60,111.55,0
143,124.96,111.86,0
143,125.32,112.18,0
143,125.68,112.48,0
141,125.98,112.77,0
142,126.31,113.06,0
143,126.64,113.36,0
143,126.97,113.66,0
143,127.29,113.95,0
143,127.60,114.24,0
143,127.91,114.53,0
144,128.23,114.82,0
144,128.55,115.11,0
143,128.84,115.39,0
145,129.16,115.69,0
145,129.48,115.98,0
146,129.81,116.28,0
145,130.11,116.57,0
144,130.39,116.84,0
145,130.68,117.13,0
147,131.01,117.42,0
148,131.35,117.73,0
147,131.66,118.02,0
148,131.99,118.32,0
148,132.31,118.62,0
149,132.64,118.92,0
149,132.97,119.22,0
149,133.29,119.52,0
148,133.58,119.81,0
150,133.91,120.11,0
149,134.21,120.40,0
148,134.49,120.67,0
148,134.76,120.95,0
149,135.04,121.23,0
147,135.28,121.49,0
147,135.52,121.74,0
148,135.77,122.00,0
147,135.99,122.25,0
147,136.21,122.50,0
147,136.43,122.75,0
147,136.64,122.99,0
147,136.85,123.23,0
147,137.05,123.47,0
146,137.23,123.69,0
145,137.38,123.90,0
145,137.54,124.12,0
146,137.71,124.33,0
146,137.87,124.55,0
145,138.01,124.76,0
145,138.15,124.96,0
146,138.31,125.17,0
145,138.44,125.37,0
145,138.58,125.56,0
144,138.68,125.75,0
144,138.79,125.93,0
144,138.89,126.11,0
144,139.00,126.29,0
143,139.08,126.46,0
143,139.15,126.62,0
143,139.23,126.79,0
143,139.31,126.95,0
143,139.38,127.11,0
143,139.45,127.27,0
142,139.50,127.41,0
142,139.55,127.56,0
141,139.58,127.69,0
141,139.61,127.83,0
141,139.64,127.96,0
141,139.67,128.09,0
140,139.67,128.21,0
141,139.70,128.34,0
140,139.71,128.45,0
141,139.73,128.58,0
141,139.76,128.70,0
140,139.76,128.82,0
140,139.77,128.93,0
140,139.77,129.04,0
139,139.76,129.14,0
140,139.76,129.25,0
139,139.75,129.34,0
140,139.75,129.45,0
140,139.76,129.56,0
140,139.76,129.66,0
139,139.75,129.75,0
140,139.75,129.86,0
139,139.74,129.95,0
139,139.72,130.04,0
139,139.71,130.13,0
140,139.71,130.23,0
137,139.66,130.29,0
139,139.64,130.38,0
137,139.59,130.45,0
138,139.56,130.52,0
138,139.53,130.60,0
137,139.48,130.66,0
138,139.45,130.74,0
137,139.40,130.80,0
137,139.35,130.86,0
136,139.28,130.91,0
136,139.22,130.96,0
136,139.15,131.01,0
136,139.09,131.06,0
136,139.03,131.11,0
136,138.97,131.16,0
137,138.93,131.22,0
137,138.89,131.28,0
136,138.83,131.32,0
135,138.76,131.36,0
133,138.64,131.38,0
135,138.57,131.41,0
135,138.50,131.45,0
135,138.43,131.49,0
134,138.34,131.51,0
134,138.25,131.54,0
133,138.15,131.55,0
133,138.04,131.56,0
133,137.94,131.58,0
133,137.84,131.59,0
133,137.75,131.61,0
133,137.65,131.62,0
133,137.56,131.63,0
131,137.43,131.63,0
132,137.32,131.63,0
132,137.21,131.64,0
131,137.09,131.63,0
132,136.99,131.63,0
131,136.87,131.63,0
132,136.77,131.63,0
131,136.65,131.62,0
131,136.54,131.62,0
131,136.43,131.61,0
131,136.32,131.61,0
131,136.22,131.60,0
131,136.11,131.59,0
130,135.99,131.58,0
130,135.87,131.56,0
129,135.73,131.54,0
131,135.64,131.53,0
129,135.50,131.51,0
129,135.37,131.48,0
129,135.25,131.46,0
129,135.12,131.43,0
129,135.00,131.41,0
130,134.90,131.39,0
129,134.78,131.37,0
129,134.67,131.35,0
128,134.53,131.31,0
132,134.48,131.32,0
129,134.37,131.30,0
128,134.25,131.26,0
128,134.12,131.23,0
128,134.00,131.20,0
129,133.90,131.18,0
128,133.78,131.14,0
127,133.64,131.10,0
127,133.51,131.06,0
127,133.38,131.02,0
125,133.21,130.96,0
127,133.09,130.92,0
127,132.97,130.88,0
126,132.83,130.83,0
126,132.69,130.78,0
126,132.56,130.74,0
124,132.39,130.67,0
125,132.24,130.61,0
126,132.11,130.57,0
125,131.97,130.51,0
125,131.83,130.46,0
125,131.70,130.40,0
125,131.56,130.35,0
125,131.43,130.29,0
125,131.30,130.24,0
124,131.16,130.18,0
124,131.01,130.12,0
124,130.87,130.06,0
124,130.74,130.00,0
123,130.58,129.93,0
123,130.43,129.86,0
123,130.28,129.79,0
123,130.13,129.72,0
124,130.01,129.66,0
123,129.87,129.60,0
124,129.75,129.54,0
123,129.62,129.47,0
123,129.49,129.41,0
122,129.34,129.34,0
121,129.17,129.25,0
121,129.01,129.17,0
124,128.91,129.12,0
121,128.75,129.04,0
121,128.59,128.96,0
121,128.44,128.88,0
122,128.31,128.81,0
121,128.17,128.73,0
121,128.02,128.65,0
121,127.88,128.58,0
121,127.75,128.50,0
121,127.61,128.43,0
120,127.46,128.34,0
120,127.31,128.26,0
120,127.16,128.18,0
120,127.02,128.09,0
119,126.86,128.00,0
121,126.74,127.93,0
119,126.59,127.84,0
120,126.46,127.76,0
119,126.31,127.68,0
119,126.16,127.59,0
119,126.02,127.50,0
119,125.88,127.42,0
119,125.74,127.34,0
119,125.60,127.25,0
119,125.47,127.17,0
118,125.32,127.08,0
119,125.20,127.00,0
118,125.05,126.91,0
117,124.89,126.81,0
117,124.73,126.71,0
117,124.58,126.61,0
117,124.43,126.52,0
117,124.28,126.42,0
117,124.13,126.33,0
117,123.99,126.23,0
117,123.85,126.14,0
117,123.71,126.05,0
115,123.54,125.94,0
117,123.41,125.85,0
116,123.26,125.75,0
116,123.12,125.65,0
116,122.97,125.56,0
115,122.81,125.45,0
116,122.68,125.36,0
115,122.52,125.25,0
116,122.39,125.16,0
115,122.25,125.06,0
113,122.06,124.94,0
114,121.90,124.83,0
115,121.76,124.73,0
114,121.61,124.62,0
115,121.47,124.53,0
113,121.30,124.41,0
113,121.14,124.30,0
113,120.98,124.19,0
114,120.84,124.08,0
113,120.68,123.97,0
113,120.53,123.86,0
113,120.38,123.75,0
114,120.25,123.66,0
113,120.10,123.55,0
113,119.96,123.44,0
113,119.82,123.34,0
113,119.69,123.24,0
113,119.55,123.13,0
112,119.40,123.02,0
111,119.23,122.90,0
111,119.07,122.78,0
111,118.91,122.67,0
111,118.75,122.55,0
113,118.63,122.45,0
111,118.48,122.34,0
111,118.33,122.23,0
109,118.14,122.09,0
111,118.00,121.98,0
111,117.86,121.87,0
111,117.72,121.76,0
111,117.59,121.66,0
111,117.46,121.55,0
111,117.33,121.44,0
110,117.18,121.33,0
111,117.06,121.23,0
110,116.92,121.11,0
110,116.78,121.00,0
109,116.62,120.88,0
110,116.49,120.77,0
109,116.34,120.66,0
108,116.17,120.53,0
109,116.03,120.42,0
109,115.89,120.30,0
109,115.75,120.19,0
110,115.64,120.09,0
109,115.50,119.98,0
109,115.37,119.87,0
108,115.23,119.75,0
108,115.08,119.63,0
108,114.94,119.51,0
107,114.78,119.39,0
108,114.65,119.27,0
108,114.51,119.16,0
108,114.38,119.05,0
107,114.24,118.93,0
108,114.11,118.82,0
107,113.97,118.70,0
107,113.83,118.58,0
107,113.69,118.47,0
107,113.56,118.35,0
107,113.43,118.24,0
103,113.22,118.09,0
106,113.07,117.97,0
106,112.93,117.85,0
105,112.77,117.72,0
105,112.62,117.59,0
106,112.49,117.48,0
106,112.36,117.36,0
105,112.21,117.24,0
105,112.07,117.12,0
105,111.92,116.99,0
105,111.79,116.87,0
105,111.65,116.76,0
105,111.52,116.64,0
105,111.39,116.52,0
105,111.26,116.41,0
105,111.13,116.29,0
104,110.99,116.17,0
106,110.89,116.07,0
105,110.77,115.96,0
105,110.66,115.85,0
105,110.54,115.74,0
105,110.43,115.63,0
105,110.33,115.53,0
104,110.20,115.41,0
104,110.07,115.30,0
104,109.95,115.18,0
104,109.83,115.07,0
104,109.72,114.96,0
104,109.60,114.85,0
104,109.49,114.74,0
104,109.38,114.63,0
103,109.25,114.52,0
104,109.15,114.41,0
103,109.03,114.30,0
104,108.93,114.20,0
103,108.81,114.08,0
103,108.69,113.97,0
101,108.54,113.84,0
103,108.43,113.74,0
103,108.32,113.63,0
102,108.19,113.51,0
101,108.05,113.39,0
101,107.91,113.26,0
101,107.77,113.14,0
101,107.63,113.02,0
101,107.50,112.90,0
101,107.37,112.78,0
101,107.24,112.66,0
101,107.12,112.55,0
101,107.00,112.43,0
101,106.88,112.32,0
101,106.76,112.20,0
100,106.62,112.08,0
101,106.51,111.97,0
101,106.40,111.86,0
102,106.31,111.76,0
100,106.19,111.64,0
100,106.06,111.53,0
101,105.96,111.42,0
99,105.82,111.30,0
99,105.69,111.17,0
100,105.57,111.06,0
103,105.52,110.98,0
99,105.39,110.86,0
99,105.26,110.74,0
98,105.12,110.62,0
101,105.03,110.52,0
98,104.89,110.39,0
100,104.80,110.29,0
98,104.66,110.17,0
100,104.57,110.07,0
98,104.44,109.95,0
98,104.31,109.83,0
99,104.20,109.72,0
97,104.06,109.59,0
98,103.94,109.47,0
100,103.86,109.38,0
98,103.74,109.27,0
98,103.62,109.15,0
98,103.51,109.04,0
98,103.40,108.93,0
98,103.29,108.82,0
98,103.19,108.71,0
98,103.08,108.61,0
96,102.94,108.48,0
97,102.82,108.37,0
96,102.69,108.24,0
97,102.57,108.13,0
98,102.48,108.03,0
97,102.37,107.92,0
98,102.29,107.82,0
97,102.18,107.71,0
96,102.06,107.59,0
95,101.91,107.47,0
96,101.80,107.35,0
96,101.68,107.24,0
97,101.59,107.14,0
96,101.48,107.03,0
96,101.37,106.92,0
96,101.26,106.81,0
96,101.15,106.70,0
97,101.07,106.60,0
94,100.93,106.48,0
95,100.81,106.36,0
96,100.71,106.26,0
93,100.56,106.12,0
96,100.47,106.02,0
95,100.36,105.91,0
95,100.25,105.80,0
95,100.15,105.70,0
95,100.04,105.59,0
95,99.94,105.48,0
95,99.84,105.38,0
95,99.75,105.27,0
94,99.63,105.16,0
95,99.54,105.06,0
96,99.47,104.97,0
95,99.38,104.87,0
95,99.29,104.77,0
95,99.21,104.67,0
95,99.12,104.58,0
95,99.04,104.48,0
95,98.96,104.39,0
93,98.84,104.27,0
95,98.76,104.18,0
95,98.69,104.09,0
94,98.59,103.99,0
94,98.50,103.89,0
94,98.41,103.79,0
94,98.32,103.69,0
94,98.24,103.59,0
93,98.13,103.49,0
93,98.03,103.38,0
93,97.93,103.28,0
93,97.83,103.18,0
93,97.73,103.07,0
93,97.64,102.97,0
93,97.55,102.87,0
93,97.46,102.78,0
93,97.37,102.68,0
93,97.28,102.58,0
94,97.21,102.49,0
93,97.13,102.40,0
92,97.03,102.30,0
92,96.93,102.19,0
92,96.83,102.09,0
92,96.73,101.99,0
92,96.64,101.89,0
92,96.54,101.79,0
92,96.45,101.69,0
91,96.34,101.59,0
92,96.26,101.49,0
93,96.19,101.41,0
92,96.11,101.31,0
91,96.01,101.21,0
91,95.91,101.11,0
91,95.81,101.01,0
92,95.73,100.92,0
89,95.60,100.80,0
91,95.50,100.70,0
91,95.41,100.60,0
92,95.35,100.52,0
89,95.22,100.40,0
94,95.20,100.34,0
90,95.09,100.23,0
91,95.01,100.14,0
92,94.95,100.06,0
91,94.87,99.97,0
89,94.75,99.86,0
89,94.64,99.75,0
91,94.57,99.66,0
90,94.47,99.57,0
90,94.38,99.47,0
89,94.28,99.37,0
90,94.19,99.27,0
89,94.09,99.17,0
90,94.01,99.08,0
89,93.91,98.98,0
90,93.83,98.89,0
90,93.75,98.80,0
90,93.68,98.71,0
89,93.58,98.61,0
88,93.47,98.51,0
89,93.38,98.41,0
89,93.29,98.32,0
88,93.19,98.21,0
89,93.10,98.12,0
90,93.04,98.04,0
89,92.96,97.95,0
88,92.86,97.85,0
90,92.80,97.77,0
88,92.71,97.67,0
88,92.61,97.58,0
88,92.52,97.48,0
86,92.39,97.37,0
88,92.30,97.27,0
88,92.22,97.18,0
88,92.13,97.09,0
88,92.05,97.00,0
88,91.97,96.91,0
88,91.89,96.82,0
86,91.77,96.71,0
86,91.66,96.60,0
87,91.56,96.51,0
88,91.49,96.42,0
86,91.38,96.32,0
88,91.32,96.24,0
88,91.25,96.15,0
87,91.16,96.06,0
86,91.06,95.96,0
86,90.96,95.86,0
87,90.88,95.77,0
87,90.80,95.69,0
86,90.71,95.59,0
87,90.63,95.50,0
87,90.56,95.42,0
86,90.47,95.32,0
86,90.38,95.23,0
87,90.31,95.15,0
86,90.23,95.06,0
86,90.14,94.97,0
86,90.06,94.88,0
87,90.00,94.80,0
86,89.92,94.71,0
86,89.84,94.62,0
86,89.76,94.54,0
87,89.71,94.46,0
85,89.61,94.37,0
86,89.54,94.28,0
86,89.47,94.20,0
85,89.38,94.11,0
86,89.31,94.03,0
86,89.25,93.95,0
87,89.20,93.88,0
86,89.14,93.80,0
90,89.15,93.76,0
86,89.09,93.68,0
86,89.03,93.61,0
85,88.95,93.52,0
85,88.87,93.43,0
86,88.81,93.36,0
84,88.72,93.27,0
86,88.66,93.19,0
83,88.55,93.09,0
84,88.46,93.00,0
84,88.37,92.91,0
85,88.30,92.83,0
84,88.22,92.74,0
84,88.13,92.66,0
84,88.05,92.57,0
84,87.97,92.48,0
81,87.83,92.37,0
84,87.75,92.29,0
84,87.68,92.20,0
84,87.60,92.12,0
84,87.53,92.04,0
85,87.48,91.97,0
84,87.41,91.89,0
83,87.32,91.80,0
84,87.26,91.72,0
85,87.21,91.65,0
84,87.15,91.58,0
84,87.08,91.50,0
83,87.00,91.42,0
84,86.94,91.34,0
84,86.88,91.27,0
84,86.83,91.20,0
83,86.75,91.12,0
82,86.65,91.02,0
83,86.58,90.94,0
83,86.51,90.86,0
83,86.44,90.79,0
82,86.35,90.70,0
82,86.26,90.61,0
83,86.20,90.53,0
81,86.09,90.44,0
82,86.01,90.36,0
82,85.93,90.27,0
82,85.85,90.19,0
84,85.82,90.13,0
82,85.74,90.05,0
82,85.67,89.97,0
82,85.59,89.89,0
81,85.50,89.80,0
81,85.41,89.71,0
82,85.34,89.63,0
84,85.32,89.58,0
81,85.23,89.49,0
82,85.16,89.41,0
82,85.10,89.34,0
80,85.00,89.25,0
81,84.92,89.16,0
81,84.84,89.08,0
80,84.74,88.99,0
81,84.67,88.91,0
80,84.58,88.82,0
80,84.48,88.73,0
80,84.39,88.65,0
80,84.31,88.56,0
81,84.24,88.49,0
80,84.16,88.40,0
80,84.07,88.32,0
81,84.01,88.24,0
80,83.93,88.16,0
81,83.87,88.09,0
80,83.79,88.01,0
79,83.70,87.92,0
81,83.64,87.85,0
80,83.57,87.77,0
80,83.50,87.69,0
81,83.45,87.63,0
80,83.38,87.55,0
80,83.31,87.47,0
80,83.25,87.40,0
79,83.16,87.32,0
81,83.12,87.25,0
80,83.06,87.18,0
80,83.00,87.11,0
80,82.94,87.04,0
80,82.88,86.97,0
80,82.82,86.90,0
80,82.76,86.83,0
80,82.71,86.76,0
80,82.65,86.69,0
78,82.56,86.61,0
79,82.49,86.53,0
80,82.44,86.46,0
79,82.37,86.39,0
78,82.28,86.31,0
79,82.22,86.23,0
79,82.15,86.16,0
79,82.09,86.09,0
80,82.05,86.03,0
78,81.97,85.95,0
79,81.91,85.88,0
80,81.87,85.82,0
78,81.79,85.74,0
79,81.74,85.67,0
79,81.68,85.61,0
78,81.61,85.53,0
80,81.58,85.48,0
78,81.50,85.40,0
79,81.45,85.34,0
78,81.39,85.26,0
80,81.36,85.21,0
78,81.29,85.14,0
79,81.24,85.08,0
80,81.22,85.03,0
79,81.18,84.97,0
78,81.11,84.90,0
83,81.15,84.88,0
79,81.11,84.82,0
79,81.06,84.76,0
78,81.00,84.69,0
78,80.94,84.63,0
80,80.92,84.58,0
79,80.89,84.52,0
78,80.83,84.46,0
79,80.79,84.40,0
78,80.74,84.34,0
79,80.70,84.29,0
78,80.65,84.22,0
79,80.61,84.17,0
78,80.56,84.11,0
78,80.51,84.05,0
78,80.46,83.99,0
76,80.37,83.91,0
78,80.32,83.85,0
78,80.28,83.79,0
78,80.23,83.73,0
78,80.19,83.68,0
77,80.12,83.61,0
78,80.08,83.55,0
78,80.04,83.50,0
78,80.00,83.44,0
79,79.98,83.40,0
78,79.94,83.34,0
78,79.90,83.29,0
79,79.88,83.25,0
79,79.86,83.21,0
78,79.83,83.15,0
78,79.79,83.10,0
77,79.73,83.04,0
77,79.68,82.98,0
77,79.63,82.92,0
77,79.57,82.86,0
76,79.50,82.79,0
78,79.47,82.74,0
78,79.44,82.70,0
76,79.37,82.63,0
77,79.33,82.57,0
77,79.28,82.52,0
76,79.21,82.45,0
76,79.15,82.39,0
76,79.09,82.32,0
77,79.05,82.27,0
76,78.98,82.21,0
76,78.92,82.15,0
76,78.87,82.08,0
76,78.81,82.02,0
76,78.75,81.96,0
76,78.70,81.90,0
76,78.64,81.85,0
76,78.59,81.79,0
78,78.58,81.75,0
76,78.53,81.69,0
77,78.50,81.64,0
77,78.47,81.60,0
76,78.42,81.54,0
76,78.37,81.49,0
78,78.36,81.45,0
77,78.33,81.41,0
76,78.29,81.35,0
78,78.28,81.32,0
77,78.26,81.28,0
76,78.21,81.22,0
76,78.17,81.17,0
76,78.12,81.12,0
77,78.10,81.08,0
76,78.06,81.03,0
76,78.02,80.98,0
76,77.98,80.93,0
77,77.96,80.89,0
76,77.92,80.84,0
76,77.88,80.79,0
76,77.84,80.74,0
77,77.83,80.71,0
76,77.79,80.66,0
78,77.79,80.63,0
78,77.80,80.61,0
76,77.76,80.56,0
78,77.77,80.53,0
79,77.79,80.52,0
76,77.76,80.47,0
77,77.74,80.44,0
76,77.71,80.39,0
76,77.67,80.35,0
77,77.66,80.32,0
77,77.65,80.28,0
78,77.65,80.26,0
76,77.62,80.22,0
76,77.59,80.18,0
76,77.56,80.13,0
76,77.52,80.09,0
76,77.49,80.05,0
76,77.46,80.01,0
76,77.43,79.97,0
76,77.41,79.93,0
77,77.40,79.90,0
76,77.37,79.86,0
76,77.34,79.82,0
76,77.32,79.79,0
76,77.29,79.75,0
76,77.26,79.71,0
76,77.24,79.67,0
77,77.23,79.65,0
76,77.21,79.61,0
76,77.18,79.57,0
75,77.14,79.53,0
77,77.14,79.50,0
76,77.12,79.47,0
75,77.07,79.42,0
76,77.05,79.39,0
76,77.03,79.36,0
76,77.01,79.32,0
78,77.03,79.31,0
75,76.99,79.27,0
76,76.97,79.23,0
76,76.95,79.20,0
74,76.89,79.15,0
74,76.83,79.10,0
75,76.80,79.06,0
75,76.76,79.02,0
74,76.71,78.97,0
76,76.69,78.94,0
74,76.64,78.89,0
74,76.58,78.84,0
74,76.53,78.79,0
74,76.48,78.74,0
74,76.43,78.69,0
74,76.38,78.65,0
72,76.30,78.58,0
75,76.27,78.55,0
75,76.24,78.51,0
74,76.20,78.46,0
74,76.16,78.42,0
75,76.13,78.39,0
74,76.09,78.34,0
74,76.05,78.30,0
74,76.01,78.26,0
74,75.97,78.21,0
76,75.97,78.19,0
74,75.93,78.15,0
74,75.89,78.11,0
74,75.85,78.07,0
74,75.82,78.03,0
74,75.78,77.99,0
74,75.74,77.95,0
74,75.71,77.91,0
74,75.67,77.87,0
74,75.64,77.83,0
74,75.61,77.79,0
74,75.58,77.75,0
74,75.54,77.71,0
74,75.51,77.68,0
73,75.46,77.63,0
74,75.43,77.59,0
74,75.41,77.56,0
74,75.38,77.52,0
74,75.35,77.49,0
74,75.32,77.45,0
74,75.30,77.42,0
74,75.27,77.38,0
74,75.24,77.35,0
74,75.22,77.32,0
74,75.20,77.28,0
74,75.17,77.25,0
74,75.15,77.22,0
73,75.11,77.18,0
72,75.04,77.12,0
74,75.02,77.09,0
74,75.00,77.06,0
73,74.96,77.02,0
72,74.90,76.97,0
73,74.86,76.93,0
72,74.81,76.88,0
73,74.77,76.84,0
74,74.76,76.81,0
73,74.72,76.78,0
74,74.71,76.75,0
73,74.67,76.71,0
72,74.62,76.66,0
72,74.57,76.62,0
73,74.53,76.58,0
74,74.52,76.56,0
72,74.47,76.51,0
73,74.44,76.48,0
73,74.42,76.44,0
73,74.39,76.41,0
73,74.36,76.37,0
72,74.31,76.33,0
73,74.29,76.29,0
74,74.28,76.27,0
73,74.25,76.24,0
74,74.25,76.22,0
73,74.22,76.18,0
74,74.22,76.16,0
73,74.20,76.13,0
74,74.19,76.11,0
72,74.15,76.07,0
73,74.12,76.04,0
73,74.10,76.01,0
74,74.10,75.99,0
74,74.10,75.97,0
73,74.08,75.94,0
75,74.09,75.93,0
72,74.05,75.89,0
72,74.01,75.85,0
74,74.01,75.83,0
74,74.01,75.81,0
73,73.99,75.79,0
74,73.99,75.77,0
74,73.99,75.75,0
74,73.99,75.73,0
74,73.99,75.72,0
74,73.99,75.70,0
74,73.99,75.68,0
76,74.03,75.68,0
75,74.05,75.68,0
74,74.05,75.66,0
74,74.05,75.64,0
76,74.09,75.65,0
74,74.09,75.63,0
74,74.09,75.61,0
75,74.10,75.61,0
77,74.16,75.62,0
76,74.20,75.63,0
74,74.19,75.61,0
76,74.23,75.61,0
76,74.27,75.62,0
76,74.30,75.62,0
76,74.33,75.63,0
76,74.37,75.63,0
76,74.40,75.63,0
75,74.41,75.63,0
74,74.40,75.61,0
76,74.44,75.61,0
75,74.45,75.61,0
76,74.48,75.61,0
76,74.51,75.62,0
76,74.54,75.62,0
76,74.57,75.62,0
76,74.60,75.63,0
76,74.62,75.63,0
77,74.67,75.64,0
75,74.68,75.64,0
73,74.65,75.61,0
76,74.67,75.62,0
76,74.70,75.62,0
76,74.72,75.62,0
76,74.75,75.63,0
76,74.78,75.63,0
76,74.80,75.63,0
75,74.80,75.63,0
76,74.83,75.63,0
78,74.89,75.66,0
77,74.93,75.67,0
76,74.95,75.67,0
76,74.98,75.68,0
77,75.02,75.69,0
77,75.06,75.70,0
77,75.09,75.72,0
78,75.15,75.74,0
76,75.17,75.74,0
77,75.21,75.75,0
78,75.26,75.78,0
78,75.32,75.80,0
76,75.33,75.80,0
76,75.34,75.80,0
76,75.36,75.80,0
76,75.37,75.81,0
76,75.38,75.81,0
77,75.41,75.82,0
77,75.45,75.83,0
77,75.48,75.84,0
77,75.51,75.85,0
78,75.56,75.88,0
78,75.61,75.90,0
77,75.63,75.91,0
77,75.66,75.92,0
78,75.71,75.94,0
77,75.73,75.95,0
78,75.78,75.97,0
77,75.80,75.98,0
78,75.85,76.00,0
79,75.91,76.03,0
78,75.95,76.05,0
77,75.97,76.06,0
77,75.99,76.07,0
77,76.01,76.08,0
76,76.01,76.08,0
77,76.03,76.09,0
79,76.09,76.12,0
80,76.17,76.16,0
79,76.23,76.18,0
78,76.26,76.20,0
79,76.32,76.23,0
79,76.37,76.26,0
80,76.44,76.30,0
80,76.52,76.33,0
80,76.59,76.37,0
80,76.65,76.41,0
80,76.72,76.44,0
79,76.77,76.47,0
81,76.85,76.51,0
79,76.89,76.54,0
80,76.96,76.57,0
79,77.00,76.60,0
81,77.08,76.64,0
82,77.18,76.69,0
80,77.23,76.73,0
80,77.29,76.76,0
80,77.34,76.79,0
82,77.43,76.84,0
81,77.51,76.89,0
80,77.56,76.92,0
82,77.64,76.97,0
81,77.71,77.01,0
82,77.80,77.06,0
82,77.88,77.11,0
82,77.96,77.16,0
82,78.04,77.20,0
82,78.12,77.25,0
82,78.20,77.30,0
83,78.30,77.36,0
84,78.41,77.42,0
84,78.52,77.49,0
84,78.63,77.55,0
85,78.76,77.63,0
86,78.90,77.71,0
86,79.05,77.80,0
86,79.19,77.88,0
86,79.32,77.96,0
86,79.46,78.04,0
88,79.63,78.14,0
88,79.79,78.24,0
90,80.00,78.36,0
89,80.18,78.46,0
88,80.33,78.56,0
89,80.51,78.66,0
91,80.72,78.78,0
90,80.90,78.90,0
90,81.09,79.01,0
91,81.28,79.13,0
91,81.48,79.25,0
90,81.65,79.35,0
89,81.80,79.45,0
92,82.00,79.58,0
91,82.18,79.69,0
90,82.34,79.79,0
92,82.53,79.92,0
92,82.72,80.04,0
91,82.88,80.15,0
92,83.07,80.26,0
91,83.23,80.37,0
92,83.40,80.49,0
90,83.53,80.58,0
92,83.70,80.70,0
91,83.85,80.80,0
92,84.01,80.91,0
93,84.19,81.03,0
93,84.37,81.15,0
92,84.52,81.26,0
92,84.67,81.37,0
94,84.86,81.50,0
94,85.04,81.62,0
93,85.20,81.73,0
95,85.39,81.87,0
95,85.59,82.00,0
94,85.75,82.12,0
95,85.94,82.25,0
95,86.12,82.37,0
95,86.30,82.50,0
95,86.47,82.63,0
94,86.62,82.74,0
94,86.77,82.85,0
95,86.93,82.97,0
96,87.12,83.10,0
96,87.29,83.23,0
95,87.45,83.35,0
96,87.62,83.48,0
96,87.79,83.60,0
96,87.95,83.73,0
95,88.09,83.84,0
96,88.25,83.96,0
97,88.43,84.09,0
95,88.56,84.20,0
96,88.71,84.32,0
96,88.85,84.43,0
97,89.01,84.56,0
96,89.15,84.67,0
97,89.31,84.80,0
98,89.48,84.93,0
99,89.68,85.07,0
97,89.82,85.19,0
98,89.99,85.32,0
101,90.21,85.47,0
99,90.38,85.61,0
99,90.55,85.74,0
97,90.68,85.86,0
98,90.83,85.98,0
98,90.97,86.10,0
99,91.13,86.23,0
100,91.31,86.37,0
100,91.48,86.50,0
100,91.65,86.64,0
101,91.84,86.78,0
101,92.02,86.92,0
101,92.20,87.06,0
101,92.38,87.20,0
101,92.55,87.34,0
102,92.74,87.49,0
103,92.95,87.64,0
102,93.13,87.79,0
102,93.30,87.93,0
102,93.48,88.07,0
103,93.67,88.22,0
103,93.86,88.37,0
101,94.00,88.49,0
105,94.22,88.66,0
107,94.47,88.84,0
106,94.70,89.01,0
105,94.91,89.17,0
105,95.11,89.33,0
111,95.43,89.55,0
107,95.66,89.72,0
108,95.91,89.90,0
109,96.17,90.10,0
109,96.43,90.28,0
107,96.64,90.45,0
107,96.85,90.62,0
107,97.05,90.78,0
107,97.25,90.94,0
107,97.44,91.10,0
107,97.63,91.26,0
107,97.82,91.42,0
108,98.02,91.59,0
107,98.20,91.74,0
108,98.40,91.90,0
108,98.59,92.06,0
108,98.78,92.22,0
109,98.98,92.39,0
109,99.19,92.56,0
109,99.38,92.72,0
109,99.57,92.88,0
111,99.80,93.07,0
111,100.03,93.24,0
112,100.27,93.43,0
114,100.54,93.64,0
112,100.77,93.82,0
112,100.99,94.00,0
113,101.23,94.19,0
115,101.51,94.40,0
113,101.74,94.59,0
114,101.98,94.78,0
115,102.25,94.98,0
115,102.50,95.18,0
117,102.79,95.40,0
118,103.09,95.63,0
120,103.43,95.87,0
121,103.78,96.12,0
120,104.11,96.36,0
121,104.45,96.61,0
124,104.84,96.88,0
125,105.24,97.16,0
125,105.64,97.44,0
126,106.04,97.73,0
128,106.48,98.03,0
130,106.95,98.35,0
128,107.37,98.65,0
128,107.79,98.94,0
128,108.19,99.23,0
130,108.63,99.54,0
130,109.05,99.84,0
131,109.49,100.15,0
129,109.88,100.44,0
131,110.31,100.75,0
133,110.76,101.07,0
133,111.20,101.39,0
136,111.70,101.74,0
136,112.19,102.08,0
138,112.70,102.44,0
137,113.19,102.78,0
138,113.68,103.14,0
139,114.19,103.49,0
139,114.69,103.85,0
139,115.17,104.20,0
139,115.65,104.55,0
140,116.14,104.90,0
139,116.59,105.24,0
139,117.04,105.58,0
140,117.50,105.93,0
139,117.93,106.26,0
140,118.37,106.59,0
140,118.81,106.93,0
141,119.25,107.27,0
141,119.68,107.61,0
141,120.11,107.94,0
140,120.51,108.26,0
140,120.90,108.58,0
141,121.30,108.90,0
141,121.69,109.22,0
141,122.08,109.54,0
141,122.46,109.86,0
141,122.83,110.17,0
142,123.21,110.49,0
141,123.57,110.79,0
142,123.94,111.10,0
143,124.32,111.42,0
144,124.71,111.75,0
144,125.10,112.07,0
145,125.50,112.40,0
145,125.89,112.73,0
148,126.33,113.08,0
149,126.78,113.44,0
149,127.23,113.79,0
151,127.70,114.17,0
153,128.21,114.55,0
153,128.70,114.94,0
153,129.19,115.32,0
155,129.71,115.72,0
155,130.21,116.11,0
156,130.73,116.51,0
155,131.21,116.89,0
156,131.71,117.28,0
157,132.21,117.68,0
160,132.77,118.10,0
155,133.21,118.47,0
157,133.69,118.86,0
158,134.18,119.25,0
159,134.67,119.65,0
157,135.12,120.02,0
159,135.60,120.41,0
159,136.07,120.80,0
159,136.52,121.18,0
157,136.93,121.54,0
158,137.35,121.90,0
159,137.79,122.27,0
159,138.21,122.64,0
157,138.59,122.98,0
158,138.98,123.33,0
159,139.38,123.69,0
156,139.71,124.01,0
157,140.05,124.34,0
158,140.41,124.68,0
158,140.77,125.01,0
157,141.09,125.33,0
157,141.41,125.65,0
157,141.72,125.96,0
157,142.03,126.27,0
157,142.33,126.58,0
157,142.62,126.88,0
157,142.91,127.19,0
155,143.15,127.46,0
156,143.41,127.75,0
155,143.64,128.02,0
156,143.88,128.30,0
155,144.11,128.57,0
156,144.34,128.84,0
155,144.56,129.10,0
156,144.79,129.37,0
156,145.01,129.64,0
155,145.21,129.89,0
155,145.41,130.14,0
155,145.60,130.39,0
155,145.79,130.64,0
155,145.97,130.88,0
153,146.11,131.10,0
153,146.25,131.32,0
153,146.38,131.54,0
154,146.54,131.76,0
153,146.67,131.98,0
153,146.79,132.19,0
153,146.92,132.39,0
152,147.02,132.59,0
153,147.14,132.79,0
152,147.23,132.99,0
152,147.33,133.18,0
152,147.42,133.37,0
151,147.50,133.54,0
151,147.57,133.72,0
155,147.71,133.93,0
151,147.78,134.10,0
152,147.86,134.28,0
151,147.93,134.45,0
151,147.99,134.61,0
151,148.05,134.78,0
151,148.11,134.94,0
150,148.15,135.09,0
150,148.18,135.24,0
150,148.22,135.38,0
150,148.25,135.53,0
150,148.29,135.68,0
151,148.34,135.83,0
150,148.38,135.97,0
149,148.39,136.10,0
149,148.40,136.23,0
149,148.41,136.36,0
149,148.43,136.48,0
149,148.44,136.61,0
149,148.45,136.73,0
149,148.46,136.86,0
148,148.45,136.97,0
147,148.42,137.07,0
148,148.41,137.18,0
148,148.40,137.29,0
148,148.40,137.39,0
148,148.39,137.50,0
147,148.36,137.59,0
147,148.33,137.69,0
147,148.31,137.78,0
147,148.28,137.87,0
147,148.25,137.96,0
147,148.23,138.05,0
147,148.21,138.14,0
147,148.18,138.23,0
147,148.16,138.32,0
146,148.11,138.40,0
145,148.05,138.46,0
147,148.03,138.55,0
145,147.97,138.61,0
146,147.93,138.69,0
145,147.87,138.75,0
145,147.81,138.81,0
145,147.76,138.87,0
145,147.70,138.94,0
143,147.61,138.98,0
144,147.54,139.03,0
144,147.47,139.08,0
144,147.40,139.13,0
143,147.31,139.16,0
143,147.22,139.20,0
143,147.14,139.24,0
143,147.06,139.28,0
143,146.97,139.32,0
143,146.90,139.35,0
143,146.82,139.39,0
142,146.72,139.41,0
143,146.65,139.45,0
141,146.53,139.47,0
141,146.42,139.48,0
142,146.33,139.51,0
141,146.23,139.52,0
141,146.12,139.54,0
141,146.02,139.55,0
141,145.92,139.57,0
141,145.82,139.58,0
141,145.73,139.59,0
141,145.63,139.61,0
141,145.54,139.62,0
140,145.43,139.63,0
140,145.32,139.63,0
139,145.19,139.62,0
141,145.11,139.64,0
139,144.99,139.63,0
139,144.87,139.62,0
137,144.71,139.60,0
137,144.56,139.57,0
139,144.44,139.57,0
139,144.34,139.56,0
137,144.19,139.54,0
138,144.06,139.52,0
137,143.92,139.49,0
136,143.77,139.46,0
138,143.65,139.44,0
138,143.54,139.43,0
138,143.43,139.42,0
137,143.30,139.39,0
137,143.17,139.37,0
137,143.05,139.34,0
137,142.93,139.32,0
137,142.81,139.30,0
136,142.67,139.26,0
137,142.56,139.24,0
136,142.43,139.21,0
137,142.32,139.19,0
135,142.17,139.15,0
135,142.03,139.10,0
135,141.89,139.06,0
133,141.71,139.00,0
135,141.58,138.96,0
135,141.45,138.92,0
134,141.30,138.87,0
135,141.17,138.84,0
134,141.03,138.79,0
135,140.91,138.75,0
133,140.75,138.69,0
135,140.63,138.65,0
133,140.48,138.60,0
133,140.33,138.54,0
133,140.18,138.49,0
132,140.02,138.42,0
133,139.88,138.37,0
132,139.72,138.30,0
132,139.57,138.24,0
131,139.40,138.17,0
132,139.25,138.11,0
131,139.08,138.04,0
131,138.92,137.97,0
131,138.76,137.90,0
132,138.63,137.84,0
131,138.48,137.77,0
131,138.33,137.70,0
131,138.18,137.63,0
130,138.02,137.56,0
130,137.86,137.48,0
130,137.70,137.41,0
130,137.55,137.33,0
131,137.41,137.27,0
129,137.25,137.19,1
129,137.08,137.10,1
129,136.92,137.02,2
129,136.76,136.94,2
130,136.63,136.87,2
128,136.45,136.79,2
129,136.30,136.71,2
128,136.14,136.62,2
128,135.98,136.53,2
128,135.82,136.45,2
128,135.66,136.36,2
127,135.49,136.27,2
128,135.34,136.19,2
127,135.17,136.10,2
127,135.01,136.01,2
127,134.85,135.92,2
127,134.69,135.83,2
127,134.54,135.74,2
127,134.38,135.65,2
127,134.24,135.56,2
126,134.07,135.47,2
131,134.01,135.42,2
126,133.85,135.33,2
125,133.67,135.23,2
125,133.50,135.12,2
125,133.33,135.02,2
125,133.16,134.92,2
125,133.00,134.82,2
125,132.84,134.72,2
125,132.68,134.63,2
125,132.53,134.53,2
125,132.38,134.44,2
125,132.23,134.34,2
125,132.09,134.25,2
124,131.93,134.15,2
124,131.77,134.04,2
124,131.61,133.94,2
124,131.46,133.84,2
124,131.31,133.75,2
124,131.16,133.65,2
124,131.02,133.55,2
123,130.86,133.45,2
123,130.70,133.34,2
123,130.55,133.24,2
123,130.40,133.14,2
123,130.25,133.03,2
123,130.11,132.93,2
123,129.96,132.84,2
124,129.84,132.75,2
123,129.71,132.65,2
121,129.53,132.53,2
121,129.36,132.42,2
122,129.21,132.31,2
121,129.05,132.20,2
122,128.91,132.10,2
121,128.75,131.99,2
121,128.60,131.88,2
121,128.44,131.77,2
121,128.30,131.66,2
120,128.13,131.54,2
121,127.99,131.44,2
120,127.83,131.32,2
120,127.67,131.21,2
121,127.54,131.11,2
120,127.39,131.00,2
119,127.22,130.88,2
119,127.05,130.76,2
119,126.89,130.64,2
117,126.70,130.51,2
119,126.54,130.39,2
119,126.39,130.28,2
118,126.22,130.15,2
118,126.06,130.03,2
118,125.90,129.91,2
119,125.76,129.80,2
117,125.58,129.67,2
119,125.45,129.57,2
117,125.28,129.44,2
117,125.12,129.32,2
117,124.96,129.19,2
117,124.80,129.07,2
117,124.64,128.95,2
117,124.49,128.83,2
117,124.34,128.71,2
116,124.17,128.59,2
117,124.03,128.47,2
117,123.89,128.36,2
116,123.73,128.23,2
117,123.59,128.12,2
116,123.44,128.00,2
115,123.27,127.87,2
116,123.13,127.75,2
116,122.99,127.63,2
115,122.83,127.51,2
115,122.67,127.38,2
115,122.52,127.26,2
115,122.37,127.14,2
115,122.22,127.01,2
114,122.05,126.88,2
115,121.91,126.77,2
113,121.74,126.63,2
114,121.58,126.50,2
113,121.41,126.37,2
113,121.24,126.23,2
113,121.08,126.10,2
113,120.91,125.97,2
113,120.76,125.84,2
113,120.60,125.71,2
111,120.41,125.56,2
113,120.26,125.44,2
113,120.12,125.31,2
112,119.95,125.18,2
113,119.81,125.06,2
112,119.66,124.93,2
113,119.52,124.81,2
115,119.43,124.71,2
111,119.27,124.57,2
111,119.10,124.44,2
112,118.96,124.31,2
111,118.80,124.18,2
111,118.64,124.05,2
111,118.49,123.92,2
111,118.34,123.79,2
111,118.19,123.66,2
110,118.03,123.52,2
110,117.87,123.39,2
110,117.71,123.26,2
109,117.54,123.11,2
110,117.39,122.98,2
109,117.22,122.84,2
109,117.05,122.70,2
109,116.89,122.57,2
109,116.74,122.43,2
110,116.60,122.31,2
109,116.45,122.17,2
110,116.32,122.05,2
109,116.17,121.92,2
108,116.01,121.78,2
109,115.87,121.65,2
109,115.73,121.53,2
109,115.60,121.40,2
108,115.45,121.27,2
108,115.30,121.14,2
107,115.13,120.99,2
108,114.99,120.86,2
108,114.85,120.74,2
109,114.73,120.62,2
107,114.58,120.48,2
108,114.45,120.36,2
107,114.30,120.22,2
107,114.15,120.09,2
107,114.01,119.96,2
108,113.89,119.84,2
107,113.75,119.71,2
106,113.59,119.58,2
105,113.42,119.43,2
106,113.27,119.30,2
106,113.13,119.16,2
106,112.99,119.03,2
105,112.83,118.89,2
105,112.67,118.75,2
105,112.52,118.61,2
105,112.37,118.48,2
105,112.22,118.34,2
105,112.07,118.21,2
104,111.91,118.07,2
104,111.75,117.93,2
105,111.62,117.80,2
104,111.47,117.66,2
105,111.34,117.53,2
108,111.27,117.44,2
104,111.13,117.30,2
104,110.98,117.17,2
103,110.82,117.03,2
103,110.67,116.89,2
103,110.51,116.75,2
103,110.36,116.61,2
103,110.22,116.48,2
103,110.07,116.34,2
103,109.93,116.21,2
103,109.79,116.08,2
103,109.66,115.94,2
103,109.52,115.82,2
102,109.37,115.68,2
102,109.23,115.54,2
103,109.10,115.42,2
103,108.98,115.29,2
101,108.82,115.15,2
101,108.66,115.01,2
101,108.51,114.87,2
103,108.40,114.75,2
102,108.27,114.62,2
102,108.15,114.49,2
101,108.00,114.36,2
101,107.86,114.23,2
101,107.73,114.09,2
101,107.59,113.96,2
101,107.46,113.83,2
101,107.33,113.70,2
101,107.20,113.58,2
101,107.08,113.45,2
101,106.96,113.33,2
100,106.82,113.19,2
101,106.70,113.07,2
100,106.57,112.94,2
99,106.42,112.80,2
98,106.25,112.65,2
99,106.10,112.52,2
100,105.98,112.39,2
100,105.86,112.27,2
100,105.74,112.15,2
100,105.63,112.02,2
99,105.50,111.89,2
98,105.35,111.75,2
97,105.18,111.61,2
100,105.08,111.49,2
99,104.96,111.37,2
99,104.84,111.24,2
99,104.72,111.12,2
101,104.64,111.02,2
98,104.51,110.89,2
99,104.40,110.77,2
98,104.27,110.64,2
97,104.13,110.51,2
98,104.01,110.38,2
98,103.89,110.26,2
96,103.73,110.11,2
96,103.57,109.97,2
100,103.50,109.87,2
97,103.37,109.74,2
97,103.24,109.62,2
97,103.12,109.49,2
97,103.00,109.37,2
96,102.86,109.23,2
96,102.72,109.10,2
98,102.63,108.99,2
96,102.49,108.86,2
96,102.36,108.73,2
96,102.24,108.60,2
97,102.13,108.49,2
96,102.01,108.36,2
96,101.89,108.24,2
96,101.77,108.12,2
97,101.68,108.01,2
96,101.56,107.89,2
95,101.43,107.76,2
95,101.30,107.63,2
95,101.18,107.50,2
95,101.05,107.38,2
94,100.91,107.24,2
94,100.77,107.11,2
94,100.64,106.98,2
94,100.50,106.85,2
94,100.37,106.72,2
94,100.25,106.59,2
94,100.12,106.47,2
94,100.00,106.34,2
94,99.88,106.22,2
94,99.76,106.10,2
94,99.65,105.98,2
94,99.53,105.86,2
93,99.40,105.73,2
91,99.24,105.58,2
93,99.11,105.46,2
93,98.99,105.33,2
93,98.87,105.21,2
93,98.75,105.09,2
93,98.64,104.97,2
94,98.54,104.86,2
94,98.45,104.75,2
94,98.36,104.64,2
93,98.26,104.52,2
93,98.15,104.41,2
92,98.03,104.28,2
93,97.93,104.17,2
93,97.83,104.06,2
93,97.73,103.95,2
93,97.64,103.84,2
93,97.55,103.73,2
92,97.43,103.61,2
91,97.31,103.49,2
93,97.22,103.38,2
92,97.12,103.27,2
91,96.99,103.15,2
92,96.89,103.03,2
92,96.80,102.92,2
92,96.70,102.82,2
91,96.59,102.70,2
91,96.47,102.58,2
91,96.36,102.46,2
91,96.26,102.35,2
91,96.15,102.24,2
91,96.05,102.12,2
91,95.95,102.01,2
91,95.85,101.90,2
90,95.73,101.78,2
91,95.64,101.68,2
90,95.52,101.56,2
91,95.43,101.45,2
92,95.37,101.36,2
93,95.32,101.27,2
89,95.19,101.15,2
90,95.09,101.04,2
91,95.01,100.94,2
91,94.93,100.84,2
91,94.85,100.74,2
90,94.75,100.64,2
90,94.66,100.53,2
92,94.60,100.44,2
90,94.51,100.34,2
89,94.40,100.23,2
89,94.29,100.11,2
90,94.21,100.01,2
90,94.12,99.91,2
91,94.06,99.82,2
90,93.98,99.72,2
90,93.90,99.63,2
90,93.82,99.53,2
90,93.74,99.44,2
92,93.71,99.36,2
91,93.66,99.28,2
90,93.58,99.19,2
90,93.51,99.09,2
90,93.44,99.00,2
90,93.37,98.91,2
90,93.30,98.82,2
90,93.24,98.74,2
92,93.21,98.67,2
90,93.15,98.58,2
90,93.09,98.50,2
90,93.02,98.41,2
92,93.00,98.35,2
89,92.92,98.25,2
90,92.87,98.17,2
88,92.77,98.07,2
90,92.71,97.99,2
89,92.64,97.90,2
90,92.59,97.82,2
90,92.53,97.74,2
90,92.48,97.66,2
89,92.41,97.58,2
90,92.37,97.50,2
88,92.28,97.41,2
88,92.19,97.31,2
88,92.11,97.22,2
88,92.03,97.13,2
88,91.95,97.04,2
88,91.87,96.94,2
88,91.79,96.86,2
87,91.69,96.76,2
88,91.62,96.67,2
88,91.55,96.58,2
88,91.48,96.50,2
88,91.41,96.41,2
88,91.34,96.33,2
88,91.27,96.24,2
88,91.21,96.16,2
88,91.14,96.08,2
87,91.06,95.99,2
87,90.98,95.90,2
86,90.88,95.80,2
86,90.78,95.70,2
86,90.69,95.61,2
87,90.61,95.52,2
88,90.56,95.44,2
88,90.51,95.37,2
87,90.44,95.29,2
86,90.35,95.19,2
86,90.26,95.10,2
86,90.18,95.01,2
86,90.09,94.92,2
87,90.03,94.84,2
86,89.95,94.75,2
86,89.87,94.67,2
86,89.79,94.58,2
85,89.70,94.48,2
85,89.61,94.39,2
86,89.53,94.30,2
85,89.44,94.21,2
85,89.35,94.12,2
85,89.27,94.03,2
86,89.20,93.95,2
84,89.10,93.85,2
85,89.02,93.76,2
85,88.93,93.67,2
84,88.84,93.58,2
84,88.74,93.48,2
84,88.64,93.38,2
85,88.57,93.30,2
84,88.48,93.21,2
84,88.39,93.12,2
84,88.30,93.02,2
84,88.22,92.93,2
86,88.17,92.86,2
83,88.07,92.77,2
82,87.95,92.66,2
85,87.89,92.58,2
84,87.81,92.50,2
84,87.73,92.41,2
84,87.66,92.33,2
85,87.61,92.25,2
84,87.53,92.17,2
83,87.44,92.08,2
84,87.38,92.00,2
84,87.31,91.92,2
83,87.22,91.83,2
83,87.14,91.74,2
84,87.07,91.66,2
84,87.01,91.59,2
84,86.95,91.51,2
82,86.85,91.42,2
82,86.76,91.32,2
83,86.68,91.24,2
83,86.61,91.16,2
82,86.52,91.06,2
84,86.47,90.99,2
84,86.42,90.92,2
83,86.35,90.85,2
82,86.26,90.76,2
83,86.20,90.68,2
83,86.13,90.60,2
82,86.05,90.52,2
82,85.97,90.43,2
84,85.93,90.37,2
83,85.87,90.29,2
82,85.79,90.21,2
82,85.72,90.13,2
82,85.64,90.05,2
82,85.57,89.97,2
84,85.54,89.91,2
82,85.47,89.83,2
84,85.44,89.77,2
83,85.39,89.70,2
82,85.32,89.62,2
84,85.30,89.57,2
84,85.27,89.51,2
84,85.24,89.46,2
82,85.18,89.38,2
84,85.16,89.33,2
84,85.13,89.28,2
83,85.09,89.21,2
83,85.05,89.15,2
84,85.03,89.10,2
83,84.99,89.04,2
84,84.97,88.99,2
84,84.95,88.94,2
82,84.89,88.87,2
82,84.83,88.80,2
82,84.77,88.73,2
82,84.72,88.66,2
82,84.66,88.60,2
81,84.59,88.52,2
82,84.54,88.46,2
82,84.49,88.39,2
82,84.44,88.33,2
82,84.39,88.27,2
82,84.34,88.20,2
83,84.32,88.15,2
82,84.27,88.09,2
82,84.22,88.03,2
81,84.16,87.96,2
81,84.10,87.89,2
82,84.05,87.83,2
81,83.99,87.76,2
82,83.95,87.70,2
81,83.89,87.64,2
82,83.86,87.58,2
82,83.82,87.52,2
81,83.76,87.46,2
84,83.77,87.42,2
82,83.73,87.37,2
79,83.64,87.29,2
81,83.58,87.22,2
81,83.53,87.16,2
80,83.46,87.09,2
82,83.43,87.04,2
82,83.40,86.99,2
82,83.38,86.94,2
80,83.31,86.87,2
80,83.24,86.80,2
81,83.20,86.74,2
80,83.13,86.68,2
80,83.07,86.61,2
80,83.01,86.54,2
80,82.95,86.48,2
81,82.91,86.42,2
80,82.85,86.36,2
80,82.80,86.29,2
80,82.74,86.23,2
81,82.70,86.18,2
80,82.65,86.12,2
78,82.56,86.04,2
80,82.51,85.98,2
80,82.46,85.92,2
80,82.41,85.86,2
80,82.36,85.80,2
81,82.33,85.75,2
80,82.29,85.69,2
80,82.24,85.64,2
80,82.19,85.58,2
81,82.17,85.53,2
81,82.15,85.49,2
80,82.10,85.43,2
80,82.06,85.38,2
80,82.02,85.33,2
80,81.98,85.27,2
80,81.94,85.22,2
79,81.88,85.16,2
79,81.82,85.10,2
80,81.79,85.04,2
80,81.75,84.99,2
79,81.70,84.93,2
80,81.66,84.88,2
80,81.63,84.84,2
80,81.60,84.79,2
79,81.55,84.73,2
79,81.49,84.67,2
79,81.44,84.62,2
80,81.42,84.57,2
79,81.37,84.51,2
80,81.34,84.47,2
78,81.27,84.40,2
78,81.21,84.34,2
79,81.16,84.29,2
79,81.12,84.23,2
78,81.06,84.17,2
78,81.00,84.11,2
78,80.94,84.05,2
78,80.88,83.99,2
78,80.82,83.93,2
77,80.74,83.86,2
79,80.71,83.81,2
77,80.64,83.74,2
78,80.58,83.68,2
78,80.53,83.63,2
79,80.50,83.58,2
78,80.45,83.53,2
82,80.48,83.51,2
78,80.43,83.46,2
77,80.36,83.39,2
82,80.40,83.38,2
81,80.41,83.35,2
78,80.36,83.30,2
78,80.31,83.25,2
78,80.27,83.19,2
78,80.22,83.14,2
78,80.18,83.09,2
77,80.11,83.03,2
78,80.07,82.98,2
78,80.03,82.93,2
78,79.99,82.88,2
78,79.95,82.83,2
78,79.91,82.78,2
79,79.89,82.75,2
78,79.85,82.70,2
78,79.82,82.65,2
77,79.76,82.59,2
79,79.75,82.56,2
78,79.71,82.51,2
78,79.68,82.47,2
78,79.64,82.42,2
78,79.61,82.38,2
78,79.58,82.34,2
78,79.55,82.29,2
77,79.50,82.24,2
78,79.47,82.20,2
78,79.44,82.15,2
77,79.39,82.10,2
78,79.36,82.06,2
77,79.31,82.01,2
78,79.29,81.97,2
78,79.26,81.93,2
78,79.24,81.89,2
78,79.21,81.85,2
78,79.19,81.81,2
78,79.16,81.78,2
78,79.14,81.74,2
78,79.12,81.70,2
78,79.09,81.66,2
78,79.07,81.63,2
77,79.03,81.58,2
78,79.01,81.55,2
78,78.99,81.51,2
78,78.97,81.48,2
77,78.93,81.43,2
77,78.89,81.39,2
78,78.87,81.35,2
77,78.84,81.31,2
78,78.82,81.28,2
79,78.82,81.25,2
77,78.79,81.21,2
78,78.77,81.18,2
76,78.72,81.13,2
78,78.70,81.10,2
77,78.67,81.05,2
78,78.65,81.02,2
77,78.62,80.98,2
76,78.57,80.93,2
76,78.52,80.88,2
77,78.49,80.85,2
77,78.46,80.81,2
76,78.41,80.76,2
76,78.36,80.71,2
76,78.31,80.66,2
76,78.27,80.62,2
76,78.22,80.57,2
76,78.18,80.53,2
76,78.13,80.48,2
76,78.09,80.44,2
76,78.05,80.39,2
76,78.01,80.35,2
76,77.97,80.30,2
77,77.95,80.27,2
76,77.91,80.23,2
76,77.87,80.19,2
76,77.83,80.14,2
75,77.78,80.09,2
75,77.72,80.04,2
76,77.69,80.00,2
74,77.61,79.94,2
76,77.58,79.90,2
75,77.53,79.85,2
75,77.48,79.80,2
75,77.43,79.76,2
76,77.40,79.72,2
76,77.37,79.68,2
76,77.35,79.64,2
75,77.30,79.60,2
76,77.27,79.56,2
74,77.21,79.51,2
74,77.14,79.45,2
74,77.08,79.40,2
75,77.04,79.35,2
74,76.98,79.30,2
74,76.92,79.25,2
75,76.88,79.20,2
75,76.84,79.16,2
75,76.81,79.12,2
74,76.75,79.07,2
75,76.71,79.03,2
76,76.70,79.00,2
76,76.69,78.97,2
75,76.65,78.93,2
76,76.64,78.90,2
75,76.61,78.86,2
78,76.63,78.85,2
76,76.62,78.82,2
76,76.61,78.80,2
76,76.60,78.77,2
74,76.54,78.72,2
76,76.53,78.69,2
76,76.52,78.67,2
76,76.51,78.64,2
74,76.46,78.59,2
74,76.41,78.55,2
78,76.45,78.54,2
74,76.40,78.50,2
74,76.35,78.45,2
74,76.30,78.41,2
74,76.26,78.36,2
74,76.21,78.32,2
75,76.19,78.29,2
74,76.14,78.24,2
75,76.12,78.21,2
75,76.10,78.18,2
75,76.08,78.15,2
74,76.03,78.10,2
74,75.99,78.06,2
74,75.95,78.02,2
74,75.91,77.98,2
74,75.88,77.94,2
72,75.80,77.88,2
74,75.76,77.84,2
74,75.73,77.81,2
74,75.69,77.77,2
74,75.66,77.73,2
74,75.63,77.69,2
74,75.59,77.66,2
74,75.56,77.62,2
74,75.53,77.58,2
73,75.48,77.54,2
74,75.45,77.50,2
74,75.42,77.47,2
74,75.39,77.43,2
75,75.38,77.41,2
73,75.34,77.36,2
74,75.31,77.33,2
75,75.30,77.31,2
76,75.32,77.29,2
74,75.29,77.26,2
74,75.27,77.23,2
74,75.24,77.20,2
74,75.22,77.16,2
75,75.21,77.14,2
74,75.19,77.11,2
76,75.20,77.10,2
74,75.18,77.07,2
74,75.16,77.04,2
74,75.13,77.01,2
76,75.15,77.00,2
76,75.17,76.99,2
74,75.14,76.96,2
75,75.14,76.94,2
76,75.16,76.93,2
76,75.17,76.92,2
75,75.17,76.90,2
76,75.19,76.89,2
76,75.20,76.88,2
76,75.22,76.87,2
76,75.24,76.87,2
76,75.25,76.86,2
76,75.27,76.85,2
76,75.28,76.84,2
75,75.27,76.82,2
74,75.25,76.79,2
74,75.22,76.76,2
76,75.24,76.76,2
75,75.24,76.74,2
75,75.23,76.72,2
75,75.23,76.71,2
75,75.22,76.69,2
74,75.20,76.66,2
74,75.17,76.63,2
74,75.15,76.61,2
76,75.17,76.60,2
76,75.18,76.60,2
74,75.16,76.57,2
76,75.18,76.56,2
75,75.17,76.55,2
78,75.23,76.56,2
76,75.24,76.56,2
76,75.26,76.55,2
76,75.27,76.55,2
75,75.27,76.53,2
75,75.26,76.52,2
76,75.28,76.51,2
76,75.29,76.51,2
76,75.31,76.50,2
76,75.32,76.50,2
76,75.33,76.49,2
78,75.39,76.51,2
76,75.40,76.50,2
76,75.41,76.50,2
76,75.42,76.49,2
78,75.48,76.51,2
76,75.49,76.50,2
80,75.58,76.54,2
76,75.58,76.53,2
78,75.63,76.54,2
78,75.68,76.56,2
78,75.73,76.57,2
78,75.77,76.59,2
77,75.80,76.59,2
78,75.84,76.61,2
76,75.84,76.60,2
78,75.89,76.61,2
78,75.93,76.63,2
78,75.97,76.64,2
78,76.01,76.66,2
78,76.05,76.67,2
78,76.09,76.68,2
79,76.15,76.71,2
82,76.27,76.76,2
79,76.32,76.78,2
80,76.39,76.81,2
79,76.45,76.83,2
78,76.48,76.85,2
79,76.53,76.87,2
80,76.60,76.90,2
78,76.62,76.91,2
82,76.73,76.96,2
79,76.78,76.98,2
79,76.82,77.00,2
79,76.87,77.02,2
79,76.91,77.04,2
81,76.99,77.08,2
80,77.05,77.11,2
79,77.09,77.13,2
79,77.13,77.15,2
80,77.19,77.18,2
80,77.24,77.20,2
82,77.34,77.25,2
80,77.39,77.28,2
81,77.46,77.32,2
81,77.53,77.35,2
81,77.60,77.39,2
79,77.63,77.41,2
79,77.66,77.42,2
81,77.72,77.46,2
81,77.79,77.49,2
80,77.83,77.52,2
80,77.88,77.54,2
81,77.94,77.58,2
82,78.02,77.62,2
80,78.06,77.65,2
82,78.14,77.69,2
81,78.20,77.72,2
82,78.27,77.77,2
81,78.33,77.80,2
82,78.40,77.84,2
84,78.51,77.90,2
84,78.62,77.96,2
84,78.73,78.02,2
84,78.84,78.08,2
84,78.94,78.14,2
86,79.08,78.22,2
84,79.18,78.28,2
86,79.31,78.36,2
85,79.43,78.42,2
86,79.56,78.50,2
88,79.73,78.59,2
86,79.85,78.67,2
88,80.02,78.76,2
88,80.18,78.85,2
88,80.33,78.94,2
88,80.49,79.03,2
88,80.64,79.12,2
88,80.78,79.21,2
88,80.93,79.30,2
88,81.07,79.39,2
88,81.21,79.47,2
90,81.38,79.58,2
90,81.56,79.68,2
91,81.75,79.80,2
91,81.93,79.91,2
94,82.17,80.05,2
90,82.33,80.15,2
94,82.56,80.29,2
93,82.77,80.41,2
92,82.96,80.53,2
92,83.14,80.65,2
94,83.35,80.78,2
93,83.55,80.90,2
95,83.78,81.04,2
94,83.98,81.17,2
95,84.20,81.31,2
95,84.42,81.45,2
96,84.65,81.59,2
95,84.86,81.73,2
96,85.08,81.87,2
95,85.28,82.00,2
96,85.49,82.14,2
96,85.70,82.28,2
96,85.91,82.42,2
98,86.15,82.57,2
98,86.39,82.73,2
98,86.62,82.88,2
98,86.85,83.03,2
100,87.11,83.20,2
99,87.35,83.36,2
100,87.60,83.52,2
99,87.83,83.68,2
101,88.09,83.85,2
101,88.35,84.02,2
101,88.60,84.19,2
100,88.83,84.35,2
101,89.07,84.52,2
101,89.31,84.68,2
101,89.55,84.85,2
101,89.78,85.01,2
101,90.00,85.17,2
101,90.22,85.33,2
102,90.46,85.49,2
102,90.69,85.66,2
102,90.91,85.82,2
103,91.15,85.99,2
101,91.35,86.14,2
103,91.58,86.31,2
103,91.81,86.48,2
103,92.04,86.64,2
105,92.30,86.83,2
107,92.59,87.03,2
106,92.86,87.22,2
107,93.14,87.42,2
108,93.44,87.62,2
108,93.73,87.83,2
109,94.03,88.04,2
109,94.33,88.25,2
110,94.65,88.47,2
110,94.95,88.68,2
109,95.24,88.88,2
111,95.55,89.10,2
112,95.88,89.33,2
115,96.26,89.59,2
113,96.60,89.82,2
114,96.94,90.07,2
113,97.27,90.30,2
116,97.64,90.55,2
116,98.01,90.81,2
116,98.37,91.06,2
117,98.74,91.32,2
116,99.09,91.57,2
117,99.44,91.82,2
116,99.77,92.06,2
119,100.16,92.33,2
118,100.52,92.59,2
119,100.89,92.85,2
118,101.23,93.10,2
120,101.60,93.37,2
120,101.97,93.64,2
120,102.33,93.90,2
122,102.73,94.18,2
121,103.09,94.45,2
122,103.47,94.73,2
122,103.84,95.00,2
122,104.20,95.27,2
122,104.56,95.54,2
122,104.91,95.80,2
122,105.25,96.06,2
122,105.58,96.32,2
122,105.91,96.58,2
122,106.23,96.83,2
122,106.55,97.09,2
124,106.90,97.35,2
128,107.32,97.66,2
126,107.69,97.94,2
126,108.06,98.22,2
126,108.42,98.50,2
125,108.75,98.77,2
126,109.10,99.04,2
128,109.47,99.33,2
128,109.84,99.62,2
128,110.21,99.90,2
128,110.56,100.18,2
129,110.93,100.47,2
129,111.29,100.75,2
129,111.65,101.04,2
128,111.97,101.31,2
130,112.34,101.59,2
132,112.73,101.90,2
131,113.09,102.19,2
132,113.47,102.49,2
133,113.86,102.79,2
132,114.23,103.08,2
133,114.60,103.38,2
135,115.01,103.70,2
139,115.49,104.05,2
137,115.92,104.38,2
140,116.40,104.74,2
141,116.89,105.10,2
140,117.35,105.45,2
143,117.87,105.83,2
145,118.41,106.22,2
144,118.92,106.59,2
145,119.44,106.98,2
144,119.93,107.35,2
147,120.48,107.75,2
145,120.97,108.12,2
145,121.45,108.49,2
145,121.92,108.85,2
147,122.42,109.23,2
149,122.95,109.63,2
150,123.49,110.03,2
150,124.02,110.43,2
150,124.54,110.83,2
151,125.07,111.23,2
152,125.61,111.64,2
151,126.12,112.03,2
153,126.66,112.44,2
152,127.16,112.84,2
152,127.66,113.23,2
152,128.15,113.62,2
153,128.64,114.01,2
154,129.15,114.41,2
153,129.63,114.80,2
155,130.13,115.20,2
155,130.63,115.60,2
153,131.08,115.97,2
153,131.52,116.34,2
153,131.95,116.71,2
154,132.39,117.08,2
155,132.84,117.46,2
154,133.26,117.83,2
153,133.66,118.18,2
154,134.07,118.54,2
153,134.44,118.88,2
153,134.82,119.22,2
153,135.18,119.56,2
153,135.54,119.89,2
153,135.88,120.22,2
153,136.23,120.55,2
153,136.56,120.88,2
154,136.91,121.21,2
154,137.25,121.54,2
152,137.55,121.84,2
152,137.84,122.14,2
152,138.12,122.44,2
152,138.40,122.74,2
152,138.67,123.03,2
152,138.94,123.32,2
152,139.20,123.61,2
151,139.43,123.88,2
152,139.69,124.16,2
151,139.91,124.43,2
151,140.13,124.69,2
149,140.31,124.94,2
151,140.52,125.20,2
149,140.69,125.44,2
150,140.88,125.68,2
149,141.04,125.92,2
149,141.20,126.15,2
149,141.36,126.37,2
149,141.51,126.60,2
149,141.66,126.83,2
149,141.81,127.05,2
149,141.95,127.27,2
147,142.05,127.46,2
148,142.17,127.67,2
148,142.29,127.87,2
147,142.38,128.06,2
148,142.49,128.26,2
147,142.58,128.45,2
147,142.67,128.64,2
147,142.76,128.82,2
147,142.84,129.00,2
146,142.91,129.17,2
145,142.95,129.33,2
145,142.99,129.49,2
145,143.03,129.64,2
145,143.07,129.80,2
145,143.11,129.95,2
145,143.15,130.10,2
145,143.18,130.25,2
145,143.22,130.39,2
144,143.23,130.53,2
144,143.25,130.66,2
144,143.27,130.80,2
143,143.26,130.92,2
143,143.25,131.04,2
143,143.25,131.16,2
143,143.24,131.28,2
145,143.28,131.42,2
143,143.27,131.53,2
145,143.31,131.67,2
143,143.30,131.78,2
144,143.32,131.90,2
143,143.31,132.01,2
143,143.30,132.12,2
143,143.30,132.23,2
143,143.29,132.34,2
144,143.31,132.46,2
143,143.30,132.56,2
142,143.27,132.66,2
142,143.25,132.75,2
142,143.22,132.84,2
141,143.18,132.92,2
141,143.14,133.00,2
141,143.09,133.08,2
141,143.05,133.16,2
141,143.01,133.24,2
141,142.97,133.32,2
141,142.93,133.40,2
141,142.89,133.47,2
140,142.83,133.54,2
139,142.76,133.59,2
140,142.70,133.66,2
140,142.65,133.72,2
140,142.60,133.78,2
141,142.56,133.85,2
140,142.51,133.92,2
139,142.44,133.97,2
139,142.37,134.02,2
139,142.31,134.07,2
139,142.24,134.12,2
139,142.17,134.17,2
139,142.11,134.21,2
138,142.03,134.25,2
139,141.97,134.30,2
138,141.89,134.34,2
138,141.81,134.37,2
139,141.75,134.42,2
138,141.68,134.45,2
137,141.59,134.48,2
137,141.49,134.51,2
137,141.40,134.53,2
137,141.32,134.56,2
137,141.23,134.58,2
137,141.15,134.60,2
136,141.04,134.62,2
137,140.96,134.64,2
135,140.84,134.65,2
136,140.75,134.66,2
135,140.63,134.66,2
135,140.52,134.67,2
133,140.37,134.65,2
136,140.28,134.66,2
135,140.17,134.67,2
134,140.05,134.66,2
135,139.95,134.66,2
133,139.81,134.65,2
135,139.72,134.65,2
133,139.58,134.63,2
134,139.47,134.63,2
133,139.34,134.61,2
133,139.21,134.59,2
133,139.09,134.58,2
133,138.97,134.56,2
133,138.85,134.55,2
132,138.71,134.52,2
133,138.60,134.51,2
132,138.46,134.48,2
129,138.28,134.43,2
131,138.13,134.39,2
131,137.99,134.36,2
131,137.85,134.32,2
131,137.71,134.29,2
131,137.58,134.26,2
131,137.44,134.23,2
130,137.30,134.18,2
130,137.15,134.14,2
130,137.01,134.10,2
130,136.87,134.06,2
129,136.71,134.01,2
129,136.56,133.96,2
129,136.40,133.91,2
129,136.26,133.86,2
129,136.11,133.81,2
129,135.97,133.76,2
129,135.83,133.72,2
129,135.69,133.67,2
129,135.56,133.62,2
129,135.43,133.58,2
129,135.30,133.53,2
128,135.15,133.47,2
128,135.01,133.42,2
127,134.85,133.36,2
128,134.71,133.30,2
127,134.56,133.24,2
127,134.41,133.18,2
128,134.28,133.12,2
127,134.13,133.06,2
127,133.99,133.00,2
127,133.85,132.94,2
127,133.71,132.88,2
127,133.58,132.82,2
127,133.45,132.77,2
127,133.32,132.71,2
125,133.15,132.63,2
126,133.01,132.57,2
126,132.87,132.50,2
126,132.73,132.43,2
126,132.60,132.37,2
125,132.45,132.30,2
125,132.30,132.22,3
125,132.15,132.15,3
125,132.01,132.08,4
125,131.87,132.01,4
125,131.73,131.94,4
125,131.60,131.87,4
125,131.46,131.80,4
124,131.31,131.72,4
125,131.19,131.66,4
123,131.02,131.57,4
124,130.88,131.49,4
124,130.75,131.42,4
124,130.61,131.34,4
124,130.48,131.27,4
123,130.33,131.19,4
123,130.18,131.11,4
123,130.04,131.03,4
123,129.90,130.94,4
123,129.76,130.87,4
123,129.63,130.79,4
123,129.49,130.71,4
121,129.32,130.61,4
122,129.18,130.53,4
122,129.03,130.44,4
122,128.89,130.36,4
122,128.75,130.27,4
123,128.64,130.20,4
121,128.49,130.11,4
121,128.34,130.02,4
121,128.19,129.93,4
122,128.07,129.85,4
121,127.93,129.76,4
121,127.79,129.67,4
121,127.65,129.58,4
122,127.54,129.51,4
120,127.39,129.41,4
121,127.26,129.33,4
120,127.11,129.24,4
120,126.97,129.14,4
120,126.83,129.05,4
120,126.70,128.96,4
120,126.56,128.87,4
120,126.43,128.78,4
119,126.28,128.69,4
119,126.14,128.59,4
119,125.99,128.49,4
119,125.85,128.40,4
119,125.72,128.30,4
119,125.58,128.21,4
119,125.45,128.12,4
118,125.30,128.02,4
118,125.16,127.92,4
119,125.03,127.83,4
117,124.87,127.72,4
118,124.73,127.62,4
117,124.58,127.52,4
117,124.43,127.41,4
117,124.28,127.31,4
117,124.13,127.20,4
117,123.99,127.10,4
117,123.85,127.00,4
117,123.71,126.90,4
116,123.56,126.79,4
118,123.45,126.70,4
117,123.32,126.61,4
117,123.19,126.51,4
115,123.03,126.40,4
116,122.89,126.29,4
115,122.73,126.18,4
116,122.60,126.08,4
116,122.46,125.98,4
116,122.34,125.88,4
115,122.19,125.77,4
116,122.07,125.67,4
116,121.94,125.57,4
115,121.80,125.47,4
115,121.67,125.36,4
113,121.50,125.24,4
115,121.37,125.14,4
115,121.24,125.04,4
115,121.11,124.94,4
116,121.01,124.85,4
115,120.89,124.75,4
116,120.79,124.66,4
115,120.68,124.56,4
115,120.56,124.47,4
115,120.45,124.37,4
115,120.34,124.28,4
114,120.22,124.18,4
114,120.09,124.08,4
113,119.95,123.96,4
116,119.87,123.88,4
113,119.73,123.78,4
113,119.60,123.67,4
114,119.49,123.57,4
113,119.36,123.47,4
113,119.23,123.36,4
113,119.11,123.26,4
113,118.98,123.15,4
113,118.86,123.05,4
113,118.75,122.95,4
113,118.63,122.85,4
113,118.52,122.75,4
114,118.43,122.67,4
113,118.32,122.57,4
113,118.21,122.47,4
113,118.11,122.38,4
112,117.99,122.28,4
113,117.89,122.18,4
113,117.79,122.09,4
112,117.67,121.99,4
112,117.56,121.89,4
113,117.47,121.80,4
113,117.38,121.71,4
112,117.27,121.62,4
111,117.15,121.51,4
112,117.04,121.42,4
112,116.94,121.32,4
111,116.82,121.22,4
111,116.71,121.12,4
111,116.59,121.01,4
113,116.52,120.93,4
113,116.45,120.86,4
111,116.34,120.76,4
111,116.24,120.66,4
111,116.13,120.56,4
111,116.03,120.47,4
111,115.93,120.37,4
111,115.83,120.28,4
111,115.73,120.19,4
111,115.64,120.09,4
111,115.55,120.00,4
111,115.45,119.91,4
110,115.35,119.81,4
109,115.22,119.71,4
110,115.11,119.61,4
110,115.01,119.51,4
110,114.91,119.42,4
109,114.79,119.31,4
109,114.68,119.21,4
109,114.56,119.11,4
109,114.45,119.01,4
109,114.34,118.91,4
107,114.20,118.79,4
109,114.09,118.69,4
109,113.99,118.59,4
109,113.89,118.50,4
109,113.79,118.40,4
108,113.68,118.30,4
109,113.58,118.21,4
108,113.47,118.10,4
108,113.36,118.00,4
109,113.28,117.91,4
108,113.17,117.81,4
108,113.07,117.71,4
107,112.95,117.61,4
108,112.85,117.51,4
108,112.75,117.42,4
108,112.65,117.32,4
107,112.54,117.22,4
108,112.45,117.13,4
109,112.38,117.05,4
108,112.29,116.96,4
107,112.19,116.86,4
107,112.08,116.76,4
107,111.98,116.66,4
108,111.90,116.57,4
108,111.82,116.49,4
107,111.73,116.39,4
106,111.61,116.29,4
108,111.54,116.21,4
106,111.43,116.10,4
107,111.34,116.01,4
106,111.24,115.91,4
105,111.11,115.80,4
105,110.99,115.70,4
107,110.91,115.61,4
105,110.79,115.50,4
106,110.69,115.41,4
105,110.58,115.30,4
105,110.47,115.20,4
105,110.36,115.10,4
105,110.25,115.00,4
106,110.17,114.91,4
105,110.06,114.81,4
105,109.96,114.71,4
105,109.86,114.61,4
105,109.77,114.52,4
105,109.67,114.42,4
105,109.58,114.33,4
104,109.47,114.22,4
105,109.38,114.13,4
104,109.27,114.03,4
104,109.16,113.93,4
104,109.06,113.83,4
104,108.96,113.73,4
104,108.86,113.64,4
104,108.76,113.54,4
104,108.67,113.44,4
105,108.59,113.36,4
104,108.50,113.27,4
103,108.39,113.16,4
103,108.28,113.06,4
103,108.18,112.96,4
103,108.08,112.86,4
103,107.97,112.76,4
103,107.87,112.66,4
102,107.76,112.56,4
102,107.64,112.45,4
103,107.55,112.36,4
103,107.46,112.26,4
102,107.35,112.16,4
101,107.22,112.05,4
101,107.10,111.94,4
101,106.98,111.83,4
102,106.88,111.73,4
101,106.76,111.62,4
101,106.64,111.52,4
101,106.53,111.41,4
101,106.42,111.31,4
101,106.31,111.21,4
101,106.21,111.10,4
101,106.10,111.00,4
103,106.04,110.92,4
101,105.94,110.82,4
101,105.84,110.73,4
101,105.74,110.63,4
101,105.65,110.53,4
101,105.55,110.44,4
100,105.44,110.33,4
100,105.33,110.23,4
101,105.25,110.14,4
99,105.12,110.03,4
100,105.02,109.92,4
100,104.92,109.83,4
100,104.82,109.73,4
99,104.71,109.62,4
99,104.59,109.51,4
99,104.48,109.41,4
100,104.39,109.31,4
100,104.30,109.22,4
99,104.20,109.12,4
99,104.09,109.02,4
100,104.01,108.93,4
100,103.93,108.84,4
100,103.85,108.75,4
102,103.81,108.68,4
100,103.74,108.60,4
99,103.64,108.50,4
100,103.57,108.42,4
100,103.50,108.33,4
100,103.43,108.25,4
100,103.36,108.17,4
101,103.31,108.09,4
100,103.25,108.01,4
99,103.16,107.92,4
100,103.10,107.84,4
99,103.02,107.75,4
100,102.96,107.68,4
100,102.90,107.60,4
99,102.82,107.51,4
98,102.72,107.42,4
99,102.65,107.34,4
98,102.56,107.24,4
99,102.48,107.16,4
100,102.43,107.09,4
98,102.35,107.00,4
98,102.26,106.91,4
97,102.15,106.81,4
100,102.11,106.74,4
98,102.03,106.65,4
98,101.95,106.57,4
97,101.85,106.47,4
96,101.73,106.37,4
97,101.64,106.27,4
98,101.56,106.19,4
97,101.47,106.10,4
97,101.38,106.01,4
97,101.30,105.92,4
96,101.19,105.82,4
99,101.15,105.75,4
96,101.04,105.65,4
98,100.98,105.57,4
96,100.88,105.48,4
96,100.79,105.38,4
96,100.69,105.29,4
95,100.58,105.19,4
96,100.48,105.10,4
97,100.41,105.01,4
95,100.31,104.91,4
98,100.26,104.85,4
95,100.16,104.75,4
95,100.05,104.65,4
96,99.97,104.56,4
95,99.87,104.47,4
95,99.77,104.37,4
95,99.68,104.28,4
95,99.59,104.19,4
95,99.49,104.09,4
95,99.40,104.00,4
97,99.36,103.93,4
95,99.27,103.84,4
96,99.20,103.77,4
95,99.12,103.68,4
96,99.06,103.60,4
95,98.98,103.52,4
97,98.94,103.45,4
96,98.88,103.38,4
96,98.82,103.30,4
96,98.76,103.23,4
98,98.75,103.18,4
96,98.69,103.10,4
96,98.64,103.03,4
97,98.61,102.97,4
95,98.53,102.89,4
95,98.46,102.81,4
95,98.39,102.74,4
93,98.29,102.64,4
94,98.20,102.55,4
95,98.14,102.48,4
95,98.07,102.40,4
95,98.01,102.33,4
95,97.95,102.26,4
94,97.87,102.17,4
93,97.78,102.08,4
94,97.70,102.00,4
95,97.65,101.93,4
94,97.57,101.85,4
95,97.52,101.78,4
94,97.45,101.70,4
95,97.40,101.64,4
94,97.33,101.56,4
93,97.25,101.48,4
93,97.16,101.39,4
93,97.08,101.31,4
93,97.00,101.22,4
93,96.92,101.14,4
93,96.84,101.06,4
93,96.76,100.98,4
92,96.67,100.89,4
93,96.59,100.81,4
93,96.52,100.73,4
93,96.45,100.66,4
93,96.38,100.58,4
93,96.32,100.50,4
93,96.25,100.43,4
94,96.20,100.36,4
93,96.14,100.29,4
96,96.14,100.25,4
93,96.07,100.17,4
91,95.97,100.08,4
92,95.89,100.00,4
91,95.80,99.91,4
91,95.70,99.82,4
94,95.67,99.76,4
92,95.59,99.69,4
92,95.52,99.61,4
92,95.45,99.53,4
92,95.38,99.46,4
93,95.33,99.39,4
92,95.27,99.32,4
92,95.20,99.25,4
92,95.14,99.17,4
94,95.11,99.12,4
91,95.03,99.04,4
92,94.97,98.97,4
92,94.91,98.90,4
92,94.85,98.83,4
91,94.78,98.75,4
91,94.70,98.68,4
92,94.65,98.61,4
91,94.57,98.53,4
91,94.50,98.46,4
92,94.45,98.39,4
90,94.36,98.31,4
91,94.30,98.24,4
91,94.23,98.16,4
91,94.17,98.09,4
91,94.10,98.02,4
92,94.06,97.96,4
90,93.98,97.88,4
90,93.90,97.80,4
91,93.84,97.74,4
90,93.76,97.66,4
92,93.73,97.60,4
92,93.70,97.55,4
90,93.62,97.47,4
90,93.55,97.40,4
90,93.48,97.32,4
90,93.41,97.25,4
90,93.34,97.18,4
90,93.27,97.10,4
91,93.23,97.04,4
90,93.16,96.97,4
90,93.10,96.90,4
90,93.04,96.83,4
90,92.98,96.77,4
90,92.92,96.70,4
89,92.84,96.62,4
89,92.76,96.54,4
90,92.71,96.48,4
88,92.61,96.39,4
89,92.54,96.32,4
89,92.47,96.25,4
89,92.40,96.17,4
88,92.31,96.09,4
89,92.25,96.02,4
89,92.18,95.95,4
88,92.10,95.87,4
88,92.02,95.79,4
89,91.96,95.73,4
89,91.90,95.66,4
91,91.88,95.61,4
88,91.80,95.54,4
88,91.72,95.46,4
88,91.65,95.39,4
88,91.58,95.31,4
88,91.51,95.24,4
88,91.44,95.17,4
88,91.37,95.09,4
88,91.30,95.02,4
88,91.23,94.95,4
87,91.15,94.87,4
87,91.07,94.80,4
87,90.98,94.72,4
88,90.93,94.65,4
88,90.87,94.58,4
87,90.79,94.51,4
86,90.69,94.42,4
86,90.60,94.34,4
86,90.51,94.25,4
88,90.46,94.19,4
87,90.39,94.12,4
86,90.30,94.04,4
86,90.21,93.96,4
86,90.13,93.88,4
88,90.09,93.82,4
86,90.01,93.74,4
86,89.93,93.66,4
86,89.85,93.59,4
88,89.81,93.53,4
86,89.73,93.46,4
86,89.66,93.38,4
86,89.59,93.31,4
83,89.45,93.21,4
84,89.35,93.11,4
86,89.28,93.04,4
87,89.23,92.98,4
85,89.15,92.90,4
86,89.09,92.83,4
85,89.00,92.75,4
85,88.92,92.68,4
84,88.83,92.59,4
84,88.73,92.50,4
84,88.63,92.42,4
85,88.56,92.35,4
85,88.49,92.27,4
84,88.40,92.19,4
85,88.33,92.12,4
84,88.25,92.04,4
85,88.18,91.97,4
85,88.12,91.90,4
84,88.03,91.82,4
84,87.95,91.74,4
88,87.96,91.70,4
86,87.92,91.64,4
84,87.84,91.57,4
84,87.76,91.49,4
83,87.67,91.41,4
84,87.59,91.33,4
84,87.52,91.26,4
83,87.43,91.18,4
83,87.34,91.10,4
83,87.25,91.01,4
83,87.17,90.93,4
85,87.13,90.88,4
84,87.06,90.81,4
84,87.00,90.74,4
84,86.94,90.67,4
84,86.88,90.60,4
83,86.81,90.53,4
82,86.71,90.44,4
84,86.66,90.38,4
84,86.60,90.31,4
83,86.53,90.24,4
84,86.48,90.18,4
83,86.41,90.11,4
83,86.34,90.04,4
83,86.28,89.97,4
82,86.19,89.89,4
82,86.11,89.81,4
82,86.02,89.73,4
84,85.98,89.67,4
82,85.90,89.60,4
82,85.83,89.52,4
82,85.75,89.44,4
82,85.67,89.37,4
82,85.60,89.30,4
82,85.53,89.22,4
82,85.46,89.15,4
82,85.39,89.08,4
82,85.32,89.01,4
82,85.25,88.94,4
81,85.17,88.86,4
83,85.13,88.80,4
82,85.06,88.73,4
82,85.00,88.67,4
81,84.92,88.59,4
81,84.84,88.51,4
81,84.77,88.44,4
82,84.71,88.37,4
81,84.64,88.30,4
81,84.56,88.23,4
82,84.51,88.16,4
81,84.44,88.09,4
80,84.35,88.01,4
80,84.27,87.93,4
82,84.22,87.87,4
79,84.12,87.78,4
80,84.04,87.71,4
80,83.95,87.63,4
80,83.88,87.55,4
79,83.78,87.47,4
80,83.70,87.39,4
80,83.63,87.32,4
80,83.56,87.24,4
80,83.48,87.17,4
80,83.41,87.10,4
80,83.35,87.03,4
80,83.28,86.96,4
78,83.17,86.87,4
82,83.15,86.82,4
79,83.07,86.74,4
79,82.99,86.67,4
79,82.91,86.59,4
80,82.85,86.52,4
79,82.77,86.45,4
79,82.70,86.37,4
78,82.60,86.29,4
79,82.53,86.22,4
80,82.48,86.15,4
80,82.43,86.09,4
78,82.34,86.01,4
82,82.33,85.97,4
80,82.29,85.91,4
80,82.24,85.85,4
78,82.16,85.77,4
79,82.09,85.71,4
79,82.03,85.64,4
78,81.95,85.56,4
78,81.87,85.49,4
79,81.81,85.42,4
78,81.74,85.35,4
79,81.68,85.29,4
79,81.63,85.22,4
79,81.58,85.16,4
78,81.51,85.09,4
78,81.44,85.02,4
78,81.37,84.95,4
80,81.34,84.90,4
78,81.27,84.83,4
78,81.21,84.76,4
78,81.14,84.69,4
79,81.10,84.64,4
78,81.04,84.57,4
78,80.98,84.50,4
78,80.92,84.44,4
79,80.88,84.38,4
78,80.82,84.32,4
78,80.77,84.26,4
78,80.71,84.20,4
80,80.70,84.15,4
79,80.66,84.10,4
78,80.61,84.04,4
77,80.54,83.97,4
78,80.49,83.91,4
78,80.44,83.85,4
78,80.39,83.79,4
78,80.34,83.73,4
79,80.31,83.69,4
78,80.27,83.63,4
78,80.22,83.57,4
78,80.18,83.52,4
77,80.11,83.45,4
77,80.05,83.39,4
78,80.01,83.34,4
79,79.99,83.29,4
77,79.93,83.23,4
77,79.87,83.17,4
78,79.83,83.11,4
77,79.78,83.05,4
77,79.72,82.99,4
76,79.65,82.92,4
78,79.61,82.87,4
76,79.54,82.81,4
76,79.47,82.74,4
77,79.42,82.68,4
76,79.35,82.61,4
76,79.29,82.55,4
76,79.22,82.48,4
76,79.16,82.42,4
76,79.09,82.35,4
76,79.03,82.29,4
77,78.99,82.24,4
76,78.93,82.17,4
75,78.85,82.10,4
75,78.78,82.03,4
78,78.76,81.99,4
76,78.70,81.93,4
75,78.63,81.86,4
75,78.56,81.79,4
76,78.51,81.73,4
76,78.46,81.68,4
76,78.41,81.62,4
76,78.36,81.56,4
76,78.31,81.51,4
75,78.25,81.44,4
76,78.20,81.39,4
76,78.16,81.34,4
75,78.09,81.27,4
75,78.03,81.21,4
76,77.99,81.16,4
74,77.91,81.09,4
76,77.87,81.03,4
75,77.82,80.97,4
76,77.78,80.92,4
75,77.72,80.87,4
75,77.67,80.81,4
76,77.64,80.76,4
75,77.58,80.70,4
74,77.51,80.63,4
74,77.44,80.57,4
75,77.39,80.51,4
76,77.36,80.47,4
74,77.30,80.40,4
74,77.23,80.34,4
76,77.21,80.29,4
74,77.14,80.23,4
74,77.08,80.17,4
74,77.02,80.11,4
74,76.96,80.05,4
74,76.90,79.99,4
74,76.84,79.93,4
74,76.78,79.87,4
74,76.73,79.81,4
76,76.71,79.77,4
74,76.66,79.71,4
74,76.61,79.66,4
74,76.55,79.60,4
74,76.50,79.54,4
78,76.53,79.53,4
74,76.48,79.47,4
74,76.43,79.42,4
73,76.36,79.35,4
73,76.30,79.29,4
74,76.25,79.24,4
73,76.19,79.17,4
74,76.14,79.12,4
76,76.14,79.09,4
73,76.08,79.03,4
76,76.07,79.00,4
72,75.99,78.93,4
73,75.93,78.87,4
74,75.89,78.82,4
73,75.84,78.76,4
72,75.76,78.70,4
71,75.67,78.62,4
74,75.63,78.57,4
72,75.56,78.51,4
72,75.49,78.44,4
73,75.44,78.39,4
72,75.37,78.32,4
72,75.30,78.26,4
72,75.24,78.20,4
72,75.17,78.14,4
72,75.11,78.08,4
72,75.05,78.01,4
72,74.98,77.95,4
72,74.93,77.89,4
74,74.91,77.86,4
72,74.85,77.80,4
72,74.79,77.74,4
72,74.74,77.68,4
74,74.72,77.65,4
72,74.67,77.59,4
72,74.61,77.53,4
72,74.56,77.48,4
72,74.51,77.42,4
72,74.46,77.37,4
71,74.39,77.30,4
71,74.32,77.24,4
72,74.28,77.19,4
72,74.23,77.14,4
72,74.19,77.09,4
70,74.10,77.02,4
73,74.08,76.98,4
70,74.00,76.91,4
71,73.94,76.85,4
70,73.86,76.78,4
72,73.82,76.73,4
71,73.77,76.67,4
70,73.69,76.61,4
70,73.62,76.54,4
72,73.58,76.49,4
72,73.55,76.45,4
72,73.52,76.41,4
70,73.45,76.34,4
72,73.42,76.30,4
71,73.37,76.24,4
71,73.33,76.19,4
70,73.26,76.13,4
72,73.23,76.09,4
71,73.19,76.04,4
70,73.13,75.98,4
70,73.06,75.92,4
72,73.04,75.88,4
72,73.02,75.84,4
69,72.94,75.77,4
71,72.90,75.72,4
71,72.86,75.68,4
70,72.81,75.62,4
70,72.75,75.56,4
70,72.70,75.51,4
70,72.64,75.45,4
70,72.59,75.40,4
70,72.54,75.34,4
72,72.53,75.31,4
70,72.48,75.26,4
71,72.45,75.22,4
70,72.40,75.16,4
70,72.35,75.11,4
71,72.32,75.07,4
70,72.28,75.02,4
70,72.23,74.97,4
70,72.19,74.92,4
70,72.14,74.87,4
70,72.10,74.82,4
69,72.04,74.76,4
70,72.00,74.72,4
70,71.96,74.67,4
70,71.92,74.62,4
70,71.88,74.58,4
70,71.84,74.53,4
69,71.79,74.47,4
70,71.75,74.43,4
70,71.71,74.39,4
69,71.66,74.33,4
70,71.63,74.29,4
68,71.55,74.23,4
68,71.48,74.16,4
69,71.43,74.11,4
68,71.36,74.05,4
69,71.32,74.00,4
70,71.29,73.96,4
69,71.25,73.91,4
68,71.18,73.85,4
68,71.12,73.79,4
68,71.05,73.74,4
69,71.01,73.69,4
70,70.99,73.65,4
69,70.95,73.60,4
70,70.93,73.57,4
69,70.90,73.52,4
71,70.90,73.50,4
69,70.86,73.45,4
68,70.80,73.40,4
69,70.77,73.35,4
70,70.75,73.32,4
69,70.72,73.28,4
68,70.66,73.22,4
68,70.61,73.17,4
68,70.56,73.12,4
69,70.53,73.08,4
71,70.53,73.06,4
68,70.48,73.01,4
68,70.43,72.96,4
68,70.39,72.91,4
68,70.34,72.86,4
67,70.27,72.80,4
68,70.23,72.75,4
70,70.22,72.72,4
67,70.16,72.67,4
68,70.11,72.62,4
69,70.09,72.58,4
68,70.05,72.54,4
68,70.01,72.49,4
67,69.95,72.44,4
69,69.93,72.40,4
68,69.89,72.36,4
64,69.77,72.28,4
66,69.70,72.21,4
68,69.66,72.17,4
68,69.63,72.13,4
68,69.60,72.09,4
67,69.55,72.04,4
68,69.51,72.00,4
67,69.46,71.95,4
66,69.40,71.89,4
68,69.37,71.85,4
68,69.34,71.81,4
68,69.31,71.77,4
66,69.25,71.71,4
68,69.22,71.68,4
67,69.18,71.63,4
67,69.13,71.58,4
66,69.07,71.53,4
66,69.01,71.47,4
68,68.99,71.44,4
66,68.93,71.38,4
66,68.87,71.33,4
66,68.81,71.28,4
68,68.80,71.24,4
66,68.74,71.19,4
66,68.69,71.14,4
66,68.63,71.09,4
66,68.58,71.04,4
66,68.53,70.99,4
66,68.48,70.94,4
66,68.43,70.89,4
67,68.40,70.85,4
66,68.35,70.80,4
66,68.31,70.75,4
66,68.26,70.71,4
66,68.21,70.66,4
65,68.15,70.60,4
66,68.11,70.56,4
67,68.08,70.52,4
66,68.04,70.47,4
66,68.00,70.43,4
66,67.96,70.39,4
66,67.92,70.34,4
66,67.88,70.30,4
66,67.85,70.26,4
66,67.81,70.21,4
66,67.77,70.17,4
66,67.74,70.13,4
66,67.70,70.09,4
65,67.65,70.04,4
66,67.62,70.00,4
66,67.58,69.96,4
66,67.55,69.92,4
66,67.52,69.88,4
65,67.47,69.83,4
66,67.44,69.79,4
66,67.41,69.75,4
66,67.38,69.72,4
65,67.34,69.67,4
66,67.31,69.63,4
65,67.26,69.59,4
66,67.24,69.55,4
65,67.19,69.50,4
66,67.17,69.47,4
65,67.13,69.42,4
65,67.08,69.38,4
65,67.04,69.34,4
65,67.00,69.29,4
65,66.96,69.25,4
64,66.90,69.20,4
66,66.88,69.17,4
66,66.87,69.13,4
64,66.81,69.08,4
64,66.75,69.03,4
64,66.70,68.98,4
65,66.66,68.94,4
63,66.59,68.88,4
65,66.56,68.84,4
64,66.51,68.79,4
65,66.48,68.76,4
67,66.49,68.74,4
64,66.44,68.69,4
64,66.39,68.65,4
65,66.36,68.61,4
64,66.31,68.56,4
64,66.27,68.52,4
64,66.22,68.47,4
64,66.18,68.43,4
64,66.13,68.38,4
64,66.09,68.34,4
64,66.05,68.30,4
65,66.03,68.26,4
64,65.99,68.22,4
64,65.95,68.18,4
64,65.91,68.14,4
64,65.87,68.09,4
64,65.83,68.05,4
63,65.78,68.00,4
64,65.74,67.96,4
63,65.69,67.91,4
64,65.65,67.87,4
64,65.62,67.84,4
64,65.59,67.80,4
65,65.58,67.77,4
64,65.54,67.73,4
62,65.47,67.67,4
64,65.44,67.64,4
64,65.42,67.60,4
62,65.35,67.55,4
64,65.32,67.51,4
64,65.29,67.47,4
62,65.23,67.42,4
63,65.18,67.38,4
62,65.12,67.32,4
63,65.08,67.28,4
63,65.04,67.24,4
63,64.99,67.19,4
62,64.94,67.14,4
