Teste de posicionamento 2(EMG ao centro do bíceps (Vermelho A, Verde B) + Ref no cotovelo) - 19/10/2024 - teste10 - 5 contrações
long frequencia = 1000;                 //frequência de aquisição do sinal, neste caso, 1000 sinais por segundo
float fator1 = 0.02, fator2 = 0.01;
float incerteza = 0.13;
float pico_basal = 130; // Mínimo para ser considerado um pico de contração
int filtro_horizontal=200000; //intervalo de 200ms valores não pode ter mais de 1 contração

Biceps_D,mediaMovel_1,mediaMovel_2,Contracao
37,0.74,0.37,0
36,1.45,0.73,0
36,2.14,1.08,0
37,2.83,1.44,0
37,3.52,1.79,0
38,4.21,2.16,0
38,4.88,2.51,0
39,5.56,2.88,0
37,6.19,3.22,0
39,6.85,3.58,0
37,7.45,3.91,0
39,8.08,4.26,0
37,8.66,4.59,0
39,9.27,4.93,0
37,9.82,5.26,0
38,10.39,5.58,0
35,10.88,5.88,0
36,11.38,6.18,0
37,11.89,6.49,0
37,12.40,6.79,0
37,12.89,7.09,0
37,13.37,7.39,0
35,13.80,7.67,0
37,14.27,7.96,0
35,14.68,8.23,0
37,15.13,8.52,0
35,15.53,8.79,0
37,15.95,9.07,0
36,16.36,9.34,0
38,16.79,9.62,0
35,17.15,9.88,0
35,17.51,10.13,0
36,17.88,10.39,0
37,18.26,10.65,0
36,18.62,10.91,0
36,18.96,11.16,0
38,19.35,11.43,0
36,19.68,11.67,0
35,19.98,11.90,0
36,20.30,12.15,0
38,20.66,12.40,0
36,20.97,12.64,0
38,21.31,12.89,0
36,21.60,13.12,0
37,21.91,13.36,0
37,22.21,13.60,0
36,22.49,13.82,0
36,22.76,14.05,0
36,23.02,14.27,0
36,23.28,14.48,0
37,23.56,14.71,0
36,23.80,14.92,0
36,24.05,15.13,0
36,24.29,15.34,0
36,24.52,15.55,0
38,24.79,15.77,0
36,25.01,15.97,0
37,25.25,16.18,0
36,25.47,16.38,0
37,25.70,16.59,0
36,25.91,16.78,0
37,26.13,16.98,0
36,26.33,17.17,0
37,26.54,17.37,0
37,26.75,17.57,0
36,26.93,17.75,0
38,27.15,17.96,0
38,27.37,18.16,0
36,27.54,18.33,0
36,27.71,18.51,0
35,27.86,18.68,0
37,28.04,18.86,0
36,28.20,19.03,0
37,28.38,19.21,0
36,28.53,19.38,0
38,28.72,19.56,0
36,28.86,19.73,0
35,28.99,19.88,0
36,29.13,20.04,0
38,29.30,20.22,0
36,29.44,20.38,0
36,29.57,20.54,0
37,29.72,20.70,0
33,29.78,20.82,0
36,29.91,20.98,0
36,30.03,21.13,0
37,30.17,21.29,0
36,30.29,21.43,0
36,30.40,21.58,0
36,30.51,21.72,0
36,30.62,21.86,0
36,30.73,22.01,0
36,30.84,22.15,0
34,30.90,22.26,0
37,31.02,22.41,0
37,31.14,22.56,0
36,31.24,22.69,0
36,31.33,22.83,0
37,31.45,22.97,0
36,31.54,23.10,0
36,31.63,23.23,0
36,31.71,23.35,0
36,31.80,23.48,0
36,31.88,23.61,0
35,31.95,23.72,0
37,32.05,23.85,0
36,32.13,23.97,0
36,32.20,24.09,0
36,32.28,24.21,0
36,32.35,24.33,0
36,32.43,24.45,0
36,32.50,24.56,0
36,32.57,24.68,0
36,32.64,24.79,0
37,32.72,24.91,0
36,32.79,25.02,0
36,32.85,25.13,0
38,32.96,25.26,0
36,33.02,25.37,0
36,33.08,25.48,0
36,33.14,25.58,0
36,33.19,25.69,0
35,33.23,25.78,0
36,33.28,25.88,0
36,33.34,25.98,0
36,33.39,26.08,0
36,33.44,26.18,0
38,33.54,26.30,0
36,33.58,26.40,0
37,33.65,26.50,0
35,33.68,26.59,0
36,33.73,26.68,0
38,33.81,26.80,0
38,33.90,26.91,0
38,33.98,27.02,0
36,34.02,27.11,0
36,34.06,27.20,0
36,34.10,27.28,0
38,34.17,27.39,0
36,34.21,27.48,0
37,34.27,27.57,0
36,34.30,27.66,0
36,34.34,27.74,0
36,34.37,27.82,0
36,34.40,27.91,0
36,34.43,27.99,0
36,34.46,28.07,0
36,34.50,28.15,0
36,34.53,28.22,0
36,34.56,28.30,0
36,34.58,28.38,0
38,34.65,28.48,0
36,34.68,28.55,0
36,34.71,28.62,0
38,34.77,28.72,0
36,34.80,28.79,0
34,34.78,28.84,0
36,34.80,28.92,0
36,34.83,28.99,0
36,34.85,29.06,0
36,34.87,29.13,0
36,34.90,29.19,0
38,34.96,29.28,0
36,34.98,29.35,0
36,35.00,29.42,0
36,35.02,29.48,0
36,35.04,29.55,0
36,35.06,29.61,0
36,35.08,29.68,0
36,35.10,29.74,0
36,35.11,29.80,0
36,35.13,29.86,0
36,35.15,29.92,0
35,35.15,29.98,0
36,35.16,30.04,0
36,35.18,30.10,0
35,35.18,30.14,0
36,35.19,30.20,0
36,35.21,30.26,0
36,35.23,30.32,0
35,35.22,30.37,0
34,35.20,30.40,0
36,35.21,30.46,0
36,35.23,30.51,0
36,35.24,30.57,0
36,35.26,30.62,0
36,35.27,30.68,0
36,35.29,30.73,0
34,35.26,30.76,0
34,35.24,30.79,0
38,35.29,30.87,0
36,35.31,30.92,0
36,35.32,30.97,0
36,35.33,31.02,0
37,35.37,31.08,0
35,35.36,31.12,0
34,35.33,31.15,0
34,35.31,31.18,0
31,35.22,31.17,0
35,35.22,31.21,0
34,35.19,31.24,0
36,35.21,31.29,0
36,35.22,31.33,0
35,35.22,31.37,0
34,35.19,31.40,0
36,35.21,31.44,0
33,35.17,31.46,0
35,35.16,31.49,0
34,35.14,31.52,0
38,35.20,31.58,0
35,35.19,31.62,0
35,35.19,31.65,0
34,35.17,31.68,0
36,35.18,31.72,0
35,35.18,31.75,0
36,35.19,31.79,0
34,35.17,31.82,0
35,35.17,31.85,0
35,35.16,31.88,0
35,35.16,31.91,0
36,35.18,31.95,0
36,35.19,31.99,0
35,35.19,32.02,0
34,35.17,32.04,0
36,35.18,32.08,0
36,35.20,32.12,0
35,35.20,32.15,0
34,35.17,32.17,0
36,35.19,32.21,0
35,35.18,32.23,0
35,35.18,32.26,0
34,35.16,32.28,0
36,35.17,32.32,0
35,35.17,32.34,0
36,35.19,32.38,0
34,35.16,32.40,0
34,35.14,32.41,0
36,35.16,32.45,0
36,35.17,32.48,0
34,35.15,32.50,0
36,35.17,32.53,0
35,35.16,32.56,0
34,35.14,32.57,0
36,35.16,32.61,0
36,35.18,32.64,0
35,35.17,32.66,0
34,35.15,32.68,0
33,35.11,32.68,0
34,35.08,32.69,0
35,35.08,32.72,0
34,35.06,32.73,0
36,35.08,32.76,0
34,35.06,32.78,0
35,35.06,32.80,0
34,35.03,32.81,0
36,35.05,32.84,0
34,35.03,32.85,0
35,35.03,32.87,0
36,35.05,32.91,0
34,35.03,32.92,0
34,35.01,32.93,0
34,34.99,32.94,0
35,34.99,32.96,0
36,35.01,32.99,0
34,34.99,33.00,0
35,34.99,33.02,0
37,35.03,33.06,0
35,35.03,33.08,0
34,35.01,33.09,0
34,34.99,33.10,0
36,35.01,33.13,0
34,34.99,33.13,0
34,34.97,33.14,0
34,34.95,33.15,0
36,34.97,33.18,0
36,34.99,33.21,0
34,34.97,33.22,0
36,34.99,33.24,0
36,35.01,33.27,0
35,35.01,33.29,0
34,34.99,33.30,0
35,34.99,33.31,0
36,35.01,33.34,0
35,35.01,33.36,0
34,34.99,33.36,0
34,34.97,33.37,0
36,34.99,33.40,0
34,34.97,33.40,0
34,34.95,33.41,0
34,34.93,33.41,0
36,34.96,33.44,0
34,34.94,33.45,0
34,34.92,33.45,0
34,34.90,33.46,0
35,34.90,33.47,0
34,34.88,33.48,0
34,34.87,33.48,0
34,34.85,33.49,0
34,34.83,33.49,0
35,34.83,33.51,0
36,34.86,33.53,0
35,34.86,33.55,0
35,34.86,33.56,0
34,34.85,33.57,0
34,34.83,33.57,0
38,34.89,33.61,0
35,34.89,33.63,0
34,34.88,33.63,0
34,34.86,33.64,0
34,34.84,33.64,0
35,34.85,33.65,0
36,34.87,33.68,0
34,34.85,33.68,0
35,34.85,33.69,0
34,34.84,33.70,0
34,34.82,33.70,0
36,34.84,33.72,0
36,34.87,33.75,0
35,34.87,33.76,0
34,34.85,33.76,0
36,34.88,33.78,0
36,34.90,33.80,0
35,34.90,33.82,0
36,34.92,33.84,0
36,34.94,33.86,0
35,34.94,33.87,0
34,34.93,33.87,0
34,34.91,33.87,0
36,34.93,33.90,0
36,34.95,33.92,0
35,34.95,33.93,0
35,34.95,33.94,0
34,34.93,33.94,0
36,34.95,33.96,0
35,34.96,33.97,0
35,34.96,33.98,0
36,34.98,34.00,0
36,35.00,34.02,0
35,35.00,34.03,0
36,35.02,34.05,0
35,35.02,34.06,0
36,35.04,34.08,0
37,35.08,34.11,0
36,35.09,34.13,0
36,35.11,34.15,0
35,35.11,34.15,0
38,35.17,34.19,0
37,35.21,34.22,0
36,35.22,34.24,0
36,35.24,34.26,0
35,35.23,34.26,0
35,35.23,34.27,0
35,35.22,34.28,0
35,35.22,34.29,0
37,35.25,34.31,0
36,35.27,34.33,0
36,35.28,34.35,0
35,35.28,34.35,0
36,35.29,34.37,0
36,35.31,34.39,0
35,35.30,34.39,0
34,35.27,34.39,0
37,35.31,34.41,0
36,35.32,34.43,0
36,35.34,34.45,0
36,35.35,34.46,0
36,35.36,34.48,0
36,35.38,34.49,0
35,35.37,34.50,0
34,35.34,34.49,0
36,35.35,34.51,0
36,35.37,34.52,0
36,35.38,34.54,0
36,35.39,34.55,0
36,35.40,34.57,0
35,35.40,34.57,0
34,35.37,34.56,0
34,35.34,34.56,0
37,35.37,34.58,0
35,35.37,34.59,0
36,35.38,34.60,0
36,35.39,34.62,0
36,35.40,34.63,0
35,35.40,34.63,0
34,35.37,34.63,0
36,35.38,34.64,0
36,35.39,34.65,0
36,35.40,34.67,0
36,35.42,34.68,0
38,35.47,34.71,0
37,35.50,34.74,0
36,35.51,34.75,0
36,35.52,34.76,0
36,35.53,34.77,0
35,35.52,34.78,0
36,35.53,34.79,0
35,35.52,34.79,0
36,35.53,34.80,0
35,35.52,34.80,0
36,35.53,34.82,0
36,35.54,34.83,0
36,35.54,34.84,0
36,35.55,34.85,0
36,35.56,34.86,0
36,35.57,34.87,0
38,35.62,34.91,0
36,35.63,34.92,0
36,35.63,34.93,0
36,35.64,34.94,0
37,35.67,34.96,0
37,35.70,34.98,0
36,35.70,34.99,0
36,35.71,35.00,0
37,35.73,35.02,0
36,35.74,35.03,0
37,35.76,35.05,0
36,35.77,35.06,0
37,35.79,35.08,0
36,35.80,35.09,0
36,35.80,35.10,0
42,35.93,35.17,0
37,35.95,35.18,0
36,35.95,35.19,0
37,35.97,35.21,0
36,35.97,35.22,0
37,35.99,35.24,0
37,36.01,35.25,0
37,36.03,35.27,0
36,36.03,35.28,0
37,36.05,35.30,0
38,36.09,35.32,0
37,36.11,35.34,0
37,36.12,35.36,0
38,36.16,35.38,0
39,36.22,35.42,0
37,36.23,35.43,0
36,36.23,35.44,0
37,36.25,35.46,0
37,36.26,35.47,0
36,36.26,35.48,0
37,36.27,35.49,0
38,36.30,35.52,0
38,36.34,35.54,0
38,36.37,35.57,0
38,36.40,35.59,0
38,36.44,35.61,0
37,36.45,35.63,0
41,36.54,35.68,0
38,36.57,35.71,0
38,36.60,35.73,0
39,36.64,35.76,0
38,36.67,35.78,0
38,36.70,35.81,0
38,36.72,35.83,0
39,36.77,35.86,0
38,36.79,35.88,0
38,36.82,35.90,0
38,36.84,35.92,0
39,36.89,35.95,0
40,36.95,35.99,0
38,36.97,36.01,0
38,36.99,36.03,0
40,37.05,36.07,0
38,37.07,36.09,0
38,37.09,36.11,0
38,37.11,36.13,0
39,37.14,36.16,0
39,37.18,36.19,0
38,37.20,36.21,0
38,37.21,36.22,0
39,37.25,36.25,0
40,37.30,36.29,0
38,37.32,36.31,0
38,37.33,36.32,0
39,37.36,36.35,0
39,37.40,36.38,0
38,37.41,36.39,0
39,37.44,36.42,0
40,37.49,36.45,0
40,37.54,36.49,0
40,37.59,36.53,0
40,37.64,36.56,0
41,37.71,36.60,0
40,37.75,36.64,0
40,37.80,36.67,0
40,37.84,36.71,0
40,37.88,36.74,0
40,37.93,36.77,0
40,37.97,36.80,0
40,38.01,36.84,0
41,38.07,36.88,0
40,38.11,36.91,0
40,38.15,36.94,0
39,38.16,36.96,0
40,38.20,36.99,0
40,38.24,37.02,0
40,38.27,37.05,0
40,38.31,37.08,0
40,38.34,37.11,0
40,38.37,37.14,0
40,38.40,37.17,0
40,38.44,37.19,0
40,38.47,37.22,0
40,38.50,37.25,0
40,38.53,37.28,0
40,38.56,37.30,0
40,38.59,37.33,0
42,38.66,37.38,0
40,38.68,37.40,0
40,38.71,37.43,0
42,38.77,37.48,0
40,38.80,37.50,0
40,38.82,37.53,0
40,38.85,37.55,0
40,38.87,37.58,0
41,38.91,37.61,0
40,38.93,37.63,0
40,38.96,37.66,0
40,38.98,37.68,0
39,38.98,37.69,0
40,39.00,37.72,0
40,39.02,37.74,0
40,39.04,37.76,0
42,39.10,37.81,0
40,39.11,37.83,0
40,39.13,37.85,0
40,39.15,37.87,0
44,39.25,37.93,0
40,39.26,37.95,0
40,39.28,37.97,0
40,39.29,37.99,0
40,39.30,38.01,0
40,39.32,38.03,0
40,39.33,38.05,0
41,39.37,38.08,0
44,39.46,38.14,0
40,39.47,38.16,0
40,39.48,38.18,0
40,39.49,38.20,0
40,39.50,38.21,0
40,39.51,38.23,0
40,39.52,38.25,0
41,39.55,38.28,0
40,39.56,38.29,0
40,39.57,38.31,0
40,39.58,38.33,0
41,39.60,38.36,0
41,39.63,38.38,0
40,39.64,38.40,0
41,39.67,38.42,0
41,39.69,38.45,0
39,39.68,38.46,0
42,39.73,38.49,0
42,39.77,38.53,0
42,39.82,38.56,0
42,39.86,38.60,0
42,39.90,38.63,0
42,39.94,38.66,0
42,39.99,38.70,0
42,40.03,38.73,0
42,40.07,38.76,0
42,40.10,38.79,0
44,40.18,38.85,0
42,40.22,38.88,0
42,40.25,38.91,0
44,40.33,38.96,0
43,40.38,39.00,0
42,40.41,39.03,0
42,40.45,39.06,0
42,40.48,39.09,0
43,40.53,39.13,0
42,40.56,39.16,0
42,40.59,39.19,0
44,40.65,39.23,0
43,40.70,39.27,0
42,40.73,39.30,0
42,40.75,39.33,0
44,40.82,39.37,0
44,40.88,39.42,0
42,40.90,39.44,0
44,40.97,39.49,0
43,41.01,39.53,0
43,41.05,39.56,0
42,41.07,39.58,0
44,41.12,39.63,0
44,41.18,39.67,0
44,41.24,39.72,0
44,41.29,39.76,0
44,41.35,39.80,0
44,41.40,39.84,0
44,41.45,39.88,0
46,41.54,39.95,0
45,41.61,40.00,0
44,41.66,40.04,0
44,41.71,40.08,0
44,41.75,40.12,0
44,41.80,40.15,0
46,41.88,40.21,0
44,41.92,40.25,0
44,41.97,40.29,0
44,42.01,40.32,0
45,42.07,40.37,0
46,42.15,40.43,0
45,42.20,40.47,0
44,42.24,40.51,0
45,42.29,40.55,0
46,42.37,40.61,0
46,42.44,40.66,0
46,42.51,40.72,0
46,42.58,40.77,0
46,42.65,40.82,0
47,42.74,40.88,0
47,42.82,40.94,0
47,42.91,41.00,0
47,42.99,41.06,0
47,43.07,41.12,0
47,43.15,41.18,0
48,43.24,41.25,0
47,43.32,41.31,0
49,43.43,41.38,0
47,43.50,41.44,0
48,43.59,41.51,0
48,43.68,41.57,0
49,43.79,41.65,0
48,43.87,41.71,0
49,43.97,41.78,0
50,44.10,41.86,0
50,44.21,41.95,0
48,44.29,42.01,0
49,44.38,42.08,0
49,44.48,42.15,0
50,44.59,42.22,0
50,44.69,42.30,0
50,44.80,42.38,0
51,44.92,42.47,0
52,45.07,42.56,0
50,45.16,42.63,0
50,45.26,42.71,0
52,45.40,42.80,0
51,45.51,42.88,0
50,45.60,42.95,0
50,45.69,43.02,0
52,45.81,43.11,0
52,45.94,43.20,0
52,46.06,43.29,0
50,46.14,43.36,0
53,46.27,43.46,0
52,46.39,43.54,0
52,46.50,43.63,0
54,46.65,43.73,0
55,46.82,43.84,0
54,46.96,43.94,0
54,47.10,44.04,0
54,47.24,44.14,0
55,47.39,44.25,0
54,47.53,44.35,0
56,47.70,44.47,0
56,47.86,44.58,0
58,48.07,44.72,0
56,48.22,44.83,0
56,48.38,44.94,0
58,48.57,45.07,0
57,48.74,45.19,0
58,48.93,45.32,0
58,49.11,45.44,0
58,49.28,45.57,0
58,49.46,45.69,0
58,49.63,45.82,0
58,49.80,45.94,0
58,49.96,46.06,0
58,50.12,46.18,0
58,50.28,46.30,0
60,50.47,46.43,0
60,50.66,46.57,0
59,50.83,46.69,0
62,51.05,46.85,0
60,51.23,46.98,0
62,51.45,47.13,0
62,51.66,47.28,0
62,51.87,47.43,0
64,52.11,47.59,0
66,52.39,47.78,0
66,52.66,47.96,0
66,52.93,48.14,0
68,53.23,48.34,0
68,53.52,48.53,0
68,53.81,48.73,0
70,54.14,48.94,0
70,54.45,49.15,0
71,54.78,49.37,0
70,55.09,49.58,0
70,55.39,49.78,0
72,55.72,50.00,0
71,56.03,50.21,0
72,56.34,50.43,0
75,56.72,50.68,0
72,57.02,50.89,0
71,57.30,51.09,0
70,57.56,51.28,0
71,57.83,51.48,0
70,58.07,51.66,0
71,58.33,51.86,0
71,58.58,52.05,0
71,58.83,52.24,0
71,59.07,52.42,0
71,59.31,52.61,0
75,59.63,52.83,0
72,59.87,53.03,0
74,60.16,53.23,0
74,60.43,53.44,0
75,60.72,53.66,0
73,60.97,53.85,0
73,61.21,54.04,0
74,61.47,54.24,0
73,61.70,54.43,0
73,61.92,54.62,0
74,62.16,54.81,0
74,62.40,55.00,0
75,62.65,55.20,0
75,62.90,55.40,0
74,63.12,55.59,0
74,63.34,55.77,0
73,63.53,55.94,0
75,63.76,56.13,0
74,63.97,56.31,0
77,64.23,56.52,0
79,64.52,56.74,0
78,64.79,56.96,0
78,65.06,57.17,0
78,65.32,57.37,0
81,65.63,57.61,0
84,66.00,57.87,0
83,66.34,58.13,0
83,66.67,58.37,0
83,67.00,58.62,0
83,67.32,58.86,0
84,67.65,59.12,0
86,68.02,59.38,0
86,68.38,59.65,0
86,68.73,59.91,0
86,69.07,60.18,0
86,69.41,60.43,0
87,69.76,60.70,0
88,70.13,60.97,0
88,70.49,61.24,0
88,70.84,61.51,0
88,71.18,61.77,0
88,71.52,62.04,0
90,71.89,62.32,0
90,72.25,62.59,0
92,72.64,62.89,0
91,73.01,63.17,0
90,73.35,63.44,0
92,73.72,63.72,0
93,74.11,64.02,0
94,74.51,64.32,0
94,74.90,64.61,0
94,75.28,64.91,0
95,75.67,65.21,0
94,76.04,65.49,0
94,76.40,65.78,0
96,76.79,66.08,0
95,77.16,66.37,0
96,77.53,66.67,0
98,77.94,66.98,0
103,78.44,67.34,0
101,78.89,67.68,0
101,79.34,68.01,0
101,79.77,68.34,0
103,80.23,68.69,0
106,80.75,69.06,0
107,81.27,69.44,0
108,81.81,69.83,0
108,82.33,70.21,0
108,82.85,70.59,0
107,83.33,70.95,0
107,83.80,71.31,0
108,84.29,71.68,0
110,84.80,72.06,0
109,85.28,72.43,0
109,85.76,72.80,0
108,86.20,73.15,0
108,86.64,73.50,0
108,87.07,73.84,0
108,87.49,74.18,0
108,87.90,74.52,0
109,88.32,74.87,0
110,88.75,75.22,0
110,89.18,75.56,0
110,89.59,75.91,0
110,90.00,76.25,0
111,90.42,76.60,0
113,90.87,76.96,0
111,91.28,77.30,0
113,91.71,77.66,0
112,92.12,78.00,0
112,92.51,78.34,0
113,92.92,78.69,0
114,93.34,79.04,0
114,93.76,79.39,0
113,94.14,79.73,0
115,94.56,80.08,0
116,94.99,80.44,0
116,95.41,80.80,0
114,95.78,81.13,0
115,96.16,81.47,0
116,96.56,81.81,0
117,96.97,82.16,0
116,97.35,82.50,0
116,97.72,82.84,0
117,98.11,83.18,0
117,98.49,83.52,0
117,98.86,83.85,0
116,99.20,84.17,0
116,99.54,84.49,0
117,99.89,84.82,0
117,100.23,85.14,0
117,100.56,85.46,0
116,100.87,85.76,0
117,101.19,86.07,0
116,101.49,86.37,0
116,101.78,86.67,0
116,102.07,86.96,0
117,102.36,87.26,0
116,102.64,87.55,0
116,102.90,87.84,0
116,103.17,88.12,0
116,103.42,88.40,0
116,103.67,88.67,0
116,103.92,88.95,0
116,104.16,89.22,0
117,104.42,89.49,0
116,104.65,89.76,0
117,104.90,90.03,0
116,105.12,90.29,0
116,105.34,90.55,0
116,105.55,90.80,0
116,105.76,91.05,0
115,105.94,91.29,0
115,106.13,91.53,0
116,106.32,91.78,0
115,106.50,92.01,0
116,106.69,92.25,0
116,106.87,92.49,0
117,107.08,92.73,0
116,107.25,92.96,0
116,107.43,93.19,0
116,107.60,93.42,0
115,107.75,93.64,0
115,107.89,93.85,0
116,108.06,94.07,0
115,108.19,94.28,0
115,108.33,94.49,0
114,108.44,94.68,0
114,108.55,94.88,0
114,108.66,95.07,0
114,108.77,95.26,0
114,108.88,95.45,0
116,109.02,95.65,0
117,109.18,95.86,0
113,109.25,96.04,0
113,109.33,96.21,0
114,109.42,96.38,0
113,109.49,96.55,0
112,109.54,96.70,0
113,109.61,96.87,0
112,109.66,97.02,0
114,109.75,97.19,0
112,109.79,97.34,0
112,109.84,97.48,0
112,109.88,97.63,0
112,109.92,97.77,0
112,109.96,97.91,0
113,110.02,98.06,0
111,110.04,98.19,0
111,110.06,98.32,0
111,110.08,98.45,0
111,110.10,98.57,0
112,110.14,98.71,0
111,110.16,98.83,0
110,110.15,98.94,0
111,110.17,99.06,0
110,110.17,99.17,0
110,110.16,99.28,0
110,110.16,99.39,0
110,110.16,99.49,0
110,110.15,99.60,0
111,110.17,99.71,0
110,110.17,99.82,0
111,110.18,99.93,0
110,110.18,100.03,0
110,110.18,100.13,0
110,110.17,100.23,0
110,110.17,100.33,0
110,110.17,100.42,0
110,110.16,100.52,0
111,110.18,100.62,0
109,110.16,100.71,0
110,110.15,100.80,0
109,110.13,100.88,0
109,110.11,100.96,0
109,110.08,101.04,0
109,110.06,101.12,0
109,110.04,101.20,0
108,110.00,101.27,0
109,109.98,101.35,0
109,109.96,101.42,0
109,109.94,101.50,0
109,109.92,101.57,0
109,109.90,101.65,0
109,109.89,101.72,0
109,109.87,101.79,0
109,109.85,101.87,0
111,109.87,101.96,0
109,109.86,102.03,0
108,109.82,102.09,0
109,109.80,102.16,0
109,109.79,102.23,0
108,109.75,102.28,0
109,109.74,102.35,0
108,109.70,102.41,0
107,109.65,102.45,0
108,109.61,102.51,0
107,109.56,102.55,0
108,109.53,102.61,0
108,109.50,102.66,0
107,109.45,102.71,0
105,109.36,102.73,0
107,109.31,102.77,0
107,109.27,102.81,0
108,109.24,102.86,0
105,109.16,102.89,0
106,109.09,102.92,0
105,109.01,102.94,0
108,108.99,102.99,0
106,108.93,103.02,0
106,108.87,103.05,0
105,108.80,103.07,0
105,108.72,103.09,0
105,108.65,103.11,0
105,108.57,103.13,0
106,108.52,103.15,0
105,108.45,103.17,0
108,108.44,103.22,0
105,108.37,103.24,0
105,108.31,103.26,0
104,108.22,103.26,0
105,108.16,103.28,0
105,108.09,103.30,0
104,108.01,103.31,0
105,107.95,103.32,0
105,107.89,103.34,0
104,107.81,103.35,0
103,107.72,103.34,0
104,107.64,103.35,0
103,107.55,103.35,0
104,107.48,103.35,0
103,107.39,103.35,0
103,107.30,103.35,0
100,107.16,103.31,0
103,107.07,103.31,0
103,106.99,103.31,0
104,106.93,103.31,0
103,106.85,103.31,0
103,106.78,103.31,0
103,106.70,103.30,0
102,106.61,103.29,0
102,106.51,103.28,0
103,106.44,103.27,0
103,106.37,103.27,0
103,106.31,103.27,0
101,106.20,103.25,0
102,106.12,103.23,0
102,106.03,103.22,0
102,105.95,103.21,0
101,105.86,103.19,0
101,105.76,103.17,0
101,105.66,103.14,0
101,105.57,103.12,0
101,105.48,103.10,0
101,105.39,103.08,0
101,105.30,103.06,0
101,105.21,103.04,0
101,105.13,103.02,0
99,105.01,102.98,0
99,104.89,102.94,0
100,104.79,102.91,0
101,104.71,102.89,0
99,104.60,102.85,0
101,104.53,102.83,0
99,104.42,102.79,0
100,104.33,102.77,0
99,104.22,102.73,0
98,104.10,102.68,0
98,103.98,102.63,0
98,103.86,102.59,0
98,103.74,102.54,0
101,103.68,102.53,0
99,103.59,102.49,0
99,103.50,102.46,0
98,103.39,102.41,0
98,103.28,102.37,0
100,103.22,102.34,0
97,103.09,102.29,0
98,102.99,102.25,0
98,102.89,102.21,0
98,102.79,102.16,0
98,102.70,102.12,0
96,102.56,102.06,0
97,102.45,102.01,0
97,102.34,101.96,0
96,102.22,101.90,0
97,102.11,101.85,0
98,102.03,101.81,0
96,101.91,101.75,0
98,101.83,101.72,0
96,101.71,101.66,0
96,101.60,101.60,0
96,101.49,101.55,0
97,101.40,101.50,0
96,101.29,101.45,0
95,101.16,101.38,0
97,101.08,101.34,0
95,100.96,101.28,0
95,100.84,101.21,0
96,100.74,101.16,0
95,100.63,101.10,0
96,100.54,101.05,0
95,100.42,100.99,0
94,100.30,100.92,0
95,100.19,100.86,0
96,100.11,100.81,0
95,100.00,100.75,0
95,99.90,100.69,0
96,99.83,100.65,0
95,99.73,100.59,0
94,99.61,100.52,0
95,99.52,100.47,0
93,99.39,100.39,0
95,99.30,100.34,0
93,99.18,100.27,0
93,99.05,100.19,0
93,98.93,100.12,0
94,98.83,100.06,0
93,98.72,99.99,0
94,98.62,99.93,0
94,98.53,99.87,0
94,98.44,99.81,0
92,98.31,99.73,0
92,98.19,99.66,0
92,98.06,99.58,0
94,97.98,99.53,0
93,97.88,99.46,0
93,97.78,99.40,0
93,97.69,99.33,0
92,97.57,99.26,0
93,97.48,99.20,0
94,97.41,99.14,0
92,97.30,99.07,0
93,97.22,99.01,0
93,97.13,98.95,0
92,97.03,98.88,0
92,96.93,98.81,0
92,96.83,98.74,0
91,96.72,98.67,0
92,96.62,98.60,0
92,96.53,98.53,0
91,96.42,98.46,0
91,96.31,98.38,0
90,96.18,98.30,0
92,96.10,98.24,0
90,95.98,98.16,0
93,95.92,98.10,0
92,95.84,98.04,0
90,95.72,97.96,0
91,95.63,97.89,0
91,95.54,97.82,0
92,95.47,97.77,0
92,95.40,97.71,0
91,95.31,97.64,0
91,95.22,97.57,0
91,95.14,97.51,0
90,95.04,97.43,0
91,94.95,97.37,0
91,94.88,97.31,0
90,94.78,97.23,0
90,94.68,97.16,0
90,94.59,97.09,0
91,94.52,97.03,0
90,94.43,96.96,0
90,94.34,96.89,0
90,94.25,96.82,0
91,94.19,96.76,0
90,94.10,96.69,0
90,94.02,96.63,0
90,93.94,96.56,0
92,93.90,96.51,0
89,93.80,96.44,0
89,93.71,96.36,0
90,93.63,96.30,0
89,93.54,96.23,0
90,93.47,96.17,0
90,93.40,96.10,0
88,93.29,96.02,0
90,93.23,95.96,0
89,93.14,95.89,0
89,93.06,95.82,0
88,92.96,95.75,0
89,92.88,95.68,0
88,92.78,95.60,0
88,92.69,95.53,0
88,92.59,95.45,0
89,92.52,95.39,0
88,92.43,95.31,0
88,92.34,95.24,0
88,92.25,95.17,0
88,92.17,95.10,0
88,92.09,95.02,0
88,92.00,94.95,0
88,91.92,94.88,0
88,91.85,94.82,0
88,91.77,94.75,0
88,91.69,94.68,0
87,91.60,94.60,0
87,91.51,94.53,0
90,91.48,94.48,0
87,91.39,94.41,0
88,91.32,94.34,0
87,91.23,94.27,0
88,91.17,94.21,0
86,91.07,94.12,0
87,90.98,94.05,0
86,90.88,93.97,0
86,90.79,93.89,0
86,90.69,93.81,0
87,90.62,93.75,0
87,90.54,93.68,0
86,90.45,93.60,0
86,90.36,93.53,0
86,90.28,93.45,0
86,90.19,93.38,0
83,90.05,93.27,0
86,89.97,93.20,0
86,89.89,93.13,0
87,89.83,93.07,0
86,89.75,93.00,0
85,89.66,92.92,0
86,89.59,92.85,0
86,89.51,92.78,0
86,89.44,92.71,0
87,89.39,92.65,0
85,89.31,92.58,0
84,89.20,92.49,0
84,89.10,92.41,0
86,89.03,92.34,0
85,88.95,92.27,0
84,88.85,92.19,0
86,88.80,92.12,0
86,88.74,92.06,0
85,88.67,91.99,0
85,88.59,91.92,0
85,88.52,91.85,0
84,88.43,91.77,0
84,88.34,91.70,0
86,88.30,91.64,0
85,88.23,91.57,0
84,88.15,91.50,0
85,88.08,91.43,0
84,88.00,91.36,0
84,87.92,91.28,0
84,87.84,91.21,0
84,87.77,91.14,0
86,87.73,91.09,0
85,87.68,91.03,0
84,87.60,90.96,0
84,87.53,90.89,0
84,87.46,90.82,0
84,87.39,90.75,0
84,87.32,90.68,0
83,87.24,90.61,0
84,87.17,90.54,0
86,87.15,90.49,0
82,87.04,90.41,0
83,86.96,90.34,0
83,86.88,90.26,0
84,86.83,90.20,0
83,86.75,90.13,0
83,86.68,90.06,0
84,86.62,90.00,0
83,86.55,89.93,0
82,86.46,89.85,0
82,86.37,89.77,0
81,86.26,89.68,0
82,86.18,89.60,0
82,86.09,89.53,0
82,86.01,89.45,0
81,85.91,89.37,0
82,85.83,89.29,0
82,85.76,89.22,0
82,85.68,89.15,0
82,85.61,89.08,0
82,85.54,89.01,0
82,85.46,88.94,0
82,85.40,88.87,0
81,85.31,88.79,0
81,85.22,88.71,0
82,85.16,88.64,0
82,85.09,88.58,0
82,85.03,88.51,0
81,84.95,88.44,0
80,84.85,88.35,0
81,84.78,88.28,0
81,84.70,88.21,0
81,84.63,88.13,0
80,84.53,88.05,0
82,84.48,87.99,0
81,84.41,87.92,0
80,84.32,87.84,0
80,84.24,87.76,0
80,84.15,87.69,0
80,84.07,87.61,0
80,83.99,87.53,0
80,83.91,87.46,0
79,83.81,87.37,0
80,83.73,87.30,0
80,83.66,87.23,0
80,83.59,87.15,0
78,83.48,87.06,0
80,83.41,86.99,0
79,83.32,86.91,0
79,83.23,86.83,0
79,83.15,86.76,0
77,83.02,86.66,0
78,82.92,86.57,0
79,82.84,86.50,0
78,82.75,86.41,0
79,82.67,86.34,0
78,82.58,86.25,0
79,82.51,86.18,0
79,82.44,86.11,0
79,82.37,86.04,0
82,82.36,86.00,0
78,82.27,85.92,0
79,82.21,85.85,0
78,82.12,85.77,0
78,82.04,85.69,0
78,81.96,85.61,0
79,81.90,85.55,0
78,81.82,85.47,0
78,81.75,85.40,0
78,81.67,85.32,0
79,81.62,85.26,0
78,81.55,85.19,0
79,81.50,85.13,0
79,81.45,85.07,0
78,81.38,84.99,0
77,81.29,84.91,0
79,81.24,84.86,0
79,81.20,84.80,0
79,81.15,84.74,0
82,81.17,84.71,0
79,81.13,84.65,0
78,81.07,84.59,0
79,81.02,84.53,0
80,81.00,84.49,0
79,80.96,84.43,0
79,80.92,84.38,0
78,80.87,84.31,0
79,80.83,84.26,0
79,80.79,84.21,0
78,80.74,84.15,0
78,80.68,84.08,0
79,80.65,84.03,0
80,80.64,83.99,0
78,80.58,83.93,0
78,80.53,83.87,0
77,80.46,83.81,0
78,80.41,83.75,0
78,80.36,83.69,0
78,80.32,83.63,0
77,80.25,83.57,0
78,80.20,83.51,0
78,80.16,83.46,0
78,80.12,83.40,0
77,80.05,83.34,0
77,79.99,83.27,0
78,79.95,83.22,0
78,79.91,83.17,0
77,79.86,83.11,0
79,79.84,83.07,0
78,79.80,83.02,0
77,79.75,82.96,0
77,79.69,82.90,0
78,79.66,82.85,0
78,79.62,82.80,0
78,79.59,82.75,0
78,79.56,82.70,0
77,79.51,82.65,0
77,79.46,82.59,0
77,79.41,82.53,0
77,79.36,82.48,0
76,79.29,82.41,0
76,79.23,82.35,0
76,79.16,82.29,0
77,79.12,82.23,0
76,79.06,82.17,0
76,79.00,82.11,0
76,78.94,82.05,0
76,78.88,81.99,0
76,78.82,81.93,0
76,78.76,81.87,0
78,78.75,81.83,0
77,78.71,81.78,0
75,78.64,81.71,0
74,78.55,81.64,0
76,78.50,81.58,0
75,78.43,81.51,0
75,78.36,81.45,0
76,78.31,81.39,0
76,78.26,81.34,0
75,78.20,81.28,0
75,78.13,81.21,0
76,78.09,81.16,0
76,78.05,81.11,0
75,77.99,81.05,0
74,77.91,80.98,0
74,77.83,80.91,0
75,77.77,80.85,0
76,77.74,80.80,0
74,77.66,80.73,0
74,77.59,80.67,0
74,77.52,80.60,0
74,77.45,80.53,0
74,77.38,80.47,0
74,77.31,80.40,0
74,77.25,80.34,0
74,77.18,80.28,0
78,77.20,80.25,0
74,77.13,80.19,0
75,77.09,80.14,0
76,77.07,80.10,0
76,77.05,80.06,0
73,76.97,79.99,0
74,76.91,79.93,0
74,76.85,79.87,0
74,76.79,79.81,0
74,76.74,79.75,0
76,76.72,79.71,0
74,76.67,79.66,0
77,76.67,79.63,0
74,76.62,79.57,0
74,76.57,79.52,0
74,76.52,79.46,0
74,76.47,79.41,0
73,76.40,79.34,0
77,76.41,79.32,0
74,76.36,79.27,0
74,76.31,79.21,0
74,76.27,79.16,0
73,76.20,79.10,0
73,76.14,79.04,0
74,76.10,78.99,0
73,76.03,78.93,0
71,75.93,78.85,0
73,75.87,78.79,0
73,75.82,78.73,0
72,75.74,78.67,0
72,75.67,78.60,0
72,75.59,78.53,0
73,75.54,78.48,0
72,75.47,78.41,0
72,75.40,78.35,0
74,75.37,78.31,0
72,75.30,78.24,0
72,75.24,78.18,0
72,75.17,78.12,0
72,75.11,78.06,0
72,75.05,78.00,0
72,74.99,77.94,0
72,74.93,77.88,0
73,74.89,77.83,0
72,74.83,77.77,0
72,74.77,77.71,0
73,74.74,77.67,0
73,74.70,77.62,0
71,74.63,77.55,0
72,74.58,77.50,0
72,74.53,77.44,0
72,74.48,77.39,0
71,74.41,77.32,0
71,74.34,77.26,0
70,74.25,77.19,0
72,74.21,77.14,0
70,74.12,77.06,0
70,74.04,76.99,0
71,73.98,76.93,0
71,73.92,76.87,0
70,73.84,76.81,0
70,73.76,76.74,0
72,73.73,76.69,0
71,73.67,76.63,0
70,73.60,76.57,0
70,73.53,76.50,0
70,73.46,76.44,0
70,73.39,76.37,0
70,73.32,76.31,0
70,73.25,76.25,0
70,73.19,76.18,0
70,73.13,76.12,0
70,73.06,76.06,0
70,73.00,76.00,0
70,72.94,75.94,0
70,72.88,75.88,0
70,72.83,75.82,0
70,72.77,75.76,0
70,72.71,75.71,0
71,72.68,75.66,0
70,72.63,75.60,0
71,72.59,75.56,0
70,72.54,75.50,0
70,72.49,75.44,0
70,72.44,75.39,0
70,72.39,75.34,0
69,72.32,75.27,0
70,72.28,75.22,0
70,72.23,75.17,0
70,72.19,75.12,0
69,72.12,75.06,0
70,72.08,75.00,0
70,72.04,74.95,0
70,72.00,74.91,0
69,71.94,74.85,0
70,71.90,74.80,0
69,71.84,74.74,0
70,71.81,74.69,0
69,71.75,74.64,0
70,71.71,74.59,0
69,71.66,74.53,0
70,71.63,74.49,0
70,71.59,74.44,0
71,71.58,74.41,0
69,71.53,74.35,0
69,71.48,74.30,0
70,71.45,74.26,0
71,71.44,74.23,0
69,71.39,74.17,0
70,71.36,74.13,0
70,71.34,74.09,0
69,71.29,74.04,0
72,71.30,74.02,0
69,71.26,73.97,0
70,71.23,73.93,0
72,71.25,73.91,0
69,71.20,73.86,0
70,71.18,73.82,0
70,71.16,73.78,0
69,71.11,73.74,0
70,71.09,73.70,0
70,71.07,73.66,0
70,71.05,73.62,0
71,71.05,73.60,0
71,71.05,73.57,0
70,71.02,73.54,0
70,71.00,73.50,0
69,70.96,73.46,0
70,70.95,73.42,0
69,70.91,73.38,0
70,70.89,73.34,0
70,70.87,73.31,0
70,70.85,73.28,0
67,70.78,73.21,0
70,70.76,73.18,0
69,70.73,73.14,0
70,70.71,73.11,0
70,70.70,73.08,0
70,70.68,73.05,0
70,70.67,73.02,0
70,70.66,72.99,0
70,70.64,72.96,0
70,70.63,72.93,0
69,70.60,72.89,0
69,70.56,72.85,0
70,70.55,72.82,0
69,70.52,72.78,0
69,70.49,72.74,0
69,70.46,72.71,0
66,70.37,72.64,0
69,70.35,72.60,0
70,70.34,72.58,0
70,70.33,72.55,0
70,70.33,72.53,0
70,70.32,72.50,0
69,70.29,72.47,0
68,70.25,72.42,0
68,70.20,72.38,0
68,70.16,72.33,0
70,70.15,72.31,0
69,70.13,72.28,0
70,70.13,72.25,0
70,70.13,72.23,0
68,70.08,72.19,0
70,70.08,72.17,0
68,70.04,72.13,0
68,70.00,72.08,0
70,70.00,72.06,0
70,70.00,72.04,0
70,70.00,72.02,0
70,70.00,72.00,0
69,69.98,71.97,0
68,69.94,71.93,0
69,69.92,71.90,0
69,69.90,71.87,0
70,69.90,71.86,0
68,69.87,71.82,0
68,69.83,71.78,0
68,69.79,71.74,0
69,69.78,71.71,0
68,69.74,71.68,0
68,69.71,71.64,0
69,69.69,71.61,0
70,69.70,71.60,0
69,69.68,71.57,0
68,69.65,71.54,0
68,69.62,71.50,0
69,69.61,71.48,0
71,69.63,71.47,0
68,69.60,71.44,0
68,69.57,71.40,0
70,69.58,71.39,0
68,69.55,71.35,0
68,69.51,71.32,0
68,69.48,71.29,0
68,69.45,71.25,0
68,69.43,71.22,0
68,69.40,71.19,0
67,69.35,71.15,0
68,69.32,71.12,0
67,69.28,71.07,0
68,69.25,71.04,0
68,69.23,71.01,0
68,69.20,70.98,0
68,69.18,70.95,0
68,69.15,70.92,0
67,69.11,70.88,0
68,69.09,70.86,0
68,69.07,70.83,0
67,69.02,70.79,0
68,69.00,70.76,0
70,69.02,70.75,0
67,68.98,70.72,0
66,68.92,70.67,0
69,68.93,70.65,0
68,68.91,70.63,0
67,68.87,70.59,0
66,68.81,70.54,0
66,68.76,70.50,0
68,68.74,70.47,0
68,68.73,70.45,0
67,68.69,70.41,0
66,68.64,70.37,0
67,68.60,70.34,0
67,68.57,70.30,0
66,68.52,70.26,0
66,68.47,70.22,0
67,68.44,70.18,0
67,68.41,70.15,0
66,68.36,70.11,0
66,68.32,70.07,0
67,68.29,70.04,0
68,68.28,70.02,0
66,68.24,69.98,0
66,68.19,69.94,0
68,68.19,69.92,0
67,68.17,69.89,0
66,68.12,69.85,0
66,68.08,69.81,0
68,68.08,69.80,0
67,68.06,69.77,0
66,68.02,69.73,0
69,68.04,69.72,0
69,68.06,69.72,0
67,68.03,69.69,0
66,67.99,69.65,0
68,67.99,69.63,0
67,67.97,69.61,0
68,67.97,69.59,0
66,67.93,69.56,0
66,67.90,69.52,0
66,67.86,69.49,0
66,67.82,69.45,0
66,67.78,69.42,0
68,67.79,69.40,0
67,67.77,69.38,0
63,67.68,69.31,0
68,67.68,69.30,0
68,67.69,69.29,0
67,67.68,69.27,0
68,67.68,69.25,0
68,67.69,69.24,0
68,67.70,69.23,0
68,67.70,69.22,0
67,67.69,69.19,0
68,67.69,69.18,0
68,67.70,69.17,0
67,67.69,69.15,0
70,67.73,69.16,0
68,67.74,69.14,0
66,67.70,69.11,0
68,67.71,69.10,0
68,67.71,69.09,0
66,67.68,69.06,0
67,67.67,69.04,0
68,67.67,69.03,0
66,67.64,69.00,0
66,67.61,68.97,0
66,67.58,68.94,0
66,67.54,68.91,0
67,67.53,68.89,0
66,67.50,68.86,0
67,67.49,68.84,0
65,67.44,68.80,0
65,67.39,68.77,0
66,67.37,68.74,0
67,67.36,68.72,0
66,67.33,68.69,0
69,67.36,68.70,0
66,67.34,68.67,0
66,67.31,68.64,0
65,67.26,68.61,0
66,67.24,68.58,0
66,67.21,68.56,0
66,67.19,68.53,0
65,67.15,68.49,0
66,67.12,68.47,0
66,67.10,68.44,0
66,67.08,68.42,0
66,67.06,68.40,0
67,67.06,68.38,0
66,67.03,68.36,0
66,67.01,68.33,0
65,66.97,68.30,0
66,66.95,68.28,0
66,66.94,68.26,0
66,66.92,68.23,0
66,66.90,68.21,0
66,66.88,68.19,0
66,66.86,68.17,0
66,66.85,68.15,0
66,66.83,68.12,0
67,66.83,68.11,0
66,66.82,68.09,0
66,66.80,68.07,0
66,66.78,68.05,0
66,66.77,68.03,0
66,66.75,68.01,0
66,66.74,67.99,0
66,66.72,67.97,0
66,66.71,67.95,0
66,66.69,67.93,0
66,66.68,67.91,0
66,66.67,67.89,0
66,66.65,67.87,0
66,66.64,67.85,0
66,66.63,67.84,0
66,66.61,67.82,0
66,66.60,67.80,0
66,66.59,67.78,0
66,66.58,67.76,0
66,66.57,67.75,0
66,66.56,67.73,0
66,66.54,67.71,0
66,66.53,67.69,0
66,66.52,67.68,0
66,66.51,67.66,0
66,66.50,67.64,0
66,66.49,67.63,0
65,66.46,67.60,0
66,66.45,67.58,0
66,66.44,67.57,0
65,66.42,67.54,0
66,66.41,67.53,0
66,66.40,67.51,0
66,66.39,67.50,0
66,66.38,67.48,0
66,66.38,67.47,0
66,66.37,67.45,0
66,66.36,67.44,0
66,66.35,67.42,0
66,66.35,67.41,0
66,66.34,67.40,0
66,66.33,67.38,0
66,66.33,67.37,0
66,66.32,67.35,0
66,66.31,67.34,0
65,66.29,67.32,0
66,66.28,67.30,0
66,66.28,67.29,0
68,66.31,67.30,0
68,66.34,67.31,0
67,66.36,67.30,0
70,66.43,67.33,0
68,66.46,67.34,0
66,66.45,67.32,0
68,66.48,67.33,0
67,66.49,67.33,0
68,66.52,67.33,0
68,66.55,67.34,0
67,66.56,67.34,0
69,66.61,67.35,0
69,66.66,67.37,0
68,66.69,67.38,0
68,66.71,67.38,0
68,66.74,67.39,0
68,66.76,67.39,0
66,66.75,67.38,0
67,66.75,67.38,0
65,66.72,67.35,0
68,66.74,67.36,0
68,66.77,67.37,0
68,66.79,67.37,0
67,66.80,67.37,0
68,66.82,67.37,0
68,66.84,67.38,0
68,66.87,67.39,0
68,66.89,67.39,0
69,66.93,67.41,0
68,66.95,67.41,0
69,66.99,67.43,0
69,67.03,67.45,0
69,67.07,67.46,0
69,67.11,67.48,0
68,67.13,67.48,0
70,67.19,67.51,0
69,67.22,67.52,0
69,67.26,67.54,0
67,67.25,67.53,0
71,67.33,67.57,0
70,67.38,67.59,0
70,67.43,67.62,0
70,67.49,67.64,0
71,67.56,67.67,0
70,67.61,67.70,0
70,67.65,67.72,0
70,67.70,67.74,0
70,67.75,67.76,0
70,67.79,67.79,0
70,67.84,67.81,0
70,67.88,67.83,0
70,67.92,67.85,0
70,67.96,67.87,0
70,68.00,67.90,0
70,68.04,67.92,0
70,68.08,67.94,0
69,68.10,67.95,0
70,68.14,67.97,0
70,68.18,67.99,0
70,68.21,68.01,0
70,68.25,68.03,0
70,68.28,68.05,0
70,68.32,68.07,0
70,68.35,68.09,0
70,68.38,68.11,0
70,68.42,68.13,0
70,68.45,68.14,0
70,68.48,68.16,0
73,68.57,68.21,0
72,68.64,68.25,0
74,68.75,68.31,0
75,68.87,68.37,0
74,68.97,68.43,0
74,69.07,68.49,0
74,69.17,68.54,0
75,69.29,68.60,0
76,69.42,68.68,0
76,69.55,68.75,0
76,69.68,68.82,0
77,69.83,68.91,0
76,69.95,68.98,0
76,70.07,69.05,0
76,70.19,69.12,0
76,70.31,69.19,0
76,70.42,69.25,0
78,70.57,69.34,0
79,70.74,69.44,0
78,70.89,69.52,0
78,71.03,69.61,0
79,71.19,69.70,0
79,71.35,69.80,0
82,71.56,69.92,0
80,71.73,70.02,0
79,71.87,70.11,0
81,72.06,70.22,0
80,72.21,70.31,0
80,72.37,70.41,0
80,72.52,70.51,0
82,72.71,70.62,0
80,72.86,70.72,0
80,73.00,70.81,0
82,73.18,70.92,0
80,73.32,71.01,0
80,73.45,71.10,0
82,73.62,71.21,0
80,73.75,71.30,0
81,73.89,71.40,0
82,74.06,71.50,0
81,74.20,71.60,0
81,74.33,71.69,0
82,74.49,71.79,0
82,74.64,71.90,0
82,74.78,72.00,0
81,74.91,72.09,0
83,75.07,72.20,0
83,75.23,72.30,0
84,75.40,72.42,0
83,75.55,72.53,0
83,75.70,72.63,0
83,75.85,72.74,0
83,75.99,72.84,0
84,76.15,72.95,0
86,76.35,73.08,0
85,76.52,73.20,0
88,76.75,73.35,0
86,76.94,73.47,0
86,77.12,73.60,0
88,77.34,73.74,0
88,77.55,73.89,0
88,77.76,74.03,0
88,77.96,74.17,0
88,78.16,74.30,0
88,78.36,74.44,0
88,78.55,74.58,0
88,78.74,74.71,0
89,78.95,74.85,0
90,79.17,75.01,0
90,79.39,75.16,0
90,79.60,75.30,0
89,79.79,75.44,0
91,80.01,75.60,0
92,80.25,75.76,0
92,80.48,75.92,0
94,80.76,76.10,0
95,81.04,76.29,0
96,81.34,76.49,0
96,81.63,76.69,0
95,81.90,76.87,0
97,82.20,77.07,0
98,82.52,77.28,0
97,82.81,77.48,0
95,83.05,77.65,0
98,83.35,77.85,0
98,83.64,78.06,0
98,83.93,78.26,0
100,84.25,78.47,0
100,84.57,78.69,0
100,84.88,78.90,0
101,85.20,79.12,0
104,85.57,79.37,0
103,85.92,79.61,0
104,86.28,79.85,0
106,86.68,80.11,0
102,86.98,80.33,0
106,87.37,80.59,0
105,87.72,80.83,0
105,88.06,81.07,0
105,88.40,81.31,0
108,88.79,81.58,0
107,89.16,81.83,0
108,89.54,82.10,0
109,89.92,82.37,0
108,90.29,82.62,0
108,90.64,82.88,0
108,90.99,83.13,0
109,91.35,83.39,0
111,91.74,83.66,0
110,92.11,83.92,0
110,92.46,84.19,0
111,92.83,84.45,0
111,93.20,84.72,0
111,93.55,84.98,0
111,93.90,85.24,0
112,94.26,85.51,0
113,94.64,85.78,0
113,95.01,86.06,0
114,95.39,86.34,0
114,95.76,86.61,0
115,96.14,86.90,0
113,96.48,87.16,0
113,96.81,87.42,0
115,97.17,87.69,0
116,97.55,87.98,0
115,97.90,88.25,0
115,98.24,88.51,0
116,98.60,88.79,0
115,98.93,89.05,0
117,99.29,89.33,0
116,99.62,89.60,0
115,99.93,89.85,0
117,100.27,90.12,0
116,100.58,90.38,0
117,100.91,90.65,0
119,101.27,90.93,0
118,101.61,91.20,0
119,101.96,91.48,0
119,102.30,91.75,0
119,102.63,92.03,0
121,103.00,92.32,0
121,103.36,92.60,0
122,103.73,92.90,0
122,104.10,93.19,0
121,104.44,93.47,0
124,104.83,93.77,0
122,105.17,94.05,0
122,105.51,94.33,0
121,105.82,94.60,0
121,106.12,94.86,0
122,106.44,95.14,0
122,106.75,95.40,0
122,107.05,95.67,0
122,107.35,95.93,0
122,107.65,96.19,0
122,107.93,96.45,0
122,108.21,96.71,0
121,108.47,96.95,0
124,108.78,97.22,0
121,109.03,97.46,0
123,109.30,97.71,0
123,109.58,97.97,0
124,109.87,98.23,0
123,110.13,98.48,0
122,110.37,98.71,0
122,110.60,98.94,0
122,110.83,99.17,0
123,111.07,99.41,0
122,111.29,99.64,0
122,111.50,99.86,0
122,111.71,100.08,0
123,111.94,100.31,0
122,112.14,100.53,0
123,112.36,100.75,0
123,112.57,100.98,0
123,112.78,101.20,0
122,112.96,101.40,0
123,113.16,101.62,0
123,113.36,101.83,0
125,113.59,102.07,0
125,113.82,102.30,0
125,114.05,102.52,0
125,114.26,102.75,0
125,114.48,102.97,0
125,114.69,103.19,0
126,114.92,103.42,0
125,115.12,103.63,0
125,115.32,103.85,0
125,115.51,104.06,0
125,115.70,104.27,0
125,115.89,104.48,0
125,116.07,104.68,0
123,116.21,104.86,0
125,116.38,105.07,0
125,116.55,105.26,0
125,116.72,105.46,0
125,116.89,105.66,0
125,117.05,105.85,0
124,117.19,106.03,0
125,117.35,106.22,0
125,117.50,106.41,0
124,117.63,106.59,0
124,117.76,106.76,0
124,117.88,106.93,0
123,117.98,107.09,0
124,118.10,107.26,0
124,118.22,107.43,0
123,118.32,107.59,0
123,118.41,107.74,0
124,118.52,107.90,0
124,118.63,108.06,0
124,118.74,108.22,0
123,118.83,108.37,0
123,118.91,108.52,0
123,118.99,108.66,0
121,119.03,108.78,0
122,119.09,108.92,0
123,119.17,109.06,0
121,119.20,109.18,0
121,119.24,109.30,0
121,119.28,109.41,0
121,119.31,109.53,0
121,119.34,109.64,0
121,119.38,109.76,0
121,119.41,109.87,0
121,119.44,109.98,0
121,119.47,110.09,0
121,119.50,110.20,0
121,119.53,110.31,0
123,119.60,110.43,0
122,119.65,110.55,0
126,119.78,110.70,0
123,119.84,110.83,0
122,119.89,110.94,0
123,119.95,111.06,0
121,119.97,111.16,0
121,119.99,111.26,0
121,120.01,111.36,0
121,120.03,111.45,0
121,120.05,111.55,0
121,120.07,111.64,0
121,120.09,111.74,0
121,120.10,111.83,0
122,120.14,111.93,0
121,120.16,112.02,0
121,120.18,112.11,0
121,120.19,112.20,0
120,120.19,112.28,0
120,120.19,112.35,0
121,120.20,112.44,0
120,120.20,112.52,0
120,120.19,112.59,0
119,120.17,112.66,0
119,120.15,112.72,0
120,120.14,112.79,0
121,120.16,112.87,0
119,120.14,112.93,0
119,120.11,113.00,0
119,120.09,113.06,0
119,120.07,113.12,0
120,120.07,113.18,0
119,120.05,113.24,0
119,120.03,113.30,0
119,120.01,113.36,0
119,119.99,113.41,0
118,119.95,113.46,0
117,119.89,113.49,0
117,119.83,113.53,0
117,119.77,113.56,0
117,119.72,113.60,0
118,119.68,113.64,0
117,119.63,113.68,0
118,119.60,113.72,0
117,119.55,113.75,0
117,119.49,113.78,0
117,119.44,113.82,0
117,119.40,113.85,0
117,119.35,113.88,0
116,119.28,113.90,0
117,119.23,113.93,0
117,119.19,113.96,0
117,119.15,113.99,0
116,119.08,114.01,0
117,119.04,114.04,0
116,118.98,114.06,0
116,118.92,114.08,0
116,118.86,114.10,0
116,118.81,114.12,0
115,118.73,114.13,0
116,118.67,114.15,0
115,118.60,114.16,0
116,118.55,114.17,0
115,118.48,114.18,0
116,118.43,114.20,0
115,118.36,114.21,0
114,118.27,114.21,0
113,118.17,114.20,0
114,118.08,114.19,0
113,117.98,114.18,0
113,117.88,114.17,0
113,117.79,114.16,0
113,117.69,114.15,0
113,117.60,114.13,0
113,117.50,114.12,0
114,117.43,114.12,0
113,117.35,114.11,0
113,117.26,114.10,0
112,117.15,114.08,0
112,117.05,114.06,0
112,116.95,114.04,0
112,116.85,114.02,0
112,116.75,114.00,0
111,116.64,113.97,0
111,116.53,113.94,0
111,116.41,113.91,0
111,116.31,113.88,0
111,116.20,113.85,0
111,116.10,113.82,0
111,115.99,113.79,0
111,115.89,113.77,0
110,115.78,113.73,0
112,115.70,113.71,0
109,115.57,113.66,0
111,115.48,113.64,0
109,115.35,113.59,0
110,115.24,113.55,0
110,115.13,113.52,0
109,115.01,113.47,0
109,114.89,113.43,0
109,114.77,113.38,0
109,114.66,113.34,0
109,114.55,113.30,0
109,114.43,113.25,0
109,114.33,113.21,0
109,114.22,113.17,0
108,114.09,113.12,0
109,113.99,113.08,0
107,113.85,113.02,0
109,113.76,112.98,0
109,113.66,112.94,0
108,113.55,112.89,0
105,113.38,112.81,0
107,113.25,112.75,0
108,113.14,112.70,0
108,113.04,112.66,0
107,112.92,112.60,0
108,112.82,112.55,0
108,112.73,112.51,0
107,112.61,112.45,0
108,112.52,112.41,0
107,112.41,112.35,0
107,112.30,112.30,0
106,112.17,112.24,0
108,112.09,112.19,0
107,111.99,112.14,0
105,111.85,112.07,0
105,111.71,112.00,0
106,111.60,111.94,0
106,111.49,111.88,0
107,111.40,111.83,0
106,111.29,111.77,0
105,111.16,111.71,0
105,111.04,111.64,0
105,110.92,111.57,0
105,110.80,111.51,0
105,110.68,111.44,0
105,110.57,111.38,0
105,110.46,111.31,0
105,110.35,111.25,0
105,110.24,111.19,0
105,110.14,111.13,0
105,110.04,111.07,0
105,109.93,111.00,0
104,109.82,110.93,0
104,109.70,110.87,0
104,109.59,110.80,0
105,109.49,110.74,0
103,109.36,110.66,0
103,109.24,110.58,0
103,109.11,110.51,0
106,109.05,110.46,0
104,108.95,110.40,0
103,108.83,110.32,0
103,108.71,110.25,0
102,108.58,110.17,0
103,108.47,110.10,0
102,108.34,110.02,0
102,108.21,109.94,0
101,108.07,109.85,0
102,107.95,109.77,0
102,107.83,109.69,0
103,107.73,109.62,0
101,107.60,109.54,0
103,107.50,109.47,0
101,107.37,109.39,0
101,107.25,109.30,0
100,107.10,109.21,0
101,106.98,109.13,0
102,106.88,109.06,0
101,106.76,108.98,0
101,106.65,108.90,0
100,106.51,108.81,0
100,106.38,108.72,0
99,106.24,108.62,0
100,106.11,108.54,0
100,105.99,108.45,0
99,105.85,108.36,0
99,105.71,108.26,0
98,105.56,108.16,0
98,105.41,108.06,0
97,105.24,107.95,0
98,105.09,107.85,0
98,104.95,107.75,0
98,104.81,107.65,0
98,104.68,107.56,0
98,104.54,107.46,0
98,104.41,107.37,0
99,104.30,107.28,0
98,104.18,107.19,0
98,104.05,107.10,0
97,103.91,107.00,0
98,103.80,106.91,0
98,103.68,106.82,0
97,103.55,106.72,0
97,103.41,106.62,0
96,103.27,106.52,0
96,103.12,106.41,0
97,103.00,106.32,0
97,102.88,106.22,0
96,102.74,106.12,0
97,102.63,106.03,0
96,102.49,105.93,0
95,102.34,105.82,0
95,102.20,105.71,0
95,102.05,105.61,0
96,101.93,105.51,0
95,101.79,105.40,0
96,101.68,105.31,0
96,101.56,105.22,0
94,101.41,105.10,0
95,101.28,105.00,0
94,101.14,104.89,0
96,101.04,104.80,0
95,100.92,104.71,0
94,100.78,104.60,0
95,100.66,104.50,0
94,100.53,104.40,0
95,100.42,104.30,0
94,100.29,104.20,0
94,100.16,104.10,0
94,100.04,104.00,0
95,99.94,103.91,0
95,99.84,103.82,0
94,99.72,103.72,0
94,99.61,103.62,0
95,99.52,103.54,0
95,99.43,103.45,0
94,99.32,103.36,0
94,99.21,103.26,0
93,99.09,103.16,0
94,98.99,103.07,0
93,98.87,102.97,0
93,98.75,102.87,0
93,98.63,102.77,0
93,98.52,102.67,0
93,98.41,102.58,0
93,98.30,102.48,0
93,98.20,102.39,0
92,98.07,102.28,0
93,97.97,102.19,0
93,97.87,102.10,0
92,97.75,102.00,0
92,97.64,101.90,0
93,97.55,101.81,0
92,97.44,101.71,0
92,97.33,101.61,0
92,97.22,101.52,0
92,97.12,101.42,0
92,97.01,101.33,0
92,96.91,101.23,0
93,96.84,101.15,0
91,96.72,101.05,0
91,96.60,100.95,0
90,96.47,100.84,0
91,96.36,100.74,0
92,96.28,100.65,0
92,96.19,100.57,0
91,96.09,100.47,0
91,95.98,100.38,0
94,95.94,100.31,0
90,95.83,100.21,0
91,95.73,100.12,0
92,95.65,100.04,0
89,95.52,99.93,0
90,95.41,99.83,0
91,95.32,99.74,0
90,95.22,99.64,0
90,95.11,99.55,0
90,95.01,99.45,0
89,94.89,99.35,0
89,94.77,99.24,0
90,94.68,99.15,0
90,94.58,99.06,0
92,94.53,98.99,0
90,94.44,98.90,0
90,94.35,98.81,0
90,94.26,98.72,0
90,94.18,98.63,0
90,94.10,98.55,0
90,94.01,98.46,0
88,93.89,98.36,0
89,93.80,98.26,0
89,93.70,98.17,0
88,93.59,98.07,0
88,93.47,97.97,0
88,93.36,97.87,0
89,93.28,97.78,0
88,93.17,97.68,0
88,93.07,97.59,0
88,92.97,97.49,0
89,92.89,97.40,0
88,92.79,97.31,0
88,92.69,97.22,0
88,92.60,97.13,0
90,92.55,97.05,0
88,92.46,96.96,0
88,92.37,96.87,0
88,92.28,96.78,0
88,92.20,96.70,0
88,92.11,96.61,0
88,92.03,96.52,0
88,91.95,96.44,0
86,91.83,96.33,0
88,91.75,96.25,0
86,91.64,96.15,0
86,91.53,96.05,0
86,91.41,95.95,0
86,91.31,95.85,0
87,91.22,95.76,0
86,91.12,95.66,0
88,91.05,95.58,0
88,90.99,95.51,0
86,90.89,95.41,0
86,90.79,95.32,0
86,90.70,95.23,0
86,90.60,95.13,0
87,90.53,95.05,0
86,90.44,94.96,0
86,90.35,94.87,0
86,90.27,94.78,0
85,90.16,94.69,0
86,90.08,94.60,0
86,90.00,94.51,0
86,89.92,94.43,0
86,89.84,94.34,0
86,89.76,94.26,0
85,89.67,94.17,0
86,89.59,94.09,0
85,89.50,94.00,0
86,89.43,93.92,0
85,89.34,93.83,0
83,89.22,93.72,0
85,89.13,93.63,0
86,89.07,93.55,0
84,88.97,93.46,0
84,88.87,93.36,0
84,88.77,93.27,0
84,88.67,93.18,0
84,88.58,93.09,0
84,88.49,93.00,0
84,88.40,92.91,0
84,88.31,92.82,0
86,88.27,92.75,0
84,88.18,92.66,0
84,88.10,92.57,0
85,88.03,92.50,0
84,87.95,92.41,0
84,87.88,92.33,0
83,87.78,92.24,0
85,87.72,92.16,0
84,87.65,92.08,0
83,87.55,91.99,0
83,87.46,91.90,0
85,87.41,91.83,0
84,87.35,91.75,0
84,87.28,91.68,0
84,87.21,91.60,0
85,87.17,91.53,0
84,87.11,91.46,0
83,87.02,91.37,0
84,86.96,91.30,0
84,86.90,91.23,0
84,86.85,91.15,0
83,86.77,91.07,0
82,86.67,90.98,0
84,86.62,90.91,0
84,86.57,90.84,0
83,86.50,90.76,0
84,86.45,90.70,0
84,86.40,90.63,0
83,86.33,90.55,0
82,86.24,90.47,0
82,86.16,90.38,0
84,86.12,90.32,0
83,86.05,90.25,0
82,85.97,90.16,0
82,85.89,90.08,0
83,85.83,90.01,0
82,85.76,89.93,0
82,85.68,89.85,0
82,85.61,89.77,0
83,85.56,89.71,0
82,85.49,89.63,0
82,85.42,89.55,0
82,85.35,89.48,0
82,85.28,89.40,0
82,85.22,89.33,0
82,85.15,89.26,0
82,85.09,89.18,0
82,85.03,89.11,0
82,84.97,89.04,0
82,84.91,88.97,0
82,84.85,88.90,0
84,84.83,88.85,0
82,84.77,88.78,0
82,84.72,88.71,0
82,84.66,88.65,0
82,84.61,88.58,0
82,84.56,88.51,0
82,84.51,88.45,0
82,84.46,88.39,0
82,84.41,88.32,0
82,84.36,88.26,0
82,84.31,88.20,0
81,84.25,88.12,0
82,84.20,88.06,0
81,84.14,87.99,0
81,84.08,87.92,0
81,84.01,87.85,0
80,83.93,87.77,0
82,83.89,87.72,0
82,83.86,87.66,0
81,83.80,87.59,0
80,83.72,87.52,0
82,83.69,87.46,0
80,83.62,87.39,0
79,83.52,87.30,0
80,83.45,87.23,0
83,83.44,87.19,0
80,83.37,87.12,0
79,83.29,87.03,0
80,83.22,86.96,0
80,83.16,86.89,0
80,83.09,86.83,0
80,83.03,86.76,0
79,82.95,86.68,0
80,82.89,86.61,0
80,82.83,86.55,0
79,82.76,86.47,0
80,82.70,86.41,0
81,82.67,86.35,0
79,82.60,86.28,0
79,82.52,86.21,0
79,82.45,86.13,0
79,82.38,86.06,0
78,82.30,85.98,0
79,82.23,85.91,0
79,82.17,85.84,0
80,82.12,85.78,0
78,82.04,85.71,0
78,81.96,85.63,0
79,81.90,85.56,0
79,81.84,85.50,0
78,81.77,85.42,0
78,81.69,85.35,0
77,81.60,85.27,0
78,81.52,85.19,0
78,81.45,85.12,0
78,81.38,85.05,0
77,81.30,84.97,0
78,81.23,84.90,0
78,81.17,84.83,0
78,81.10,84.76,0
78,81.04,84.69,0
78,80.98,84.63,0
78,80.92,84.56,0
78,80.86,84.50,0
78,80.80,84.43,0
78,80.75,84.37,0
78,80.69,84.30,0
78,80.64,84.24,0
78,80.59,84.18,0
78,80.54,84.12,0
78,80.48,84.05,0
78,80.43,83.99,0
78,80.39,83.93,0
78,80.34,83.87,0
78,80.29,83.82,0
77,80.23,83.75,0
78,80.18,83.69,0
79,80.16,83.64,0
76,80.07,83.57,0
76,79.99,83.49,0
78,79.95,83.44,0
76,79.87,83.36,0
76,79.80,83.29,0
76,79.72,83.22,0
75,79.63,83.13,0
75,79.53,83.05,0
76,79.46,82.98,0
76,79.39,82.91,0
77,79.35,82.85,0
76,79.28,82.78,0
76,79.21,82.72,0
76,79.15,82.65,0
75,79.07,82.57,0
75,78.98,82.50,0
76,78.93,82.43,0
77,78.89,82.38,0
76,78.83,82.31,0
78,78.81,82.27,0
76,78.76,82.21,0
76,78.70,82.15,0
76,78.65,82.08,0
76,78.59,82.02,0
76,78.54,81.96,0
76,78.49,81.90,0
76,78.44,81.84,0
78,78.43,81.81,0
76,78.38,81.75,0
76,78.34,81.69,0
75,78.27,81.62,0
76,78.22,81.57,0
76,78.18,81.51,0
76,78.14,81.46,0
76,78.09,81.40,0
75,78.03,81.34,0
74,77.95,81.26,0
74,77.87,81.19,0
76,77.83,81.14,0
76,77.80,81.09,0
74,77.72,81.02,0
75,77.67,80.96,0
74,77.59,80.89,0
76,77.56,80.84,0
75,77.51,80.78,0
75,77.46,80.72,0
77,77.45,80.69,0
75,77.40,80.63,0
74,77.33,80.56,0
74,77.27,80.50,0
74,77.20,80.43,0
74,77.14,80.37,0
74,77.08,80.30,0
74,77.01,80.24,0
75,76.97,80.19,0
74,76.91,80.13,0
76,76.90,80.09,0
75,76.86,80.03,0
74,76.80,79.97,0
74,76.74,79.91,0
74,76.69,79.86,0
75,76.66,79.81,0
73,76.58,79.74,0
73,76.51,79.67,0
74,76.46,79.61,0
74,76.41,79.56,0
74,76.36,79.50,0
74,76.32,79.45,0
74,76.27,79.39,0
72,76.18,79.32,0
73,76.12,79.26,0
73,76.06,79.19,0
74,76.02,79.14,0
72,75.94,79.07,0
73,75.88,79.01,0
74,75.84,78.96,0
72,75.76,78.89,0
72,75.69,78.82,0
73,75.63,78.76,0
73,75.58,78.71,0
72,75.51,78.64,0
72,75.44,78.57,0
72,75.37,78.51,0
73,75.32,78.45,0
72,75.26,78.39,0
73,75.21,78.33,0
72,75.15,78.27,0
72,75.09,78.21,0
72,75.02,78.14,0
72,74.96,78.08,0
72,74.90,78.02,0
73,74.87,77.97,0
72,74.81,77.91,0
72,74.75,77.85,0
72,74.70,77.79,0
72,74.64,77.74,0
72,74.59,77.68,0
72,74.54,77.62,0
72,74.49,77.57,0
72,74.44,77.51,0
72,74.39,77.46,0
72,74.34,77.40,0
72,74.29,77.35,0
72,74.25,77.29,0
72,74.20,77.24,0
72,74.16,77.19,0
72,74.12,77.14,0
70,74.03,77.06,0
72,73.99,77.01,0
71,73.93,76.95,0
71,73.88,76.89,0
70,73.80,76.83,0
70,73.72,76.76,0
71,73.67,76.70,0
74,73.67,76.67,0
71,73.62,76.62,0
70,73.55,76.55,0
70,73.48,76.48,0
70,73.41,76.42,0
70,73.34,76.36,0
70,73.27,76.29,0
71,73.23,76.24,0
70,73.16,76.18,0
70,73.10,76.11,0
70,73.04,76.05,0
70,72.98,75.99,0
70,72.92,75.93,0
72,72.90,75.89,0
70,72.84,75.83,0
70,72.78,75.78,0
67,72.67,75.69,0
71,72.63,75.64,0
70,72.58,75.59,0
70,72.53,75.53,0
70,72.48,75.47,0
69,72.41,75.41,0
70,72.36,75.36,0
70,72.31,75.30,0
72,72.31,75.27,0
71,72.28,75.23,0
70,72.24,75.17,0
70,72.19,75.12,0
71,72.17,75.08,0
70,72.12,75.03,0
69,72.06,74.97,0
70,72.02,74.92,0
69,71.96,74.86,0
70,71.92,74.81,0
69,71.86,74.75,0
70,71.83,74.71,0
69,71.77,74.65,0
70,71.73,74.60,0
70,71.70,74.56,0
69,71.65,74.50,0
69,71.59,74.45,0
69,71.54,74.39,0
70,71.51,74.35,0
70,71.48,74.30,0
71,71.47,74.27,0
69,71.42,74.22,0
70,71.39,74.18,0
68,71.32,74.11,0
69,71.28,74.06,0
69,71.23,74.01,0
68,71.17,73.95,0
68,71.10,73.89,0
69,71.06,73.84,0
68,71.00,73.79,0
68,70.94,73.73,0
68,70.88,73.67,0
68,70.82,73.61,0
68,70.77,73.56,0
68,70.71,73.50,0
68,70.66,73.45,0
69,70.63,73.40,0
68,70.57,73.35,0
68,70.52,73.30,0
68,70.47,73.24,0
69,70.44,73.20,0
68,70.39,73.15,0
68,70.34,73.10,0
68,70.30,73.05,0
68,70.25,73.00,0
68,70.21,72.95,0
68,70.16,72.90,0
70,70.16,72.87,0
68,70.12,72.82,0
68,70.07,72.77,0
68,70.03,72.72,0
68,69.99,72.68,0
67,69.93,72.62,0
67,69.87,72.56,0
68,69.84,72.52,0
68,69.80,72.47,0
67,69.74,72.42,0
67,69.69,72.36,0
68,69.65,72.32,0
68,69.62,72.28,0
68,69.59,72.23,0
70,69.60,72.21,0
68,69.57,72.17,0
68,69.53,72.13,0
69,69.52,72.10,0
68,69.49,72.05,0
68,69.46,72.01,0
68,69.43,71.97,0
67,69.39,71.92,0
70,69.40,71.90,0
67,69.35,71.86,0
68,69.32,71.82,0
68,69.30,71.78,0
70,69.31,71.76,0
68,69.28,71.72,0
67,69.24,71.68,0
67,69.19,71.63,0
69,69.19,71.60,0
68,69.17,71.57,0
68,69.14,71.53,0
68,69.12,71.50,0
70,69.14,71.48,0
68,69.11,71.45,0
68,69.09,71.41,0
66,69.03,71.36,0
68,69.01,71.32,0
66,68.95,71.27,0
67,68.91,71.23,0
68,68.89,71.20,0
67,68.85,71.15,0
68,68.84,71.12,0
70,68.86,71.11,0
69,68.86,71.09,0
66,68.81,71.04,0
66,68.75,70.99,0
67,68.72,70.95,0
67,68.68,70.91,0
66,68.63,70.86,0
67,68.59,70.82,0
67,68.56,70.78,0
69,68.57,70.77,0
68,68.56,70.74,0
66,68.51,70.69,0
67,68.48,70.65,0
68,68.47,70.63,0
68,68.46,70.60,0
67,68.43,70.57,0
64,68.34,70.50,0
68,68.34,70.47,0
67,68.31,70.44,0
66,68.26,70.40,0
66,68.22,70.35,0
68,68.21,70.33,0
68,68.21,70.30,0
68,68.20,70.28,0
66,68.16,70.24,0
68,68.16,70.22,0
67,68.13,70.18,0
66,68.09,70.14,0
66,68.05,70.10,0
68,68.05,70.08,0
68,68.05,70.06,0
66,68.01,70.02,0
68,68.01,70.00,0
67,67.99,69.97,0
67,67.97,69.94,0
68,67.97,69.92,0
67,67.95,69.89,0
68,67.95,69.87,0
67,67.93,69.84,0
66,67.89,69.80,0
68,67.89,69.79,0
67,67.88,69.76,0
67,67.86,69.73,0
68,67.86,69.71,0
68,67.86,69.70,0
68,67.87,69.68,0
67,67.85,69.65,0
66,67.81,69.62,0
68,67.82,69.60,0
67,67.80,69.57,0
66,67.76,69.54,0
66,67.73,69.50,0
66,67.69,69.47,0
67,67.68,69.44,0
66,67.65,69.41,0
66,67.61,69.37,0
66,67.58,69.34,0
67,67.57,69.32,0
66,67.54,69.28,0
66,67.51,69.25,0
67,67.50,69.23,0
66,67.47,69.20,0
66,67.44,69.16,0
66,67.41,69.13,0
67,67.40,69.11,0
67,67.39,69.09,0
66,67.37,69.06,0
66,67.34,69.03,0
67,67.33,69.01,0
68,67.34,69.00,0
67,67.34,68.98,0
68,67.35,68.97,0
68,67.36,68.96,0
67,67.36,68.94,0
68,67.37,68.93,0
68,67.38,68.92,0
68,67.39,68.91,0
66,67.37,68.88,0
66,67.34,68.85,0
68,67.35,68.85,0
67,67.35,68.83,0
67,67.34,68.81,0
67,67.33,68.79,0
67,67.32,68.77,0
67,67.32,68.75,0
66,67.29,68.73,0
66,67.27,68.70,0
66,67.24,68.67,0
67,67.24,68.66,0
70,67.29,68.67,0
65,67.25,68.63,0
66,67.22,68.61,0
67,67.22,68.59,0
69,67.25,68.59,0
66,67.23,68.57,0
66,67.20,68.54,0
66,67.18,68.52,0
66,67.15,68.49,0
66,67.13,68.47,0
66,67.11,68.44,0
66,67.09,68.42,0
65,67.05,68.38,0
66,67.02,68.36,0
66,67.00,68.34,0
66,66.98,68.31,0
65,66.94,68.28,0
66,66.93,68.26,0
65,66.89,68.22,0
66,66.87,68.20,0
65,66.83,68.17,0
66,66.81,68.15,0
66,66.80,68.13,0
65,66.76,68.10,0
67,66.77,68.09,0
65,66.73,68.05,0
68,66.76,68.05,0
66,66.74,68.03,0
65,66.71,68.00,0
65,66.67,67.97,0
66,66.66,67.95,0
66,66.65,67.93,0
65,66.61,67.90,0
65,66.58,67.88,0
63,66.51,67.83,0
64,66.46,67.79,0
65,66.43,67.76,0
65,66.40,67.73,0
66,66.39,67.72,0
66,66.39,67.70,0
66,66.38,67.68,0
65,66.35,67.65,0
64,66.30,67.62,0
65,66.28,67.59,0
65,66.25,67.57,0
65,66.23,67.54,0
64,66.18,67.50,0
66,66.18,67.49,0
65,66.16,67.46,0
65,66.13,67.44,0
66,66.13,67.43,0
66,66.13,67.41,0
65,66.10,67.39,0
64,66.06,67.35,0
66,66.06,67.34,0
66,66.06,67.33,0
65,66.04,67.30,0
66,66.04,67.29,0
66,66.04,67.28,0
66,66.04,67.26,0
66,66.04,67.25,0
66,66.03,67.24,0
66,66.03,67.23,0
66,66.03,67.21,0
66,66.03,67.20,0
66,66.03,67.19,0
66,66.03,67.18,0
66,66.03,67.17,0
66,66.03,67.16,0
66,66.03,67.14,0
66,66.03,67.13,0
66,66.03,67.12,0
66,66.03,67.11,0
67,66.05,67.11,0
66,66.05,67.10,0
67,66.07,67.10,0
66,66.06,67.09,0
66,66.06,67.07,0
66,66.06,67.06,0
66,66.06,67.05,0
66,66.06,67.04,0
68,66.10,67.05,0
66,66.10,67.04,0
66,66.09,67.03,0
66,66.09,67.02,0
68,66.13,67.03,0
67,66.15,67.03,0
66,66.14,67.02,0
69,66.20,67.04,0
68,66.24,67.05,0
67,66.25,67.05,0
67,66.27,67.05,0
66,66.26,67.04,0
66,66.26,67.03,0
66,66.25,67.02,0
67,66.27,67.02,0
66,66.26,67.01,0
66,66.26,67.00,0
66,66.25,66.99,0
66,66.25,66.98,0
65,66.22,66.96,0
66,66.22,66.95,0
66,66.21,66.94,0
66,66.21,66.93,0
67,66.22,66.93,0
67,66.24,66.93,0
66,66.24,66.92,0
66,66.23,66.91,0
68,66.27,66.92,0
66,66.26,66.91,0
66,66.26,66.90,0
66,66.25,66.90,0
66,66.25,66.89,0
66,66.24,66.88,0
66,66.24,66.87,0
66,66.23,66.86,0
65,66.21,66.84,0
65,66.18,66.82,0
66,66.18,66.82,0
66,66.17,66.81,0
67,66.19,66.81,0
67,66.21,66.81,0
66,66.20,66.80,0
66,66.20,66.79,0
68,66.24,66.81,0
68,66.27,66.82,0
66,66.27,66.81,0
68,66.30,66.82,0
67,66.31,66.82,0
67,66.33,66.83,0
66,66.32,66.82,0
68,66.35,66.83,0
68,66.39,66.84,0
70,66.46,66.87,0
68,66.49,66.88,0
70,66.56,66.92,0
72,66.67,66.97,0
70,66.74,67.00,0
70,66.80,67.03,0
70,66.87,67.06,0
70,66.93,67.09,0
72,67.03,67.13,0
70,67.09,67.16,0
70,67.15,67.19,0
72,67.24,67.24,0
70,67.30,67.27,0
72,67.39,67.31,0
72,67.49,67.36,0
72,67.58,67.41,0
72,67.66,67.45,0
74,67.79,67.52,0
72,67.88,67.56,0
74,68.00,67.63,0
74,68.12,67.69,0
74,68.24,67.76,0
73,68.33,67.81,0
74,68.44,67.87,0
71,68.50,67.90,0
73,68.59,67.95,0
73,68.67,68.00,0
72,68.74,68.04,0
74,68.85,68.10,0
74,68.95,68.16,0
73,69.03,68.21,0
73,69.11,68.26,0
74,69.21,68.31,0
73,69.28,68.36,0
73,69.36,68.41,0
74,69.45,68.46,0
76,69.58,68.54,0
74,69.67,68.59,0
74,69.76,68.65,0
74,69.84,68.70,0
76,69.96,68.77,0
76,70.08,68.85,0
74,70.16,68.90,0
74,70.24,68.95,0
73,70.29,68.99,0
74,70.37,69.04,0
76,70.48,69.11,0
76,70.59,69.18,0
77,70.72,69.26,0
76,70.83,69.32,0
76,70.93,69.39,0
77,71.05,69.47,0
77,71.17,69.54,0
78,71.31,69.63,0
78,71.44,69.71,0
77,71.55,69.78,0
77,71.66,69.86,0
78,71.79,69.94,0
78,71.91,70.02,0
78,72.03,70.10,0
79,72.17,70.19,0
79,72.31,70.27,0
79,72.44,70.36,0
81,72.61,70.47,0
80,72.76,70.56,0
79,72.89,70.65,0
79,73.01,70.73,0
81,73.17,70.83,0
82,73.35,70.95,0
82,73.52,71.06,0
82,73.69,71.17,0
81,73.83,71.26,0
82,74.00,71.37,0
82,74.16,71.48,0
82,74.31,71.58,0
84,74.51,71.71,0
84,74.70,71.83,0
84,74.88,71.95,0
84,75.07,72.07,0
84,75.24,72.19,0
84,75.42,72.31,0
84,75.59,72.43,0
84,75.76,72.54,0
84,75.92,72.66,0
83,76.07,72.76,0
84,76.22,72.87,0
86,76.42,73.00,0
86,76.61,73.13,0
86,76.80,73.26,0
86,76.98,73.39,0
86,77.16,73.52,0
87,77.36,73.65,0
87,77.55,73.78,0
88,77.76,73.93,0
86,77.93,74.05,0
88,78.13,74.19,0
88,78.33,74.32,0
88,78.52,74.46,0
87,78.69,74.59,0
88,78.88,74.72,0
88,79.06,74.85,0
88,79.24,74.99,0
88,79.41,75.12,0
89,79.60,75.25,0
88,79.77,75.38,0
88,79.94,75.51,0
88,80.10,75.63,0
89,80.28,75.77,0
90,80.47,75.91,0
92,80.70,76.07,0
92,80.93,76.23,0
92,81.15,76.39,0
92,81.37,76.54,0
93,81.60,76.71,0
93,81.83,76.87,0
95,82.09,77.05,0
96,82.37,77.24,0
97,82.66,77.44,0
99,82.99,77.65,0
98,83.29,77.86,0
101,83.64,78.09,0
97,83.91,78.28,0
97,84.17,78.47,0
97,84.43,78.65,0
98,84.70,78.84,0
100,85.00,79.06,0
102,85.34,79.29,0
103,85.70,79.52,0
102,86.02,79.75,0
102,86.34,79.97,0
101,86.64,80.18,0
102,86.94,80.40,0
106,87.32,80.65,0
108,87.74,80.93,0
105,88.08,81.17,0
104,88.40,81.40,0
104,88.71,81.62,0
104,89.02,81.85,0
105,89.34,82.08,0
104,89.63,82.30,0
105,89.94,82.52,0
104,90.22,82.74,0
104,90.50,82.95,0
105,90.79,83.17,0
104,91.05,83.38,0
104,91.31,83.59,0
104,91.56,83.79,0
105,91.83,84.00,0
104,92.08,84.20,0
106,92.35,84.42,0
107,92.65,84.65,0
106,92.91,84.86,0
107,93.20,85.08,0
106,93.45,85.29,0
108,93.74,85.52,0
111,94.09,85.77,0
111,94.43,86.03,0
110,94.74,86.26,0
111,95.06,86.51,0
112,95.40,86.77,0
112,95.73,87.02,0
112,96.06,87.27,0
113,96.40,87.53,0
116,96.79,87.81,0
114,97.13,88.07,0
115,97.49,88.34,0
115,97.84,88.61,0
115,98.18,88.87,0
116,98.54,89.14,0
115,98.87,89.40,0
115,99.19,89.66,0
115,99.51,89.91,0
116,99.84,90.17,0
117,100.18,90.44,0
116,100.50,90.70,0
118,100.85,90.97,0
116,101.15,91.22,0
116,101.45,91.47,0
116,101.74,91.71,0
116,102.02,91.96,0
116,102.30,92.20,0
116,102.58,92.43,0
116,102.85,92.67,0
117,103.13,92.91,0
116,103.39,93.14,0
117,103.66,93.38,0
117,103.93,93.62,0
117,104.19,93.85,0
117,104.44,94.08,0
118,104.72,94.32,0
116,104.94,94.54,0
118,105.20,94.78,0
116,105.42,94.99,0
118,105.67,95.22,0
118,105.92,95.45,0
121,106.22,95.70,0
118,106.45,95.92,0
121,106.74,96.17,0
122,107.05,96.43,0
122,107.35,96.69,0
122,107.64,96.94,0
123,107.95,97.20,0
124,108.27,97.47,0
123,108.56,97.73,0
123,108.85,97.98,0
123,109.14,98.23,0
122,109.39,98.47,0
122,109.65,98.70,0
122,109.89,98.93,0
124,110.17,99.19,0
122,110.41,99.41,0
123,110.66,99.65,0
124,110.93,99.89,0
124,111.19,100.13,0
125,111.47,100.38,0
126,111.76,100.64,0
125,112.02,100.88,0
127,112.32,101.14,0
129,112.66,101.42,0
129,112.98,101.70,0
129,113.30,101.97,0
130,113.64,102.25,0
130,113.96,102.53,0
131,114.31,102.81,0
132,114.66,103.11,0
131,114.99,103.38,0
133,115.35,103.68,0
131,115.66,103.95,0
133,116.01,104.24,0
135,116.39,104.55,0
135,116.76,104.86,0
135,117.12,105.16,0
136,117.50,105.47,0
137,117.89,105.78,0
138,118.29,106.10,0
137,118.67,106.41,0
139,119.07,106.74,0
141,119.51,107.08,0
140,119.92,107.41,0
141,120.34,107.75,0
141,120.76,108.08,0
141,121.16,108.41,0
137,121.48,108.69,0
143,121.91,109.04,0
144,122.35,109.39,0
143,122.76,109.72,0
145,123.21,110.08,0
147,123.68,110.44,0
147,124.15,110.81,0
149,124.65,111.19,0
148,125.11,111.56,0
149,125.59,111.93,0
151,126.10,112.33,0
151,126.60,112.71,0
150,127.07,113.08,0
152,127.56,113.47,0
151,128.03,113.85,0
152,128.51,114.23,0
149,128.92,114.58,0
155,129.44,114.98,0
154,129.94,115.37,0
153,130.40,115.75,0
153,130.85,116.12,0
153,131.29,116.49,0
153,131.73,116.86,0
153,132.15,117.22,0
154,132.59,117.58,0
154,133.02,117.95,0
154,133.44,118.31,0
155,133.87,118.68,0
156,134.31,119.05,0
155,134.72,119.41,0
157,135.17,119.78,0
157,135.61,120.16,0
158,136.05,120.54,0
159,136.51,120.92,0
161,137.00,121.32,0
159,137.44,121.70,0
162,137.93,122.10,0
164,138.46,122.52,0
161,138.91,122.90,0
165,139.43,123.33,0
163,139.90,123.72,0
164,140.38,124.13,0
163,140.83,124.51,0
164,141.30,124.91,0
163,141.73,125.29,0
164,142.18,125.68,0
163,142.59,126.05,0
164,143.02,126.43,0
163,143.42,126.80,0
164,143.83,127.17,0
163,144.22,127.53,0
164,144.61,127.89,0
165,145.02,128.26,0
168,145.48,128.66,0
167,145.91,129.04,0
165,146.29,129.40,0
168,146.73,129.79,0
167,147.13,130.16,0
167,147.53,130.53,0
167,147.92,130.89,0
165,148.26,131.23,0
167,148.63,131.59,0
167,149.00,131.95,0
167,149.36,132.30,0
168,149.73,132.65,0
167,150.08,133.00,0
168,150.44,133.35,0
166,150.75,133.67,0
167,151.07,134.01,0
167,151.39,134.34,0
167,151.70,134.66,0
167,152.01,134.99,0
168,152.33,135.32,0
168,152.64,135.64,0
167,152.93,135.96,0
168,153.23,136.28,0
167,153.51,136.58,0
168,153.80,136.90,0
167,154.06,137.20,0
167,154.32,137.50,0
166,154.55,137.78,0
166,154.78,138.07,0
165,154.99,138.33,0
167,155.23,138.62,0
165,155.42,138.88,0
165,155.61,139.15,0
165,155.80,139.40,0
165,155.99,139.66,0
165,156.17,139.91,0
165,156.34,140.16,0
165,156.52,140.41,0
165,156.69,140.66,0
164,156.83,140.89,0
164,156.98,141.12,0
165,157.14,141.36,0
163,157.25,141.58,0
164,157.39,141.80,0
164,157.52,142.02,0
164,157.65,142.24,0
163,157.76,142.45,0
163,157.86,142.66,0
163,157.96,142.86,0
162,158.05,143.05,0
164,158.16,143.26,0
163,158.26,143.46,0
164,158.38,143.66,0
164,158.49,143.87,0
163,158.58,144.06,0
163,158.67,144.25,0
163,158.75,144.44,0
162,158.82,144.61,0
163,158.90,144.80,0
163,158.98,144.98,0
162,159.04,145.15,0
162,159.10,145.32,0
163,159.18,145.49,0
162,159.24,145.66,0
162,159.29,145.82,0
164,159.39,146.00,0
163,159.46,146.17,0
161,159.49,146.32,0
163,159.56,146.49,0
162,159.61,146.64,0
162,159.66,146.80,0
162,159.70,146.95,0
161,159.73,147.09,0
162,159.78,147.24,0
161,159.80,147.38,0
162,159.84,147.52,0
161,159.87,147.66,0
161,159.89,147.79,0
160,159.89,147.91,0
161,159.91,148.04,0
160,159.92,148.16,0
161,159.94,148.29,0
159,159.92,148.40,0
159,159.90,148.51,0
159,159.88,148.61,0
160,159.88,148.72,0
159,159.87,148.83,0
158,159.83,148.92,0
158,159.79,149.01,0
157,159.74,149.09,0
158,159.70,149.18,0
157,159.65,149.26,0
157,159.60,149.33,0
157,159.54,149.41,0
157,159.49,149.49,0
157,159.44,149.56,0
155,159.35,149.62,0
157,159.31,149.69,0
157,159.26,149.76,0
156,159.20,149.83,0
156,159.13,149.89,0
155,159.05,149.94,0
156,158.99,150.00,0
155,158.91,150.05,0
155,158.83,150.10,0
153,158.71,150.13,0
155,158.64,150.18,0
155,158.57,150.22,0
154,158.48,150.26,0
153,158.37,150.29,0
153,158.26,150.32,0
153,158.15,150.34,0
153,158.05,150.37,0
153,157.95,150.40,0
153,157.85,150.42,0
153,157.75,150.45,0
153,157.66,150.47,0
154,157.58,150.51,0
152,157.47,150.52,0
152,157.36,150.54,0
152,157.26,150.55,0
151,157.13,150.56,0
151,157.01,150.56,0
150,156.87,150.56,0
152,156.77,150.57,0
151,156.66,150.58,0
151,156.54,150.58,0
150,156.41,150.57,0
149,156.26,150.56,0
149,156.12,150.54,0
151,156.02,150.55,0
150,155.90,150.54,0
150,155.78,150.54,0
149,155.64,150.52,0
151,155.55,150.53,0
153,155.50,150.55,0
149,155.37,150.53,0
149,155.24,150.52,0
149,155.12,150.50,0
149,154.99,150.49,0
149,154.87,150.47,0
148,154.74,150.45,0
148,154.60,150.43,0
148,154.47,150.40,0
147,154.32,150.37,0
148,154.19,150.34,0
147,154.05,150.31,0
148,153.93,150.29,0
146,153.77,150.24,0
146,153.62,150.20,0
146,153.46,150.16,0
146,153.31,150.12,0
145,153.15,150.07,0
145,152.98,150.02,0
145,152.82,149.97,0
145,152.67,149.92,0
145,152.51,149.87,0
145,152.36,149.82,0
144,152.20,149.76,0
144,152.03,149.70,0
145,151.89,149.66,0
144,151.73,149.60,0
143,151.56,149.53,0
143,151.39,149.47,0
143,151.22,149.40,0
143,151.06,149.34,0
143,150.90,149.28,0
143,150.74,149.21,0
145,150.62,149.17,0
143,150.47,149.11,0
143,150.32,149.05,0
141,150.13,148.97,0
144,150.01,148.92,0
142,149.85,148.85,0
141,149.67,148.77,0
141,149.50,148.69,0
141,149.33,148.62,0
141,149.16,148.54,0
141,149.00,148.46,0
141,148.84,148.39,0
141,148.68,148.32,0
140,148.51,148.23,0
139,148.32,148.14,0
141,148.17,148.07,1
139,147.99,147.98,1
140,147.83,147.90,2
140,147.67,147.82,2
139,147.50,147.73,2
140,147.35,147.65,2
140,147.20,147.58,2
135,146.96,147.45,2
139,146.80,147.37,2
139,146.64,147.28,2
138,146.47,147.19,2
139,146.32,147.11,2
138,146.16,147.02,2
137,145.97,146.92,2
137,145.79,146.82,2
137,145.62,146.72,2
137,145.44,146.62,2
137,145.28,146.53,2
137,145.11,146.43,2
137,144.95,146.34,2
136,144.77,146.23,2
136,144.59,146.13,2
135,144.40,146.02,2
137,144.25,145.93,2
135,144.07,145.82,2
135,143.89,145.71,2
135,143.71,145.60,2
135,143.54,145.50,2
135,143.36,145.39,2
135,143.20,145.29,2
135,143.03,145.19,2
134,142.85,145.08,2
133,142.66,144.95,2
133,142.46,144.83,2
135,142.31,144.74,2
133,142.13,144.62,2
133,141.94,144.50,2
134,141.79,144.40,2
134,141.63,144.29,2
133,141.46,144.18,2
133,141.29,144.07,2
133,141.12,143.96,2
133,140.96,143.85,2
133,140.80,143.74,2
133,140.65,143.63,2
132,140.47,143.52,2
132,140.30,143.40,2
132,140.14,143.29,2
131,139.95,143.16,2
131,139.77,143.04,2
131,139.60,142.92,2
131,139.43,142.80,2
131,139.26,142.69,2
130,139.07,142.56,2
130,138.89,142.43,2
131,138.73,142.32,2
129,138.54,142.19,2
129,138.35,142.05,2
129,138.16,141.92,2
129,137.98,141.79,2
129,137.80,141.67,2
129,137.62,141.54,2
128,137.43,141.40,2
129,137.26,141.28,2
129,137.10,141.16,2
128,136.91,141.03,2
129,136.76,140.91,2
128,136.58,140.78,2
127,136.39,140.64,2
129,136.24,140.52,2
127,136.06,140.39,2
127,135.88,140.25,2
127,135.70,140.12,2
127,135.52,139.99,2
127,135.35,139.86,2
125,135.15,139.71,2
126,134.96,139.57,2
127,134.80,139.45,2
127,134.65,139.32,2
125,134.46,139.18,2
125,134.27,139.04,2
125,134.08,138.90,2
125,133.90,138.76,2
125,133.72,138.62,2
125,133.55,138.49,2
125,133.38,138.35,2
125,133.21,138.22,2
125,133.04,138.08,2
124,132.86,137.94,2
125,132.71,137.81,2
124,132.53,137.68,2
124,132.36,137.54,2
124,132.19,137.40,2
123,132.01,137.26,2
123,131.83,137.12,2
123,131.65,136.98,2
123,131.48,136.84,2
123,131.31,136.70,2
123,131.14,136.56,2
122,130.96,136.42,2
123,130.80,136.28,2
124,130.67,136.16,2
122,130.49,136.02,2
121,130.30,135.87,2
121,130.12,135.72,2
121,129.94,135.57,2
121,129.76,135.43,2
121,129.58,135.28,2
121,129.41,135.14,2
121,129.24,135.00,2
121,129.08,134.86,2
121,128.92,134.72,2
121,128.76,134.58,2
120,128.58,134.44,2
120,128.41,134.29,2
120,128.24,134.15,2
120,128.08,134.01,2
120,127.92,133.87,2
119,127.74,133.72,2
119,127.56,133.57,2
119,127.39,133.42,2
120,127.24,133.29,2
119,127.08,133.15,2
118,126.90,133.00,2
119,126.74,132.86,2
119,126.58,132.72,2
118,126.41,132.57,2
119,126.26,132.43,2
117,126.08,132.28,2
117,125.90,132.13,2
117,125.72,131.98,2
117,125.55,131.83,2
118,125.39,131.69,2
117,125.23,131.54,2
117,125.06,131.40,2
117,124.90,131.25,2
117,124.74,131.11,2
116,124.57,130.96,2
117,124.42,130.82,2
116,124.25,130.67,2
116,124.08,130.52,2
116,123.92,130.38,2
117,123.78,130.25,2
115,123.61,130.09,2
116,123.46,129.95,2
115,123.29,129.80,2
115,123.12,129.65,2
115,122.96,129.51,2
115,122.80,129.36,2
116,122.66,129.23,2
114,122.49,129.08,2
115,122.34,128.94,2
114,122.17,128.79,2
113,121.99,128.63,2
113,121.81,128.47,2
113,121.63,128.32,2
111,121.42,128.14,2
113,121.25,127.99,2
113,121.09,127.84,2
115,120.97,127.71,2
113,120.81,127.57,2
113,120.65,127.42,2
113,120.50,127.28,2
113,120.35,127.13,2
113,120.20,126.99,2
112,120.04,126.84,2
112,119.88,126.70,2
112,119.72,126.55,2
112,119.56,126.40,2
111,119.39,126.25,2
111,119.22,126.10,2
111,119.06,125.95,2
111,118.90,125.80,2
111,118.74,125.65,2
111,118.59,125.50,2
111,118.43,125.36,2
112,118.31,125.22,2
111,118.16,125.08,2
111,118.02,124.94,2
111,117.88,124.80,2
110,117.72,124.65,2
111,117.58,124.52,2
110,117.43,124.37,2
110,117.28,124.23,2
109,117.12,124.07,2
109,116.96,123.92,2
109,116.80,123.77,2
110,116.66,123.64,2
109,116.51,123.49,2
108,116.34,123.34,2
109,116.19,123.19,2
109,116.05,123.05,2
109,115.91,122.91,2
109,115.77,122.77,2
108,115.61,122.62,2
108,115.46,122.48,2
108,115.31,122.33,2
109,115.18,122.20,2
108,115.04,122.06,2
108,114.90,121.92,2
108,114.76,121.78,2
107,114.61,121.63,2
108,114.47,121.49,2
107,114.33,121.35,2
107,114.18,121.20,2
107,114.04,121.06,2
107,113.89,120.92,2
107,113.76,120.78,2
108,113.64,120.65,2
107,113.51,120.52,2
107,113.38,120.38,2
103,113.17,120.21,2
106,113.03,120.07,2
106,112.89,119.93,2
106,112.75,119.79,2
105,112.59,119.64,2
105,112.44,119.49,2
105,112.29,119.35,2
105,112.15,119.20,2
105,112.00,119.06,2
105,111.86,118.92,2
105,111.73,118.78,2
105,111.59,118.64,2
105,111.46,118.51,2
104,111.31,118.36,2
104,111.17,118.22,2
104,111.02,118.08,2
104,110.88,117.94,2
104,110.74,117.80,2
103,110.59,117.65,2
104,110.46,117.51,2
105,110.35,117.39,2
103,110.20,117.24,2
103,110.06,117.10,2
103,109.92,116.96,2
103,109.78,116.82,2
104,109.66,116.69,2
102,109.51,116.55,2
103,109.38,116.41,2
103,109.25,116.28,2
104,109.15,116.15,2
103,109.02,116.02,2
104,108.92,115.90,2
103,108.80,115.77,2
101,108.65,115.62,2
102,108.52,115.49,2
103,108.41,115.36,2
102,108.28,115.23,2
101,108.13,115.09,2
101,107.99,114.95,2
105,107.93,114.85,2
101,107.79,114.71,2
101,107.65,114.57,2
102,107.54,114.45,2
101,107.41,114.31,2
101,107.28,114.18,2
101,107.16,114.05,2
101,107.03,113.92,2
101,106.91,113.79,2
101,106.79,113.66,2
100,106.66,113.52,2
100,106.53,113.39,2
99,106.38,113.24,2
99,106.23,113.10,2
99,106.08,112.96,2
98,105.92,112.81,2
100,105.80,112.68,2
99,105.67,112.55,2
99,105.53,112.41,2
99,105.40,112.28,2
99,105.27,112.14,2
98,105.13,112.00,2
98,104.99,111.86,2
100,104.89,111.74,2
97,104.73,111.60,2
99,104.61,111.47,2
97,104.46,111.33,2
98,104.33,111.19,2
98,104.21,111.06,2
97,104.06,110.92,2
98,103.94,110.79,2
98,103.82,110.66,2
98,103.71,110.54,2
102,103.67,110.45,2
95,103.50,110.30,2
97,103.37,110.16,2
97,103.24,110.03,2
96,103.10,109.89,2
97,102.97,109.76,2
96,102.83,109.62,2
97,102.72,109.50,2
96,102.58,109.36,2
96,102.45,109.23,2
95,102.30,109.09,2
96,102.18,108.96,2
95,102.03,108.82,2
96,101.91,108.69,2
97,101.81,108.57,2
96,101.70,108.45,2
96,101.58,108.32,2
96,101.47,108.20,2
95,101.34,108.07,2
95,101.22,107.94,2
95,101.09,107.81,2
95,100.97,107.68,2
94,100.83,107.54,2
95,100.71,107.42,2
94,100.58,107.28,2
96,100.49,107.17,2
94,100.36,107.04,2
95,100.25,106.92,2
96,100.17,106.81,2
94,100.04,106.68,2
94,99.92,106.55,2
95,99.82,106.44,2
94,99.71,106.31,2
93,99.57,106.18,2
94,99.46,106.06,2
93,99.33,105.93,2
94,99.23,105.81,2
93,99.10,105.68,2
93,98.98,105.55,2
92,98.84,105.42,2
95,98.76,105.31,2
93,98.65,105.19,2
93,98.53,105.07,2
93,98.42,104.95,2
93,98.32,104.83,2
93,98.21,104.71,2
92,98.08,104.58,2
91,97.94,104.45,2
93,97.84,104.33,2
92,97.73,104.21,2
91,97.59,104.08,2
92,97.48,103.96,2
91,97.35,103.83,2
92,97.24,103.71,2
92,97.14,103.59,2
91,97.02,103.47,2
91,96.90,103.34,2
90,96.76,103.21,2
93,96.68,103.11,2
91,96.57,102.98,2
89,96.42,102.84,2
91,96.31,102.73,2
91,96.20,102.61,2
89,96.06,102.47,2
90,95.94,102.35,2
91,95.84,102.23,2
91,95.74,102.12,2
90,95.63,102.00,2
89,95.50,101.87,2
89,95.37,101.74,2
89,95.24,101.62,2
91,95.15,101.51,2
90,95.05,101.39,2
90,94.95,101.28,2
89,94.83,101.16,2
89,94.71,101.04,2
89,94.60,100.92,2
89,94.49,100.80,2
89,94.38,100.68,2
89,94.27,100.56,2
89,94.16,100.45,2
89,94.06,100.33,2
89,93.96,100.22,2
89,93.86,100.11,2
90,93.78,100.00,2
89,93.69,99.89,2
88,93.57,99.78,2
89,93.48,99.67,2
89,93.39,99.56,2
88,93.29,99.45,2
88,93.18,99.33,2
89,93.10,99.23,2
88,92.99,99.12,2
88,92.89,99.00,2
89,92.82,98.90,2
88,92.72,98.80,2
89,92.65,98.70,2
88,92.55,98.59,2
87,92.44,98.47,2
88,92.35,98.37,2
88,92.27,98.27,2
88,92.18,98.16,2
88,92.10,98.06,2
88,92.02,97.96,2
88,91.93,97.86,2
88,91.86,97.76,2
88,91.78,97.67,2
87,91.68,97.56,2
86,91.57,97.44,2
86,91.46,97.33,2
88,91.39,97.24,2
88,91.32,97.14,2
87,91.23,97.04,2
86,91.13,96.93,2
87,91.05,96.83,2
86,90.95,96.72,2
86,90.85,96.62,2
86,90.75,96.51,2
87,90.68,96.42,2
86,90.58,96.31,2
86,90.49,96.21,2
87,90.42,96.12,2
86,90.33,96.01,2
87,90.27,95.92,2
88,90.22,95.85,2
86,90.14,95.75,2
85,90.03,95.64,2
86,89.95,95.54,2
86,89.87,95.45,2
85,89.78,95.34,2
86,89.70,95.25,2
84,89.59,95.14,2
85,89.49,95.04,2
86,89.42,94.95,2
85,89.34,94.85,2
86,89.27,94.76,2
86,89.20,94.67,2
86,89.14,94.58,2
86,89.08,94.50,2
84,88.98,94.39,2
85,88.90,94.30,2
85,88.82,94.21,2
84,88.72,94.10,2
86,88.67,94.02,2
84,88.57,93.92,2
84,88.48,93.82,2
84,88.39,93.72,2
85,88.33,93.64,2
84,88.24,93.54,2
84,88.15,93.45,2
83,88.05,93.34,2
85,87.99,93.26,2
84,87.91,93.17,2
84,87.83,93.07,2
84,87.76,92.98,2
85,87.70,92.90,2
84,87.63,92.81,2
84,87.55,92.73,2
83,87.46,92.63,2
84,87.39,92.54,2
84,87.33,92.46,2
83,87.24,92.36,2
83,87.15,92.27,2
84,87.09,92.19,2
83,87.01,92.09,2
83,86.93,92.00,2
82,86.83,91.90,2
84,86.77,91.82,2
83,86.70,91.74,2
82,86.60,91.64,2
82,86.51,91.54,2
82,86.42,91.45,2
82,86.33,91.35,2
82,86.25,91.26,2
82,86.16,91.17,2
82,86.08,91.07,2
82,86.00,90.98,2
82,85.92,90.89,2
82,85.84,90.80,2
82,85.76,90.72,2
81,85.67,90.62,2
80,85.55,90.51,2
82,85.48,90.43,2
81,85.39,90.33,2
81,85.31,90.24,2
80,85.20,90.14,2
82,85.13,90.06,2
81,85.05,89.97,2
80,84.95,89.87,2
80,84.85,89.77,2
79,84.74,89.66,2
80,84.64,89.56,2
80,84.55,89.47,2
80,84.46,89.37,2
79,84.35,89.27,2
80,84.26,89.18,2
80,84.18,89.09,2
80,84.09,88.99,2
79,83.99,88.89,2
79,83.89,88.80,2
80,83.81,88.71,2
80,83.74,88.62,2
79,83.64,88.52,2
80,83.57,88.44,2
78,83.46,88.33,2
79,83.37,88.24,2
79,83.28,88.15,2
79,83.20,88.06,2
78,83.09,87.96,2
79,83.01,87.87,2
79,82.93,87.78,2
79,82.85,87.69,2
80,82.79,87.61,2
78,82.70,87.52,2
79,82.62,87.43,2
78,82.53,87.34,2
78,82.44,87.24,2
78,82.35,87.15,2
77,82.24,87.05,2
79,82.18,86.97,2
78,82.10,86.88,2
78,82.01,86.79,2
78,81.93,86.70,2
79,81.88,86.63,2
78,81.80,86.54,2
78,81.72,86.46,2
77,81.63,86.36,2
78,81.56,86.28,2
78,81.48,86.19,2
77,81.39,86.10,2
77,81.31,86.01,2
77,81.22,85.92,2
78,81.16,85.84,2
77,81.07,85.75,2
77,80.99,85.67,2
77,80.91,85.58,2
77,80.83,85.49,2
76,80.74,85.40,2
77,80.66,85.31,2
78,80.61,85.24,2
77,80.54,85.16,2
76,80.45,85.07,2
76,80.36,84.98,2
77,80.29,84.90,2
76,80.20,84.81,2
76,80.12,84.72,2
76,80.04,84.63,2
77,79.98,84.56,2
76,79.90,84.47,2
76,79.82,84.39,2
76,79.74,84.30,2
77,79.69,84.23,2
76,79.61,84.15,2
76,79.54,84.07,2
76,79.47,83.98,2
78,79.44,83.93,2
77,79.39,83.86,2
76,79.32,83.78,2
77,79.28,83.71,2
77,79.23,83.64,2
78,79.21,83.59,2
76,79.14,83.51,2
76,79.08,83.43,2
77,79.04,83.37,2
76,78.98,83.30,2
76,78.92,83.22,2
76,78.86,83.15,2
76,78.80,83.08,2
76,78.75,83.01,2
80,78.77,82.98,2
76,78.72,82.91,2
76,78.66,82.84,2
76,78.61,82.77,2
76,78.56,82.70,2
76,78.51,82.64,2
76,78.46,82.57,2
75,78.39,82.50,2
75,78.32,82.42,2
76,78.27,82.36,2
76,78.23,82.29,2
76,78.18,82.23,2
76,78.14,82.17,2
76,78.10,82.11,2
77,78.07,82.05,2
76,78.03,81.99,2
72,77.91,81.89,2
76,77.87,81.84,2
76,77.84,81.78,2
76,77.80,81.72,2
76,77.76,81.66,2
76,77.73,81.61,2
75,77.67,81.54,2
74,77.60,81.46,2
76,77.57,81.41,2
76,77.54,81.36,2
75,77.49,81.29,2
76,77.46,81.24,2
76,77.43,81.19,2
78,77.44,81.15,2
78,77.45,81.12,2
76,77.42,81.07,2
76,77.39,81.02,2
77,77.38,80.98,2
76,77.36,80.93,2
76,77.33,80.88,2
77,77.32,80.84,2
77,77.32,80.80,2
76,77.29,80.76,2
78,77.30,80.73,2
76,77.28,80.68,2
76,77.25,80.63,2
77,77.25,80.60,2
76,77.22,80.55,2
76,77.20,80.51,2
77,77.19,80.47,2
76,77.17,80.43,2
76,77.15,80.38,2
76,77.12,80.34,2
77,77.12,80.31,2
76,77.10,80.26,2
75,77.06,80.21,2
76,77.04,80.17,2
76,77.02,80.13,2
78,77.04,80.10,2
77,77.03,80.07,2
76,77.01,80.03,2
76,76.99,79.99,2
76,76.97,79.95,2
76,76.95,79.91,2
76,76.94,79.87,2
76,76.92,79.84,2
76,76.90,79.80,2
76,76.88,79.76,2
76,76.86,79.72,2
76,76.85,79.68,2
77,76.85,79.66,2
76,76.83,79.62,2
76,76.81,79.58,2
76,76.80,79.55,2
77,76.80,79.52,2
77,76.81,79.50,2
76,76.79,79.46,2
75,76.75,79.42,2
76,76.74,79.38,2
76,76.72,79.35,2
75,76.69,79.31,2
76,76.68,79.27,2
76,76.66,79.24,2
76,76.65,79.21,2
75,76.62,79.17,2
76,76.60,79.13,2
76,76.59,79.10,2
76,76.58,79.07,2
76,76.57,79.04,2
76,76.56,79.01,2
77,76.57,78.99,2
76,76.55,78.96,2
76,76.54,78.93,2
76,76.53,78.90,2
76,76.52,78.87,2
76,76.51,78.84,2
76,76.50,78.82,2
76,76.49,78.79,2
76,76.48,78.76,2
76,76.47,78.73,2
76,76.46,78.71,2
76,76.45,78.68,2
76,76.44,78.65,2
75,76.42,78.61,2
76,76.41,78.59,2
76,76.40,78.56,2
75,76.37,78.53,2
75,76.34,78.49,2
74,76.30,78.45,2
76,76.29,78.42,2
75,76.26,78.39,2
76,76.26,78.36,2
76,76.25,78.34,2
74,76.21,78.30,2
76,76.21,78.27,2
74,76.16,78.23,2
75,76.14,78.20,2
74,76.10,78.16,2
75,76.07,78.13,2
76,76.07,78.10,2
74,76.03,78.06,2
76,76.03,78.04,2
75,76.01,78.01,2
74,75.97,77.97,2
74,75.93,77.93,2
74,75.89,77.89,2
75,75.87,77.86,2
71,75.78,77.80,2
74,75.74,77.76,2
76,75.75,77.74,2
76,75.75,77.72,2
78,75.80,77.73,2
74,75.76,77.69,2
76,75.76,77.67,2
74,75.73,77.63,2
71,75.63,77.57,2
74,75.60,77.53,2
75,75.59,77.51,2
74,75.56,77.47,2
74,75.53,77.44,2
74,75.50,77.40,2
74,75.47,77.37,2
74,75.44,77.34,2
74,75.41,77.30,2
74,75.38,77.27,2
74,75.35,77.24,2
74,75.33,77.20,2
75,75.32,77.18,2
75,75.31,77.16,2
75,75.31,77.14,2
74,75.28,77.11,2
76,75.29,77.10,2
74,75.27,77.07,2
74,75.24,77.03,2
76,75.26,77.02,2
76,75.27,77.01,2
74,75.25,76.98,2
74,75.22,76.95,2
73,75.18,76.91,2
74,75.15,76.89,2
74,75.13,76.86,2
74,75.11,76.83,2
75,75.11,76.81,2
74,75.08,76.78,2
73,75.04,76.74,2
74,75.02,76.72,2
73,74.98,76.68,2
74,74.96,76.65,2
74,74.94,76.63,2
72,74.88,76.58,2
73,74.85,76.54,2
73,74.81,76.51,2
74,74.79,76.48,2
74,74.78,76.46,2
73,74.74,76.42,2
73,74.71,76.39,2
74,74.69,76.37,2
72,74.64,76.32,2
73,74.61,76.29,2
73,74.57,76.26,2
74,74.56,76.23,2
74,74.55,76.21,2
73,74.52,76.18,2
73,74.49,76.15,2
72,74.44,76.11,2
74,74.43,76.08,2
74,74.42,76.06,2
74,74.41,76.04,2
74,74.41,76.02,2
72,74.36,75.98,2
73,74.33,75.95,2
73,74.30,75.92,2
72,74.26,75.88,2
72,74.21,75.85,2
73,74.19,75.82,2
73,74.16,75.79,2
74,74.16,75.77,2
74,74.16,75.75,2
74,74.16,75.74,2
73,74.13,75.71,2
72,74.09,75.67,2
74,74.09,75.65,2
74,74.09,75.64,2
74,74.08,75.62,2
74,74.08,75.61,2
72,74.04,75.57,2
74,74.04,75.55,2
74,74.04,75.54,2
73,74.02,75.51,2
74,74.02,75.50,2
74,74.02,75.48,2
74,74.02,75.47,2
74,74.02,75.45,2
73,74.00,75.43,2
74,74.00,75.41,2
74,74.00,75.40,2
73,73.98,75.38,2
74,73.98,75.36,2
74,73.98,75.35,2
74,73.98,75.33,2
74,73.98,75.32,2
74,73.98,75.31,2
74,73.98,75.30,2
74,73.98,75.28,2
74,73.98,75.27,2
73,73.96,75.25,2
74,73.96,75.23,2
78,74.04,75.26,2
74,74.04,75.25,2
74,74.04,75.24,2
74,74.04,75.22,2
74,74.04,75.21,2
74,74.04,75.20,2
73,74.02,75.18,2
78,74.10,75.21,2
73,74.08,75.18,2
74,74.07,75.17,2
73,74.05,75.15,2
74,74.05,75.14,2
73,74.03,75.12,2
74,74.03,75.11,2
73,74.01,75.09,2
71,73.95,75.04,2
75,73.97,75.04,2
74,73.97,75.03,2
74,73.97,75.02,2
75,73.99,75.02,2
75,74.01,75.02,2
76,74.05,75.03,2
75,74.07,75.03,2
75,74.09,75.03,2
76,74.13,75.04,2
76,74.16,75.05,2
75,74.18,75.05,2
77,74.24,75.07,2
76,74.27,75.08,2
76,74.31,75.09,2
76,74.34,75.10,2
76,74.37,75.11,2
77,74.43,75.13,2
76,74.46,75.13,2
76,74.49,75.14,2
77,74.54,75.16,2
77,74.59,75.18,2
76,74.62,75.19,2
76,74.64,75.20,2
77,74.69,75.21,2
78,74.76,75.24,2
76,74.78,75.25,2
77,74.83,75.27,2
79,74.91,75.30,2
77,74.95,75.32,2
76,74.97,75.33,2
76,74.99,75.34,2
77,75.03,75.35,2
77,75.07,75.37,2
78,75.13,75.39,2
79,75.21,75.43,2
77,75.25,75.45,2
77,75.28,75.46,2
76,75.29,75.47,2
76,75.31,75.47,2
77,75.34,75.49,2
78,75.40,75.51,2
78,75.45,75.54,2
78,75.50,75.56,2
78,75.55,75.59,2
78,75.60,75.61,2
78,75.65,75.64,2
79,75.71,75.67,2
79,75.78,75.70,2
78,75.82,75.73,2
78,75.87,75.75,2
79,75.93,75.78,2
79,75.99,75.81,2
78,76.03,75.83,2
78,76.07,75.86,2
78,76.11,75.88,2
80,76.19,75.92,2
78,76.22,75.94,2
80,76.30,75.98,2
79,76.35,76.01,2
80,76.43,76.05,2
78,76.46,76.07,2
79,76.51,76.10,2
79,76.56,76.13,2
80,76.63,76.17,2
80,76.69,76.21,2
80,76.76,76.24,2
79,76.80,76.27,2
80,76.87,76.31,2
82,76.97,76.36,2
79,77.01,76.39,2
79,77.05,76.42,2
79,77.09,76.44,2
79,77.13,76.47,2
79,77.17,76.49,2
79,77.20,76.52,2
80,77.26,76.55,2
80,77.31,76.59,2
79,77.35,76.61,2
79,77.38,76.64,2
79,77.41,76.66,2
80,77.46,76.69,2
80,77.52,76.73,2
79,77.55,76.75,2
80,77.59,76.78,2
80,77.64,76.81,2
79,77.67,76.84,2
81,77.74,76.88,2
84,77.86,76.95,2
81,77.92,76.99,2
81,77.99,77.03,2
82,78.07,77.08,2
82,78.14,77.13,2
83,78.24,77.19,2
82,78.32,77.23,2
82,78.39,77.28,2
82,78.46,77.33,2
82,78.53,77.38,2
83,78.62,77.43,2
83,78.71,77.49,2
83,78.80,77.54,2
84,78.90,77.61,2
83,78.98,77.66,2
83,79.06,77.72,2
84,79.16,77.78,2
83,79.24,77.83,2
82,79.29,77.87,2
87,79.45,77.96,2
83,79.52,78.01,2
83,79.59,78.06,2
82,79.64,78.10,2
82,79.68,78.14,2
85,79.79,78.21,2
86,79.91,78.29,2
86,80.04,78.37,2
86,80.16,78.44,2
87,80.29,78.53,2
86,80.41,78.60,2
86,80.52,78.68,2
86,80.63,78.75,2
88,80.78,78.84,2
87,80.90,78.92,2
86,81.00,78.99,2
84,81.06,79.04,2
88,81.20,79.13,2
86,81.30,79.20,2
86,81.39,79.27,2
86,81.48,79.34,2
87,81.59,79.41,2
86,81.68,79.48,2
88,81.81,79.57,2
88,81.93,79.65,2
88,82.05,79.73,2
88,82.17,79.82,2
88,82.29,79.90,2
90,82.44,80.00,2
91,82.61,80.11,2
91,82.78,80.22,2
90,82.93,80.32,2
92,83.11,80.43,2
92,83.29,80.55,2
96,83.54,80.70,2
98,83.83,80.88,2
98,84.11,81.05,2
98,84.39,81.22,2
98,84.66,81.38,2
98,84.93,81.55,2
100,85.23,81.73,2
101,85.55,81.93,2
99,85.81,82.10,2
99,86.08,82.27,2
100,86.36,82.44,2
100,86.63,82.62,2
100,86.90,82.79,2
99,87.14,82.96,2
102,87.44,83.15,2
100,87.69,83.32,2
100,87.93,83.48,2
100,88.18,83.65,2
100,88.41,83.81,2
100,88.64,83.97,2
101,88.89,84.14,2
101,89.13,84.31,2
101,89.37,84.48,2
101,89.60,84.64,2
105,89.91,84.85,2
103,90.17,85.03,2
103,90.43,85.21,2
105,90.72,85.41,2
103,90.97,85.58,2
103,91.21,85.76,2
103,91.44,85.93,2
105,91.71,86.12,2
107,92.02,86.33,2
106,92.30,86.53,2
106,92.57,86.72,2
105,92.82,86.90,2
106,93.09,87.09,2
106,93.34,87.28,2
107,93.62,87.48,2
107,93.88,87.67,2
108,94.17,87.88,2
108,94.44,88.08,2
108,94.71,88.28,2
107,94.96,88.47,2
108,95.22,88.66,2
109,95.50,88.86,2
109,95.77,89.07,2
111,96.07,89.29,2
111,96.37,89.50,2
112,96.68,89.73,2
114,97.03,89.97,2
114,97.37,90.21,2
116,97.74,90.47,2
117,98.13,90.73,2
115,98.46,90.98,2
116,98.81,91.23,2
117,99.18,91.48,2
117,99.53,91.74,2
119,99.92,92.01,2
119,100.31,92.28,2
119,100.68,92.55,2
118,101.03,92.80,2
118,101.37,93.06,2
118,101.70,93.31,2
119,102.04,93.56,2
119,102.38,93.82,2
119,102.72,94.07,2
120,103.06,94.33,2
120,103.40,94.58,2
120,103.73,94.84,2
120,104.06,95.09,2
122,104.42,95.36,2
122,104.77,95.63,2
122,105.11,95.89,2
123,105.47,96.16,2
122,105.80,96.42,2
123,106.14,96.68,2
123,106.48,96.95,2
123,106.81,97.21,2
124,107.16,97.48,2
123,107.47,97.73,2
125,107.82,98.00,2
123,108.13,98.25,2
124,108.44,98.51,2
122,108.72,98.75,2
122,108.98,98.98,2
124,109.28,99.23,2
124,109.58,99.48,2
124,109.86,99.72,2
124,110.15,99.96,2
124,110.42,100.21,2
124,110.70,100.44,2
124,110.96,100.68,2
129,111.32,100.96,2
125,111.60,101.20,2
125,111.86,101.44,2
127,112.17,101.70,2
127,112.46,101.95,2
127,112.75,102.20,2
127,113.04,102.45,2
128,113.34,102.70,2
129,113.65,102.97,2
130,113.98,103.24,2
129,114.28,103.49,2
129,114.57,103.75,2
129,114.86,104.00,2
131,115.18,104.27,2
131,115.50,104.54,2
132,115.83,104.81,2
131,116.13,105.08,2
133,116.47,105.35,2
133,116.80,105.63,2
133,117.13,105.90,2
134,117.46,106.19,2
134,117.79,106.46,2
134,118.12,106.74,2
133,118.42,107.00,2
134,118.73,107.27,2
135,119.05,107.55,2
135,119.37,107.82,2
135,119.68,108.10,2
135,119.99,108.36,2
136,120.31,108.64,2
136,120.63,108.91,2
135,120.91,109.18,2
135,121.19,109.43,2
136,121.49,109.70,2
136,121.78,109.96,2
137,122.09,110.23,2
137,122.38,110.50,2
139,122.72,110.79,2
139,123.04,111.07,2
138,123.34,111.34,2
138,123.63,111.60,2
139,123.94,111.88,2
138,124.22,112.14,2
141,124.56,112.43,2
141,124.89,112.71,2
140,125.19,112.99,2
142,125.53,113.28,2
145,125.91,113.59,2
143,126.26,113.89,2
143,126.59,114.18,2
144,126.94,114.48,2
144,127.28,114.77,2
143,127.60,115.05,2
147,127.98,115.37,2
145,128.32,115.67,2
146,128.68,115.97,2
148,129.06,116.29,2
148,129.44,116.61,2
149,129.83,116.93,2
150,130.24,117.26,2
149,130.61,117.58,2
153,131.06,117.94,2
153,131.50,118.29,2
152,131.91,118.62,2
152,132.31,118.96,2
152,132.70,119.29,2
151,133.07,119.61,2
152,133.45,119.93,2
152,133.82,120.25,2
151,134.16,120.56,2
151,134.50,120.86,2
149,134.79,121.14,2
151,135.11,121.44,2
152,135.45,121.75,2
151,135.76,122.04,2
152,136.09,122.34,2
151,136.39,122.63,2
151,136.68,122.91,2
152,136.98,123.20,2
152,137.28,123.49,2
151,137.56,123.76,2
152,137.85,124.05,2
151,138.11,124.32,2
151,138.37,124.58,2
151,138.62,124.85,2
151,138.87,125.11,2
151,139.11,125.37,2
152,139.37,125.63,2
152,139.62,125.90,2
152,139.87,126.16,2
153,140.13,126.43,2
151,140.35,126.67,2
152,140.58,126.93,2
152,140.81,127.18,2
153,141.05,127.43,2
153,141.29,127.69,2
154,141.55,127.95,2
153,141.78,128.20,2
154,142.02,128.46,2
153,142.24,128.71,2
153,142.46,128.95,2
153,142.67,129.19,2
154,142.89,129.44,2
153,143.10,129.67,2
153,143.29,129.91,2
153,143.49,130.14,2
153,143.68,130.37,2
153,143.86,130.59,2
152,144.03,130.81,2
153,144.21,131.03,2
151,144.34,131.23,2
152,144.50,131.44,2
151,144.63,131.63,2
153,144.79,131.85,2
152,144.94,132.05,2
152,145.08,132.25,2
151,145.20,132.43,2
151,145.31,132.62,2
151,145.43,132.80,2
151,145.54,132.99,2
150,145.63,133.16,2
150,145.72,133.32,2
149,145.78,133.48,2
149,145.85,133.64,2
149,145.91,133.79,2
149,145.97,133.94,2
150,146.05,134.10,2
149,146.11,134.25,2
149,146.17,134.40,2
147,146.18,134.53,2
149,146.24,134.67,2
149,146.30,134.81,2
148,146.33,134.95,2
148,146.36,135.08,2
147,146.38,135.20,2
148,146.41,135.32,2
148,146.44,135.45,2
147,146.45,135.57,2
147,146.46,135.68,2
148,146.49,135.80,2
147,146.50,135.92,2
148,146.53,136.04,2
146,146.52,136.14,2
147,146.53,136.24,2
146,146.52,136.34,2
147,146.53,136.45,2
147,146.54,136.55,2
148,146.57,136.67,2
147,146.58,136.77,2
150,146.65,136.90,2
147,146.65,137.00,2
148,146.68,137.11,2
147,146.69,137.21,2
147,146.69,137.31,2
147,146.70,137.41,2
145,146.67,137.48,2
146,146.65,137.57,2
145,146.62,137.64,2
145,146.59,137.72,2
145,146.56,137.79,2
145,146.52,137.86,2
145,146.49,137.93,2
145,146.46,138.00,2
145,146.43,138.07,2
145,146.41,138.14,2
144,146.36,138.20,2
145,146.33,138.27,2
144,146.28,138.33,2
145,146.26,138.39,2
144,146.21,138.45,2
145,146.19,138.52,2
143,146.12,138.56,2
143,146.06,138.60,2
143,146.00,138.65,2
143,145.94,138.69,2
143,145.88,138.74,2
143,145.82,138.78,2
143,145.77,138.82,2
142,145.69,138.85,2
143,145.64,138.89,2
141,145.55,138.91,2
142,145.48,138.95,2
142,145.41,138.98,2
143,145.36,139.02,2
141,145.27,139.04,2
142,145.21,139.07,2
141,145.12,139.09,2
141,145.04,139.10,2
141,144.96,139.12,2
141,144.88,139.14,2
140,144.78,139.15,2
140,144.69,139.16,2
140,144.59,139.17,2
139,144.48,139.17,2
141,144.41,139.18,2
140,144.32,139.19,2
141,144.26,139.21,2
139,144.15,139.21,2
139,144.05,139.21,2
139,143.95,139.20,2
139,143.85,139.20,2
139,143.75,139.20,2
137,143.62,139.18,2
137,143.48,139.16,2
137,143.35,139.13,2
137,143.23,139.11,2
138,143.12,139.10,2
137,143.00,139.08,2
137,142.88,139.06,2
137,142.76,139.04,2
137,142.65,139.02,2
137,142.53,139.00,2
137,142.42,138.98,2
136,142.29,138.95,2
136,142.17,138.92,2
137,142.07,138.90,2
136,141.94,138.87,2
137,141.85,138.85,2
136,141.73,138.82,2
136,141.61,138.80,2
136,141.50,138.77,2
135,141.37,138.73,2
136,141.26,138.70,2
135,141.14,138.67,2
135,141.02,138.63,2
135,140.90,138.59,2
133,140.74,138.54,2
133,140.58,138.48,2
135,140.47,138.45,2
134,140.34,138.40,2
134,140.22,138.36,2
133,140.07,138.31,2
133,139.93,138.25,2
133,139.79,138.20,2
133,139.66,138.15,2
133,139.52,138.10,2
133,139.39,138.05,2
133,139.26,137.99,2
132,139.12,137.93,2
132,138.98,137.88,2
133,138.86,137.83,2
132,138.72,137.77,2
132,138.59,137.71,2
132,138.45,137.65,2
131,138.30,137.59,2
132,138.18,137.53,2
132,138.05,137.48,2
131,137.91,137.41,2
132,137.80,137.36,2
131,137.66,137.29,2
131,137.53,137.23,2
131,137.40,137.17,2
129,137.23,137.09,2
129,137.06,137.01,3
129,136.90,136.93,3
130,136.76,136.86,4
129,136.61,136.78,4
129,136.46,136.70,4
129,136.31,136.62,4
129,136.16,136.55,4
129,136.02,136.47,4
128,135.86,136.39,4
128,135.70,136.30,4
128,135.55,136.22,4
128,135.40,136.14,4
128,135.25,136.06,4
127,135.08,135.97,4
127,134.92,135.88,4
127,134.76,135.79,4
127,134.61,135.70,4
127,134.46,135.61,4
127,134.31,135.53,4
127,134.16,135.44,4
127,134.02,135.36,4
126,133.86,135.26,4
126,133.70,135.17,4
126,133.55,135.08,4
127,133.41,135.00,4
125,133.25,134.90,4
125,133.08,134.80,4
125,132.92,134.70,4
125,132.76,134.60,4
125,132.61,134.51,4
125,132.45,134.41,4
125,132.30,134.32,4
124,132.14,134.22,4
125,132.00,134.12,4
124,131.84,134.02,4
123,131.66,133.91,4
124,131.51,133.81,4
124,131.36,133.71,4
123,131.19,133.61,4
124,131.05,133.51,4
123,130.88,133.41,4
124,130.75,133.31,4
123,130.59,133.21,4
123,130.44,133.11,4
123,130.29,133.01,4
121,130.11,132.89,4
121,129.92,132.77,4
121,129.74,132.65,4
121,129.57,132.53,4
122,129.42,132.43,4
121,129.25,132.31,4
123,129.12,132.22,4
121,128.96,132.11,4
121,128.80,132.00,4
121,128.65,131.89,4
121,128.49,131.78,4
121,128.34,131.67,4
121,128.20,131.56,4
120,128.03,131.45,4
120,127.87,131.33,4
121,127.74,131.23,4
120,127.58,131.12,4
120,127.43,131.01,4
118,127.24,130.88,4
120,127.10,130.77,4
120,126.95,130.66,4
119,126.79,130.54,4
119,126.64,130.43,4
119,126.49,130.31,4
119,126.34,130.20,4
119,126.19,130.09,4
117,126.01,129.96,4
118,125.85,129.84,4
119,125.71,129.73,4
118,125.55,129.61,4
119,125.42,129.51,4
118,125.28,129.39,4
117,125.11,129.27,4
117,124.95,129.14,4
118,124.81,129.03,4
117,124.65,128.91,4
117,124.50,128.79,4
117,124.35,128.68,4
118,124.22,128.57,4
117,124.08,128.45,4
117,123.94,128.34,4
117,123.80,128.23,4
117,123.66,128.11,4
117,123.53,128.00,4
115,123.36,127.87,4
116,123.21,127.75,4
117,123.09,127.65,4
116,122.94,127.53,4
115,122.79,127.40,4
116,122.65,127.29,4
115,122.50,127.17,4
116,122.37,127.06,4
115,122.22,126.94,4
115,122.08,126.82,4
114,121.91,126.69,4
118,121.84,126.60,4
113,121.66,126.46,4
113,121.49,126.33,4
113,121.32,126.20,4
113,121.15,126.06,4
113,120.99,125.93,4
113,120.83,125.80,4
113,120.67,125.68,4
113,120.52,125.55,4
113,120.37,125.42,4
113,120.22,125.30,4
113,120.07,125.18,4
113,119.93,125.06,4
111,119.75,124.91,4
112,119.60,124.79,4
113,119.47,124.67,4
112,119.32,124.54,4
113,119.19,124.43,4
112,119.05,124.30,4
111,118.89,124.17,4
111,118.73,124.04,4
111,118.57,123.91,4
111,118.42,123.78,4
111,118.27,123.65,4
111,118.13,123.52,4
111,117.99,123.40,4
111,117.85,123.27,4
111,117.71,123.15,4
111,117.58,123.03,4
111,117.44,122.91,4
110,117.30,122.78,4
110,117.15,122.65,4
109,116.99,122.52,4
109,116.83,122.38,4
109,116.67,122.25,4
109,116.52,122.11,4
109,116.37,121.98,4
109,116.22,121.85,4
109,116.07,121.72,4
109,115.93,121.60,4
109,115.79,121.47,4
109,115.66,121.35,4
109,115.53,121.22,4
109,115.40,121.10,4
108,115.25,120.97,4
109,115.12,120.85,4
108,114.98,120.72,4
108,114.84,120.59,4
107,114.68,120.46,4
108,114.55,120.33,4
107,114.40,120.20,4
107,114.25,120.07,4
107,114.11,119.94,4
106,113.94,119.80,4
107,113.80,119.67,4
107,113.67,119.54,4
106,113.52,119.41,4
106,113.37,119.27,4
106,113.22,119.14,4
105,113.05,119.00,4
106,112.91,118.87,4
106,112.77,118.74,4
105,112.62,118.60,4
105,112.47,118.47,4
105,112.32,118.33,4
105,112.17,118.20,4
105,112.03,118.07,4
105,111.89,117.94,4
105,111.75,117.81,4
105,111.61,117.68,4
105,111.48,117.55,4
105,111.35,117.43,4
104,111.21,117.29,4
105,111.08,117.17,4
104,110.94,117.04,4
104,110.80,116.91,4
104,110.66,116.78,4
105,110.55,116.66,4
105,110.44,116.55,4
104,110.31,116.42,4
104,110.19,116.30,4
103,110.04,116.16,4
103,109.90,116.03,4
104,109.78,115.91,4
103,109.65,115.78,4
103,109.51,115.65,4
103,109.38,115.53,4
103,109.26,115.40,4
102,109.11,115.27,4
104,109.01,115.16,4
101,108.85,115.01,4
101,108.69,114.87,4
102,108.56,114.74,4
103,108.45,114.63,4
103,108.34,114.51,4
102,108.21,114.39,4
101,108.07,114.25,4
101,107.93,114.12,4
101,107.79,113.99,4
101,107.65,113.86,4
101,107.52,113.73,4
102,107.41,113.61,4
101,107.28,113.49,4
101,107.15,113.36,4
101,107.03,113.24,4
101,106.91,113.12,4
101,106.79,112.99,4
101,106.68,112.87,4
100,106.54,112.75,4
99,106.39,112.61,4
99,106.24,112.47,4
100,106.12,112.35,4
100,106.00,112.22,4
99,105.86,112.09,4
99,105.72,111.96,4
100,105.61,111.84,4
100,105.49,111.72,4
99,105.36,111.60,4
99,105.24,111.47,4
98,105.09,111.33,4
98,104.95,111.20,4
98,104.81,111.07,4
99,104.69,110.95,4
98,104.56,110.82,4
99,104.45,110.70,4
98,104.32,110.57,4
98,104.19,110.45,4
98,104.07,110.32,4
98,103.95,110.20,4
98,103.83,110.08,4
98,103.71,109.96,4
98,103.60,109.84,4
98,103.49,109.72,4
98,103.38,109.60,4
97,103.25,109.48,4
97,103.12,109.35,4
97,103.00,109.23,4
98,102.90,109.12,4
97,102.78,109.00,4
97,102.67,108.88,4
97,102.55,108.76,4
98,102.46,108.65,4
96,102.33,108.52,4
96,102.21,108.40,4
97,102.10,108.28,4
95,101.96,108.15,4
94,101.80,108.01,4
96,101.69,107.89,4
96,101.57,107.77,4
96,101.46,107.65,4
97,101.37,107.55,4
96,101.26,107.43,4
96,101.16,107.32,4
96,101.06,107.20,4
95,100.93,107.08,4
95,100.82,106.96,4
94,100.68,106.83,4
94,100.55,106.70,4
95,100.44,106.58,4
94,100.31,106.46,4
95,100.20,106.34,4
94,100.08,106.22,4
95,99.98,106.11,4
96,99.90,106.01,4
95,99.80,105.90,4
93,99.66,105.77,4
93,99.53,105.64,4
93,99.40,105.51,4
94,99.29,105.40,4
93,99.16,105.28,4
94,99.06,105.16,4
94,98.96,105.05,4
94,98.86,104.94,4
93,98.74,104.82,4
93,98.63,104.70,4
93,98.52,104.59,4
92,98.39,104.46,4
93,98.28,104.35,4
93,98.17,104.23,4
93,98.07,104.12,4
93,97.97,104.01,4
93,97.87,103.90,4
92,97.75,103.78,4
91,97.62,103.65,4
92,97.50,103.54,4
94,97.43,103.44,4
92,97.32,103.33,4
92,97.22,103.21,4
91,97.09,103.09,4
91,96.97,102.97,4
92,96.87,102.86,4
91,96.76,102.74,4
91,96.64,102.62,4
92,96.55,102.52,4
91,96.44,102.40,4
91,96.33,102.29,4
89,96.18,102.16,4
90,96.06,102.03,4
91,95.96,101.92,4
92,95.88,101.82,4
89,95.74,101.70,4
90,95.62,101.58,4
91,95.53,101.47,4
90,95.42,101.36,4
89,95.29,101.23,4
89,95.17,101.11,4
89,95.04,100.99,4
89,94.92,100.87,4
91,94.84,100.77,4
91,94.77,100.67,4
89,94.65,100.56,4
91,94.58,100.46,4
89,94.47,100.35,4
89,94.36,100.23,4
89,94.25,100.12,4
89,94.15,100.01,4
91,94.08,99.92,4
88,93.96,99.80,4
90,93.88,99.70,4
90,93.80,99.61,4
90,93.73,99.51,4
88,93.61,99.40,4
90,93.54,99.30,4
88,93.43,99.19,4
88,93.32,99.08,4
88,93.22,98.97,4
89,93.13,98.87,4
88,93.03,98.76,4
88,92.93,98.65,4
88,92.83,98.54,4
88,92.73,98.44,4
88,92.64,98.33,4
88,92.55,98.23,4
88,92.45,98.13,4
88,92.37,98.03,4
89,92.30,97.94,4
88,92.21,97.84,4
88,92.13,97.74,4
88,92.05,97.64,4
87,91.94,97.53,4
86,91.83,97.42,4
86,91.71,97.31,4
88,91.64,97.21,4
88,91.56,97.12,4
87,91.47,97.02,4
88,91.40,96.93,4
87,91.31,96.83,4
87,91.23,96.73,4
86,91.12,96.62,4
88,91.06,96.54,4
87,90.98,96.44,4
88,90.92,96.36,4
86,90.82,96.25,4
87,90.74,96.16,4
86,90.65,96.06,4
86,90.56,95.96,4
86,90.47,95.86,4
86,90.38,95.76,4
86,90.29,95.66,4
86,90.20,95.57,4
85,90.10,95.46,4
86,90.02,95.37,4
86,89.94,95.27,4
85,89.84,95.17,4
85,89.74,95.07,4
86,89.67,94.98,4
85,89.57,94.88,4
85,89.48,94.78,4
85,89.39,94.68,4
85,89.30,94.58,4
85,89.22,94.49,4
86,89.15,94.40,4
87,89.11,94.33,4
85,89.03,94.24,4
84,88.93,94.13,4
86,88.87,94.05,4
85,88.79,93.96,4
84,88.70,93.86,4
84,88.60,93.76,4
84,88.51,93.67,4
86,88.46,93.59,4
84,88.37,93.49,4
84,88.28,93.40,4
84,88.20,93.31,4
84,88.11,93.21,4
84,88.03,93.12,4
82,87.91,93.01,4
84,87.83,92.92,4
84,87.76,92.83,4
83,87.66,92.73,4
82,87.55,92.62,4
84,87.48,92.54,4
84,87.41,92.45,4
83,87.32,92.36,4
84,87.25,92.27,4
84,87.19,92.19,4
84,87.12,92.11,4
84,87.06,92.03,4
84,87.00,91.95,4
81,86.88,91.84,4
83,86.80,91.75,4
84,86.75,91.67,4
82,86.65,91.58,4
86,86.64,91.52,4
84,86.59,91.45,4
82,86.49,91.35,4
84,86.44,91.28,4
84,86.40,91.20,4
83,86.33,91.12,4
84,86.28,91.05,4
83,86.22,90.97,4
84,86.17,90.90,4
82,86.09,90.81,4
82,86.01,90.72,4
82,85.93,90.64,4
79,85.79,90.52,4
84,85.75,90.45,4
82,85.68,90.37,4
82,85.60,90.29,4
83,85.55,90.21,4
82,85.48,90.13,4
82,85.41,90.05,4
82,85.34,89.97,4
82,85.28,89.89,4
82,85.21,89.81,4
82,85.15,89.73,4
82,85.08,89.66,4
82,85.02,89.58,4
82,84.96,89.50,4
82,84.90,89.43,4
82,84.84,89.35,4
81,84.77,89.27,4
80,84.67,89.18,4
82,84.62,89.11,4
81,84.55,89.03,4
80,84.45,88.93,4
80,84.37,88.85,4
81,84.30,88.77,4
81,84.23,88.69,4
80,84.15,88.60,4
80,84.06,88.52,4
81,84.00,88.44,4
79,83.90,88.35,4
80,83.83,88.26,4
80,83.75,88.18,4
81,83.69,88.11,4
80,83.62,88.03,4
80,83.55,87.95,4
80,83.48,87.87,4
82,83.45,87.81,4
81,83.40,87.74,4
81,83.35,87.67,4
82,83.32,87.62,4
80,83.26,87.54,4
79,83.17,87.46,4
79,83.09,87.37,4
80,83.03,87.30,4
80,82.97,87.22,4
79,82.89,87.14,4
79,82.81,87.06,4
80,82.75,86.99,4
79,82.68,86.91,4
79,82.60,86.83,4
78,82.51,86.74,4
79,82.44,86.67,4
79,82.37,86.59,4
78,82.29,86.50,4
80,82.24,86.44,4
78,82.15,86.35,4
78,82.07,86.27,4
78,81.99,86.19,4
78,81.91,86.11,4
78,81.83,86.02,4
78,81.76,85.94,4
78,81.68,85.86,4
78,81.61,85.79,4
79,81.55,85.72,4
78,81.48,85.64,4
78,81.41,85.56,4
78,81.35,85.49,4
77,81.26,85.40,4
78,81.19,85.33,4
78,81.13,85.26,4
77,81.05,85.17,4
78,80.99,85.10,4
78,80.93,85.03,4
77,80.85,84.95,4
77,80.77,84.87,4
78,80.72,84.80,4
76,80.62,84.71,4
78,80.57,84.65,4
77,80.50,84.57,4
77,80.43,84.50,4
76,80.34,84.41,4
76,80.25,84.33,4
77,80.19,84.25,4
76,80.10,84.17,4
76,80.02,84.09,4
76,79.94,84.01,4
77,79.88,83.94,4
76,79.80,83.86,4
77,79.75,83.79,4
76,79.67,83.71,4
77,79.62,83.64,4
76,79.55,83.57,4
76,79.48,83.49,4
76,79.41,83.42,4
76,79.34,83.34,4
76,79.27,83.27,4
76,79.21,83.20,4
76,79.14,83.13,4
77,79.10,83.06,4
75,79.02,82.98,4
76,78.96,82.91,4
78,78.94,82.86,4
75,78.86,82.79,4
75,78.78,82.71,4
76,78.73,82.64,4
76,78.67,82.57,4
75,78.60,82.50,4
76,78.55,82.43,4
76,78.50,82.37,4
76,78.45,82.31,4
75,78.38,82.23,4
75,78.31,82.16,4
76,78.26,82.10,4
76,78.22,82.04,4
75,78.15,81.97,4
76,78.11,81.91,4
74,78.03,81.83,4
73,77.93,81.74,4
74,77.85,81.66,4
76,77.81,81.61,4
75,77.76,81.54,4
75,77.70,81.47,4
75,77.65,81.41,4
74,77.57,81.34,4
74,77.50,81.26,4
74,77.43,81.19,4
75,77.38,81.13,4
74,77.32,81.06,4
74,77.25,80.99,4
74,77.18,80.92,4
75,77.14,80.86,4
75,77.10,80.80,4
74,77.04,80.73,4
74,76.98,80.66,4
75,76.94,80.61,4
75,76.90,80.55,4
74,76.84,80.49,4
74,76.78,80.42,4
75,76.75,80.37,4
75,76.71,80.31,4
74,76.66,80.25,4
74,76.60,80.19,4
74,76.55,80.13,4
75,76.52,80.07,4
74,76.47,80.01,4
74,76.42,79.95,4
73,76.35,79.88,4
74,76.31,79.82,4
74,76.26,79.77,4
74,76.21,79.71,4
73,76.15,79.64,4
74,76.11,79.59,4
74,76.07,79.53,4
74,76.02,79.47,4
72,75.94,79.40,4
73,75.88,79.34,4
73,75.83,79.27,4
72,75.75,79.20,4
72,75.68,79.13,4
74,75.64,79.08,4
74,75.61,79.03,4
72,75.54,78.95,4
73,75.49,78.90,4
72,75.42,78.83,4
72,75.35,78.76,4
72,75.28,78.69,4
73,75.24,78.63,4
72,75.17,78.57,4
73,75.13,78.51,4
72,75.06,78.45,4
72,75.00,78.38,4
72,74.94,78.32,4
72,74.88,78.26,4
72,74.83,78.19,4
73,74.79,78.14,4
73,74.75,78.09,4
74,74.74,78.05,4
72,74.68,77.99,4
73,74.65,77.94,4
73,74.62,77.89,4
72,74.57,77.83,4
74,74.55,77.79,4
74,74.54,77.75,4
73,74.51,77.71,4
74,74.50,77.67,4
74,74.49,77.63,4
73,74.46,77.59,4
74,74.45,77.55,4
74,74.44,77.51,4
74,74.44,77.48,4
73,74.41,77.43,4
74,74.40,77.40,4
74,74.39,77.37,4
74,74.38,77.33,4
73,74.35,77.29,4
74,74.35,77.26,4
76,74.38,77.24,4
74,74.37,77.21,4
75,74.39,77.19,4
74,74.38,77.16,4
74,74.37,77.13,4
74,74.36,77.09,4
74,74.36,77.06,4
76,74.39,77.05,4
73,74.36,77.01,4
74,74.35,76.98,4
74,74.35,76.95,4
76,74.38,76.94,4
74,74.37,76.91,4
73,74.34,76.87,4
74,74.34,76.85,4
74,74.33,76.82,4
73,74.30,76.78,4
73,74.28,76.74,4
74,74.27,76.71,4
74,74.27,76.69,4
76,74.30,76.68,4
73,74.28,76.64,4
72,74.23,76.60,4
72,74.19,76.55,4
72,74.14,76.51,4
73,74.12,76.47,4
74,74.12,76.45,4
75,74.13,76.43,4
72,74.09,76.39,4
72,74.05,76.34,4
72,74.01,76.30,4
72,73.97,76.26,4
73,73.95,76.22,4
72,73.91,76.18,4
72,73.87,76.14,4
72,73.83,76.10,4
71,73.78,76.05,4
72,73.74,76.01,4
72,73.71,75.97,4
72,73.67,75.93,4
72,73.64,75.89,4
72,73.61,75.85,4
72,73.58,75.81,4
72,73.54,75.77,4
72,73.51,75.73,4
73,73.50,75.71,4
73,73.49,75.68,4
73,73.48,75.65,4
72,73.45,75.62,4
72,73.42,75.58,4
73,73.42,75.55,4
73,73.41,75.53,4
72,73.38,75.49,4
72,73.35,75.46,4
72,73.32,75.42,4
73,73.32,75.40,4
72,73.29,75.37,4
72,73.27,75.33,4
72,73.24,75.30,4
73,73.24,75.28,4
72,73.21,75.24,4
72,73.19,75.21,4
74,73.20,75.20,4
72,73.18,75.17,4
72,73.16,75.14,4
72,73.13,75.10,4
73,73.13,75.08,4
74,73.15,75.07,4
72,73.12,75.04,4
72,73.10,75.01,4
72,73.08,74.98,4
72,73.06,74.95,4
72,73.04,74.92,4
74,73.06,74.91,4
73,73.05,74.89,4
72,73.03,74.86,4
72,73.01,74.84,4
72,72.99,74.81,4
74,73.01,74.80,4
72,72.99,74.77,4
72,72.97,74.74,4
72,72.95,74.72,4
73,72.95,74.70,4
74,72.98,74.69,4
72,72.96,74.67,4
74,72.98,74.66,4
72,72.96,74.63,4
74,72.98,74.63,4
72,72.96,74.60,4
74,72.98,74.59,4
72,72.96,74.57,4
74,72.98,74.56,4
72,72.96,74.54,4
72,72.94,74.51,4
72,72.92,74.49,4
73,72.92,74.47,4
72,72.91,74.45,4
72,72.89,74.42,4
72,72.87,74.40,4
71,72.83,74.36,4
72,72.82,74.34,4
72,72.80,74.32,4
73,72.80,74.30,4
73,72.81,74.29,4
72,72.79,74.27,4
72,72.78,74.24,4
72,72.76,74.22,4
72,72.75,74.20,4
72,72.73,74.18,4
71,72.70,74.15,4
71,72.66,74.11,4
72,72.65,74.09,4
72,72.64,74.07,4
72,72.62,74.05,4
72,72.61,74.03,4
72,72.60,74.01,4
72,72.59,73.99,4
72,72.57,73.97,4
74,72.60,73.97,4
72,72.59,73.95,4
73,72.60,73.94,4
72,72.59,73.92,4
73,72.60,73.91,4
72,72.58,73.89,4
72,72.57,73.88,4
72,72.56,73.86,4
72,72.55,73.84,4
74,72.58,73.84,4
72,72.57,73.82,4
72,72.56,73.80,4
72,72.54,73.79,4
73,72.55,73.78,4
72,72.54,73.76,4
72,72.53,73.74,4
72,72.52,73.72,4
74,72.55,73.73,4
72,72.54,73.71,4
72,72.53,73.69,4
72,72.52,73.68,4
72,72.51,73.66,4
71,72.48,73.63,4
70,72.43,73.60,4
72,72.42,73.58,4
74,72.45,73.58,4
72,72.44,73.57,4
70,72.39,73.53,4
71,72.37,73.51,4
72,72.36,73.49,4
72,72.35,73.48,4
72,72.34,73.46,4
72,72.34,73.45,4
71,72.31,73.42,4
72,72.30,73.41,4
72,72.30,73.40,4
73,72.31,73.39,4
72,72.31,73.38,4
72,72.30,73.36,4
72,72.29,73.35,4
72,72.29,73.34,4
72,72.28,73.32,4
72,72.28,73.31,4
72,72.27,73.30,4
72,72.27,73.28,4
72,72.26,73.27,4
72,72.25,73.26,4
72,72.25,73.25,4
73,72.26,73.24,4
72,72.26,73.23,4
72,72.25,73.22,4
72,72.25,73.21,4
73,72.26,73.20,4
72,72.26,73.19,4
72,72.25,73.18,4
74,72.29,73.19,4
72,72.28,73.18,4
72,72.28,73.16,4
72,72.27,73.15,4
72,72.27,73.14,4
74,72.30,73.15,4
74,72.34,73.16,4
72,72.33,73.15,4
73,72.34,73.15,4
73,72.35,73.14,4
72,72.35,73.13,4
74,72.38,73.14,4
74,72.41,73.15,4
73,72.43,73.15,4
72,72.42,73.14,4
76,72.49,73.17,4
74,72.52,73.17,4
73,72.53,73.17,4
72,72.52,73.16,4
74,72.55,73.17,4
72,72.54,73.16,4
73,72.55,73.16,4
72,72.53,73.14,4
73,72.54,73.14,4
74,72.57,73.15,4
75,72.62,73.17,4
74,72.65,73.18,4
74,72.68,73.19,4
74,72.70,73.19,4
74,72.73,73.20,4
74,72.75,73.21,4
74,72.78,73.22,4
73,72.78,73.22,4
74,72.81,73.22,4
73,72.81,73.22,4
74,72.84,73.23,4
74,72.86,73.24,4
74,72.88,73.24,4
73,72.88,73.24,4
74,72.91,73.25,4
74,72.93,73.26,4
76,72.99,73.29,4
76,73.05,73.31,4
74,73.07,73.32,4
74,73.09,73.33,4
75,73.13,73.34,4
75,73.16,73.36,4
74,73.18,73.37,4
74,73.20,73.37,4
74,73.21,73.38,4
75,73.25,73.39,4
75,73.28,73.41,4
74,73.30,73.42,4
75,73.33,73.43,4
75,73.36,73.45,4
75,73.40,73.46,4
74,73.41,73.47,4
76,73.46,73.49,4
75,73.49,73.51,4
74,73.50,73.51,4
74,73.51,73.52,4
75,73.54,73.53,4
76,73.59,73.56,4
74,73.60,73.56,4
76,73.65,73.59,4
76,73.69,73.61,4
76,73.74,73.64,4
74,73.75,73.64,4
74,73.75,73.64,4
74,73.76,73.65,4
75,73.78,73.66,4
74,73.79,73.66,4
76,73.83,73.69,4
76,73.87,73.71,4
75,73.90,73.72,4
75,73.92,73.74,4
74,73.92,73.74,4
79,74.02,73.79,4
75,74.04,73.80,4
74,74.04,73.80,4
74,74.04,73.81,4
76,74.08,73.83,4
75,74.10,73.84,4
76,74.13,73.86,4
77,74.19,73.89,4
79,74.29,73.94,4
75,74.30,73.95,4
76,74.34,73.98,4
76,74.37,74.00,4
76,74.40,74.02,4
76,74.43,74.04,4
76,74.47,74.05,4
76,74.50,74.07,4
75,74.51,74.08,4
76,74.54,74.10,4
76,74.57,74.12,4
78,74.63,74.16,4
77,74.68,74.19,4
76,74.71,74.21,4
76,74.73,74.23,4
76,74.76,74.24,4
75,74.76,74.25,4
76,74.79,74.27,4
77,74.83,74.30,4
76,74.86,74.31,4
77,74.90,74.34,4
79,74.98,74.39,4
76,75.00,74.40,4
77,75.04,74.43,4
77,75.08,74.45,4
80,75.18,74.51,4
77,75.22,74.53,4
78,75.27,74.57,4
79,75.35,74.61,4
81,75.46,74.68,4
78,75.51,74.71,4
78,75.56,74.74,4
78,75.61,74.78,4
78,75.66,74.81,4
79,75.72,74.85,4
79,75.79,74.89,4
79,75.85,74.93,4
79,75.92,74.97,4
80,76.00,75.02,4
80,76.08,75.07,4
82,76.20,75.14,4
81,76.29,75.20,4
80,76.37,75.25,4
84,76.52,75.34,4
84,76.67,75.42,4
85,76.83,75.52,4
82,76.94,75.58,4
82,77.04,75.65,4
84,77.18,75.73,4
85,77.34,75.82,4
86,77.51,75.93,4
87,77.70,76.04,4
87,77.88,76.15,4
86,78.05,76.24,4
86,78.21,76.34,4
86,78.36,76.44,4
86,78.51,76.53,4
87,78.68,76.64,4
88,78.87,76.75,4
88,79.05,76.87,4
89,79.25,76.99,4
89,79.45,77.11,4
88,79.62,77.22,4
88,79.79,77.32,4
88,79.95,77.43,4
88,80.11,77.54,4
88,80.27,77.64,4
88,80.42,77.74,4
88,80.57,77.85,4
89,80.74,77.96,4
90,80.93,78.08,4
90,81.11,78.20,4
90,81.29,78.32,4
89,81.44,78.42,4
90,81.61,78.54,4
92,81.82,78.67,4
92,82.02,78.81,4
91,82.20,78.93,4
92,82.40,79.06,4
92,82.59,79.19,4
93,82.80,79.33,4
93,83.00,79.46,4
92,83.18,79.59,4
93,83.38,79.72,4
93,83.57,79.86,4
92,83.74,79.98,4
92,83.91,80.10,4
93,84.09,80.23,4
94,84.29,80.36,4
93,84.46,80.49,4
92,84.61,80.61,4
93,84.78,80.73,4
94,84.96,80.86,4
93,85.12,80.98,4
94,85.30,81.11,4
96,85.52,81.26,4
95,85.71,81.40,4
97,85.93,81.56,4
96,86.13,81.70,4
98,86.37,81.86,4
101,86.66,82.05,4
102,86.97,82.25,4
102,87.27,82.45,4
101,87.54,82.64,4
103,87.85,82.84,4
104,88.18,83.05,4
104,88.49,83.26,4
105,88.82,83.48,4
103,89.11,83.67,4
104,89.40,83.88,4
105,89.72,84.09,4
105,90.02,84.30,4
105,90.32,84.50,4
105,90.62,84.71,4
105,90.90,84.91,4
106,91.21,85.12,4
106,91.50,85.33,4
107,91.81,85.55,4
105,92.07,85.74,4
107,92.37,85.96,4
107,92.67,86.17,4
107,92.95,86.37,4
107,93.23,86.58,4
106,93.49,86.78,4
108,93.78,86.99,4
108,94.06,87.20,4
108,94.34,87.41,4
109,94.64,87.62,4
109,94.92,87.84,4
109,95.20,88.05,4
110,95.50,88.27,4
109,95.77,88.47,4
110,96.05,88.69,4
109,96.31,88.89,4
111,96.61,89.11,4
112,96.92,89.34,4
113,97.24,89.58,4
116,97.61,89.84,4
114,97.94,90.08,4
115,98.28,90.33,4
117,98.66,90.60,4
118,99.04,90.87,4
120,99.46,91.17,4
122,99.91,91.47,4
121,100.33,91.77,4
123,100.79,92.08,4
125,101.27,92.41,4
128,101.81,92.77,4
124,102.25,93.08,4
125,102.71,93.40,4
124,103.13,93.70,4
125,103.57,94.02,4
126,104.02,94.34,4
125,104.44,94.64,4
126,104.87,94.96,4
127,105.31,95.28,4
128,105.76,95.60,4
128,106.21,95.93,4
130,106.68,96.27,4
131,107.17,96.62,4
130,107.63,96.95,4
130,108.08,97.28,4
130,108.51,97.61,4
132,108.98,97.95,4
132,109.44,98.29,4
133,109.91,98.64,4
132,110.36,98.97,4
132,110.79,99.30,4
134,111.25,99.65,4
133,111.69,99.98,4
133,112.11,100.31,4
135,112.57,100.66,4
135,113.02,101.00,4
136,113.48,101.35,4
139,113.99,101.73,4
139,114.49,102.10,4
140,115.00,102.48,4
139,115.48,102.85,4
141,115.99,103.23,4
144,116.55,103.64,4
143,117.08,104.03,4
144,117.62,104.43,4
146,118.19,104.85,4
147,118.76,105.27,4
150,119.39,105.71,4
150,120.00,106.16,4
154,120.68,106.64,4
155,121.37,107.12,4
153,122.00,107.58,4
153,122.62,108.03,4
154,123.25,108.49,4
156,123.90,108.97,4
157,124.56,109.45,4
157,125.21,109.92,4
157,125.85,110.39,4
157,126.47,110.86,4
156,127.06,111.31,4
157,127.66,111.77,4
157,128.25,112.22,4
157,128.82,112.67,4
158,129.41,113.12,4
158,129.98,113.57,4
157,130.52,114.01,4
159,131.09,114.46,4
159,131.65,114.90,4
160,132.21,115.35,4
160,132.77,115.80,4
162,133.35,116.26,4
165,133.99,116.75,4
163,134.57,117.21,4
167,135.22,117.71,4
165,135.81,118.18,4
165,136.40,118.65,4
163,136.93,119.09,4
165,137.49,119.55,4
167,138.08,120.03,4
165,138.62,120.48,4
165,139.14,120.92,4
168,139.72,121.39,4
169,140.31,121.87,4
168,140.86,122.33,4
168,141.40,122.79,4
168,141.94,123.24,4
168,142.46,123.69,4
169,142.99,124.14,4
171,143.55,124.61,4
171,144.10,125.07,4
172,144.66,125.54,4
171,145.18,126.00,4
172,145.72,126.46,4
173,146.26,126.92,4
173,146.80,127.38,4
173,147.32,127.84,4
173,147.84,128.29,4
173,148.34,128.74,4
173,148.83,129.18,4
175,149.36,129.64,4
174,149.85,130.08,4
175,150.35,130.53,4
177,150.89,130.99,4
177,151.41,131.45,4
176,151.90,131.90,4
177,152.40,132.35,4
177,152.89,132.80,4
177,153.38,133.24,4
179,153.89,133.70,4
179,154.39,134.15,4
181,154.92,134.62,4
181,155.44,135.08,4
181,155.96,135.54,4
181,156.46,136.00,4
181,156.95,136.45,4
181,157.43,136.89,4
181,157.90,137.33,4
180,158.34,137.76,4
179,158.75,138.17,4
180,159.18,138.59,4
180,159.60,139.00,4
180,160.00,139.41,4
179,160.38,139.81,4
179,160.76,140.20,4
179,161.12,140.59,4
178,161.46,140.96,4
178,161.79,141.33,4
177,162.09,141.69,4
177,162.39,142.04,4
177,162.68,142.39,4
177,162.97,142.74,4
177,163.25,143.08,4
177,163.53,143.42,4
176,163.78,143.75,4
177,164.04,144.08,4
175,164.26,144.39,4
177,164.51,144.72,4
175,164.72,145.02,4
175,164.93,145.32,4
175,165.13,145.62,4
175,165.33,145.91,4
174,165.50,146.19,4
175,165.69,146.48,4
174,165.86,146.75,4
172,165.98,147.01,4
173,166.12,147.27,4
173,166.26,147.52,4
173,166.39,147.78,4
174,166.55,148.04,4
174,166.69,148.30,4
174,166.84,148.56,4
173,166.96,148.80,4
173,167.08,149.04,4
175,167.24,149.30,4
173,167.36,149.54,4
173,167.47,149.77,4
173,167.58,150.01,4
172,167.67,150.23,4
173,167.78,150.45,4
172,167.86,150.67,4
172,167.94,150.88,4
171,168.00,151.08,4
172,168.08,151.29,4
171,168.14,151.49,4
172,168.22,151.70,4
171,168.28,151.89,4
171,168.33,152.08,4
171,168.38,152.27,4
172,168.46,152.47,4
170,168.49,152.64,4
170,168.52,152.81,4
169,168.53,152.98,4
169,168.54,153.14,4
169,168.55,153.30,4
169,168.55,153.45,4
169,168.56,153.61,4
169,168.57,153.76,4
168,168.56,153.90,4
166,168.51,154.03,4
168,168.50,154.17,4
168,168.49,154.30,4
168,168.48,154.44,4
167,168.45,154.57,4
167,168.42,154.69,4
167,168.39,154.81,4
167,168.36,154.94,4
166,168.32,155.05,4
165,168.25,155.15,4
165,168.19,155.24,4
166,168.14,155.35,4
165,168.08,155.45,4
167,168.06,155.56,4
165,168.00,155.66,4
165,167.94,155.75,4
165,167.88,155.84,4
165,167.82,155.94,4
166,167.78,156.04,4
165,167.73,156.13,4
164,167.65,156.20,4
163,167.56,156.27,4
164,167.49,156.35,4
163,167.40,156.42,4
163,167.31,156.48,4
163,167.23,156.55,4
163,167.14,156.61,4
163,167.06,156.68,4
162,166.96,156.73,4
162,166.86,156.78,4
163,166.78,156.84,4
161,166.67,156.89,4
161,166.55,156.93,4
161,166.44,156.97,4
161,166.33,157.01,4
161,166.23,157.05,4
160,166.10,157.08,4
161,166.00,157.12,4
160,165.88,157.15,4
160,165.76,157.17,4
159,165.63,157.19,4
160,165.51,157.22,4
159,165.38,157.24,4
159,165.26,157.26,4
159,165.13,157.27,4
160,165.03,157.30,4
158,164.89,157.31,4
158,164.75,157.31,4
157,164.59,157.31,4
159,164.48,157.33,4
158,164.35,157.33,4
158,164.23,157.34,4
157,164.08,157.34,4
157,163.94,157.33,4
157,163.80,157.33,4
156,163.65,157.32,4
157,163.51,157.31,4
155,163.34,157.29,4
156,163.20,157.28,4
156,163.05,157.27,4
154,162.87,157.23,4
155,162.71,157.21,4
156,162.58,157.20,4
155,162.43,157.18,4
154,162.26,157.14,4
153,162.07,157.10,4
154,161.91,157.07,4
153,161.73,157.03,4
153,161.56,156.99,4
153,161.39,156.95,4
153,161.22,156.91,4
153,161.06,156.87,4
153,160.89,156.83,4
152,160.72,156.79,4
152,160.54,156.74,4
151,160.35,156.68,4
151,160.16,156.62,4
152,160.00,156.58,4
151,159.82,156.52,4
152,159.66,156.48,4
149,159.45,156.40,4
151,159.28,156.35,4
149,159.08,156.27,4
150,158.90,156.21,4
150,158.72,156.15,4
149,158.52,156.08,4
149,158.33,156.01,4
149,158.15,155.94,4
149,157.96,155.87,4
149,157.78,155.80,4
149,157.61,155.73,4
148,157.42,155.65,4
149,157.25,155.59,4
147,157.04,155.50,4
149,156.88,155.44,4
147,156.68,155.35,4
147,156.49,155.27,4
148,156.32,155.20,4
147,156.13,155.11,4
149,155.99,155.05,4
148,155.83,154.98,4
147,155.66,154.90,4
146,155.46,154.81,4
145,155.25,154.72,4
146,155.07,154.63,4
145,154.87,154.53,4
145,154.67,154.44,4
145,154.48,154.34,4
145,154.29,154.25,5
145,154.10,154.16,5
145,153.92,154.06,5
145,153.74,153.97,5
144,153.55,153.87,5
144,153.35,153.78,5
143,153.15,153.67,5
141,152.90,153.54,5
143,152.71,153.44,5
144,152.53,153.34,5
143,152.34,153.24,5
143,152.15,153.14,5
143,151.97,153.03,5
142,151.77,152.92,5
143,151.60,152.82,5
142,151.40,152.72,5
142,151.22,152.61,5
141,151.01,152.49,5
141,150.81,152.38,5
141,150.62,152.26,5
141,150.42,152.15,5
141,150.24,152.04,5
141,150.05,151.93,5
141,149.87,151.82,5
141,149.69,151.71,5
139,149.48,151.59,5
140,149.29,151.47,5
140,149.10,151.35,5
139,148.90,151.23,5
140,148.72,151.12,5
139,148.53,151.00,5
139,148.34,150.88,5
139,148.15,150.76,5
139,147.97,150.64,5
138,147.77,150.51,5
137,147.55,150.38,5
138,147.36,150.26,5
138,147.17,150.13,5
137,146.97,150.00,5
138,146.79,149.88,5
137,146.60,149.75,5
139,146.44,149.65,5
137,146.26,149.52,5
137,146.07,149.39,5
136,145.87,149.26,5
137,145.69,149.14,5
137,145.52,149.02,5
135,145.31,148.88,5
136,145.12,148.75,5
135,144.92,148.61,5
136,144.74,148.48,5
135,144.55,148.35,5
135,144.35,148.22,5
135,144.17,148.08,5
134,143.96,147.94,5
135,143.78,147.81,5
135,143.61,147.68,5
134,143.42,147.55,5
135,143.25,147.42,5
133,143.04,147.28,5
133,142.84,147.14,5
133,142.65,146.99,5
133,142.45,146.85,5
134,142.28,146.73,5
133,142.10,146.59,5
133,141.92,146.45,5
132,141.72,146.31,5
132,141.52,146.16,5
131,141.31,146.01,5
132,141.13,145.87,5
132,140.94,145.73,5
132,140.77,145.60,5
131,140.57,145.45,5
132,140.40,145.32,5
131,140.21,145.17,5
130,140.01,145.02,5
132,139.85,144.89,5
131,139.67,144.75,5
129,139.46,144.60,5
130,139.27,144.45,5
130,139.08,144.30,5
130,138.90,144.16,5
129,138.70,144.01,5
129,138.51,143.86,5
129,138.32,143.71,5
130,138.15,143.57,5
129,137.97,143.43,5
129,137.79,143.28,5
129,137.61,143.14,5
129,137.44,143.00,5
129,137.27,142.86,5
129,137.11,142.72,5
127,136.90,142.56,5
129,136.75,142.43,5
128,136.57,142.28,5
128,136.40,142.14,5
129,136.25,142.01,5
128,136.09,141.87,5
128,135.93,141.73,5
128,135.77,141.59,5
127,135.59,141.45,5
125,135.38,141.28,5
127,135.21,141.14,5
127,135.05,141.00,5
128,134.91,140.87,5
127,134.75,140.73,5
127,134.59,140.59,5
127,134.44,140.46,5
127,134.29,140.32,5
127,134.15,140.19,5
127,134.00,140.06,5
127,133.86,139.93,5
127,133.73,139.80,5
127,133.59,139.67,5
126,133.44,139.53,5
126,133.29,139.40,5
127,133.17,139.27,5
127,133.04,139.15,5
127,132.92,139.03,5
127,132.80,138.91,5
127,132.69,138.79,5
127,132.57,138.67,5
127,132.46,138.56,5
126,132.33,138.43,5
127,132.23,138.32,5
126,132.10,138.19,5
126,131.98,138.07,5
127,131.88,137.96,5
127,131.78,137.85,5
126,131.67,137.73,5
127,131.57,137.62,5
126,131.46,137.51,5
125,131.33,137.38,5
125,131.21,137.26,5
126,131.10,137.15,5
125,130.98,137.03,5
125,130.86,136.90,5
125,130.74,136.79,5
125,130.63,136.67,5
125,130.52,136.55,5
128,130.47,136.47,5
125,130.36,136.35,5
125,130.25,136.24,5
125,130.14,136.13,5
125,130.04,136.01,5
126,129.96,135.91,5
125,129.86,135.80,5
125,129.76,135.70,5
125,129.67,135.59,5
125,129.58,135.48,5
125,129.48,135.38,5
125,129.39,135.28,5
125,129.31,135.17,5
125,129.22,135.07,5
125,129.14,134.97,5
124,129.03,134.86,5
124,128.93,134.75,5
123,128.81,134.63,5
124,128.72,134.53,5
124,128.62,134.42,5
125,128.55,134.33,5
123,128.44,134.22,5
125,128.37,134.12,5
124,128.28,134.02,5
125,128.22,133.93,5
125,128.15,133.84,5
124,128.07,133.74,5
124,127.99,133.65,5
124,127.91,133.55,5
124,127.83,133.45,5
124,127.75,133.36,5
124,127.68,133.27,5
123,127.59,133.16,5
125,127.53,133.08,5
123,127.44,132.98,5
123,127.35,132.88,5
123,127.27,132.78,5
123,127.18,132.68,5
123,127.10,132.59,5
123,127.02,132.49,5
122,126.92,132.39,5
121,126.80,132.27,5
121,126.68,132.16,5
122,126.59,132.06,5
121,126.48,131.95,5
121,126.37,131.84,5
121,126.26,131.73,5
121,126.15,131.62,5
121,126.05,131.52,5
121,125.95,131.41,5
121,125.85,131.31,5
120,125.73,131.19,5
121,125.64,131.09,5
121,125.55,130.99,5
121,125.46,130.89,5
120,125.35,130.78,5
121,125.26,130.69,5
120,125.15,130.58,5
121,125.07,130.48,5
120,124.97,130.38,5
120,124.87,130.27,5
120,124.77,130.17,5
120,124.68,130.07,5
120,124.58,129.97,5
121,124.51,129.88,5
121,124.44,129.79,5
121,124.37,129.70,5
121,124.31,129.62,5
121,124.24,129.53,5
120,124.16,129.43,5
120,124.07,129.34,5
121,124.01,129.26,5
120,123.93,129.16,5
119,123.83,129.06,5
120,123.76,128.97,5
120,123.68,128.88,5
119,123.59,128.78,5
121,123.53,128.70,5
120,123.46,128.62,5
118,123.35,128.51,5
119,123.27,128.42,5
119,123.18,128.32,5
118,123.08,128.22,5
120,123.02,128.14,5
119,122.94,128.05,5
119,122.86,127.96,5
119,122.78,127.87,5
117,122.67,127.76,5
117,122.55,127.65,5
117,122.44,127.54,5
117,122.33,127.44,5
117,122.23,127.33,5
119,122.16,127.25,5
117,122.06,127.15,5
117,121.96,127.05,5
117,121.86,126.95,5
117,121.76,126.85,5
117,121.67,126.75,5
117,121.57,126.65,5
117,121.48,126.55,5
117,121.39,126.46,5
117,121.30,126.36,5
116,121.20,126.26,5
117,121.11,126.17,5
115,120.99,126.06,5
116,120.89,125.95,5
116,120.79,125.86,5
116,120.70,125.76,5
116,120.60,125.66,5
117,120.53,125.57,5
115,120.42,125.47,5
116,120.33,125.37,5
116,120.25,125.28,5
116,120.16,125.19,5
117,120.10,125.10,5
116,120.02,125.01,5
116,119.94,124.92,5
117,119.88,124.84,5
115,119.78,124.75,5
116,119.70,124.66,5
116,119.63,124.57,5
115,119.54,124.48,5
116,119.47,124.39,5
115,119.38,124.30,5
115,119.29,124.20,5
115,119.20,124.11,5
117,119.16,124.04,5
115,119.08,123.95,5
115,118.99,123.86,5
116,118.93,123.78,5
115,118.86,123.69,5
115,118.78,123.61,5
115,118.70,123.52,5
115,118.63,123.44,5
115,118.56,123.35,5
115,118.49,123.27,5
115,118.42,123.19,5
115,118.35,123.10,5
114,118.26,123.01,5
114,118.18,122.92,5
114,118.09,122.83,5
115,118.03,122.75,5
114,117.95,122.67,5
113,117.85,122.57,5
113,117.75,122.47,5
113,117.66,122.38,5
113,117.57,122.29,5
113,117.47,122.19,5
113,117.38,122.10,5
117,117.38,122.05,5
113,117.29,121.96,5
112,117.18,121.86,5
113,117.10,121.77,5
112,117.00,121.67,5
111,116.88,121.57,5
112,116.78,121.47,5
112,116.68,121.38,5
