Teste de posicionamento 2(EMG ao centro do bíceps (Vermelho A, Verde B) + Ref no cotovelo) - 16/09/2024 - teste3 - 5 contrações
long frequencia = 1000;                 //frequência de aquisição do sinal, neste caso, 1000 sinais por segundo
float fator1 = 0.02, fator2 = 0.01;
float incerteza = 0.13;
float pico_basal = 130; // Mínimo para ser considerado um pico de contração
int filtro_horizontal=200000; //intervalo de 200ms valores não pode ter mais de 1 contração

Biceps_D,mediaMovel_1,mediaMovel_2,Contracao
28,0.56,0.28,0
29,1.13,0.57,0
29,1.69,0.85,0
30,2.25,1.14,0
29,2.79,1.42,0
28,3.29,1.69,0
29,3.81,1.96,0
31,4.35,2.25,0
29,4.84,2.52,0
32,5.39,2.81,0
35,5.98,3.14,0
29,6.44,3.39,0
31,6.93,3.67,0
29,7.37,3.92,0
32,7.86,4.20,0
29,8.29,4.45,0
29,8.70,4.70,0
29,9.11,4.94,0
32,9.56,5.21,0
32,10.01,5.48,0
29,10.39,5.71,0
29,10.77,5.95,0
29,11.13,6.18,0
28,11.47,6.40,0
28,11.80,6.61,0
28,12.12,6.83,0
29,12.46,7.05,0
30,12.81,7.28,0
30,13.15,7.50,0
29,13.47,7.72,0
31,13.82,7.95,0
29,14.13,8.16,0
29,14.42,8.37,0
29,14.71,8.58,0
29,15.00,8.78,0
30,15.30,8.99,0
29,15.57,9.19,0
28,15.82,9.38,0
30,16.11,9.59,0
27,16.32,9.76,0
29,16.58,9.95,0
28,16.81,10.13,0
29,17.05,10.32,0
29,17.29,10.51,0
26,17.46,10.67,0
29,17.69,10.85,0
28,17.90,11.02,0
28,18.10,11.19,0
30,18.34,11.38,0
30,18.57,11.56,0
28,18.76,11.73,0
30,18.99,11.91,0
30,19.21,12.09,0
27,19.36,12.24,0
28,19.54,12.40,0
28,19.70,12.55,0
28,19.87,12.71,0
29,20.05,12.87,0
28,20.21,13.02,0
30,20.41,13.19,0
30,20.60,13.36,0
28,20.75,13.51,0
28,20.89,13.65,0
28,21.03,13.80,0
29,21.19,13.95,0
28,21.33,14.09,0
29,21.48,14.24,0
28,21.61,14.38,0
29,21.76,14.52,0
28,21.89,14.66,0
32,22.09,14.83,0
28,22.21,14.96,0
28,22.32,15.09,0
28,22.44,15.22,0
30,22.59,15.37,0
28,22.70,15.49,0
28,22.80,15.62,0
28,22.91,15.74,0
30,23.05,15.89,0
27,23.13,16.00,0
28,23.22,16.12,0
28,23.32,16.24,0
28,23.41,16.35,0
28,23.51,16.47,0
28,23.60,16.59,0
28,23.68,16.70,0
28,23.77,16.81,0
28,23.85,16.92,0
28,23.94,17.04,0
29,24.04,17.16,0
28,24.12,17.26,0
28,24.20,17.37,0
28,24.27,17.48,0
28,24.35,17.58,0
29,24.44,17.70,0
28,24.51,17.80,0
28,24.58,17.90,0
28,24.65,18.00,0
28,24.72,18.10,0
28,24.78,18.20,0
27,24.83,18.29,0
28,24.89,18.39,0
28,24.95,18.48,0
28,25.01,18.58,0
28,25.07,18.67,0
29,25.15,18.78,0
28,25.21,18.87,0
28,25.26,18.96,0
27,25.30,19.04,0
28,25.35,19.13,0
28,25.41,19.22,0
27,25.44,19.30,0
28,25.49,19.38,0
28,25.54,19.47,0
28,25.59,19.55,0
27,25.62,19.63,0
26,25.62,19.69,0
28,25.67,19.78,0
29,25.74,19.87,0
28,25.78,19.95,0
26,25.79,20.01,0
28,25.83,20.09,0
27,25.85,20.16,0
27,25.88,20.23,0
26,25.88,20.28,0
28,25.92,20.36,0
27,25.94,20.43,0
28,25.99,20.50,0
26,25.99,20.56,0
28,26.03,20.63,0
28,26.07,20.71,0
26,26.06,20.76,0
26,26.06,20.81,0
28,26.10,20.88,0
26,26.10,20.94,0
28,26.14,21.01,0
28,26.17,21.08,0
27,26.19,21.14,0
27,26.21,21.19,0
26,26.20,21.24,0
27,26.22,21.30,0
28,26.25,21.37,0
27,26.27,21.42,0
30,26.34,21.51,0
26,26.34,21.55,0
27,26.35,21.61,0
27,26.36,21.66,0
26,26.36,21.71,0
28,26.39,21.77,0
27,26.40,21.82,0
26,26.39,21.86,0
23,26.33,21.87,0
28,26.36,21.93,0
27,26.37,21.99,0
29,26.42,22.06,0
26,26.42,22.10,0
28,26.45,22.15,0
27,26.46,22.20,0
26,26.45,22.24,0
23,26.38,22.25,0
28,26.41,22.31,0
27,26.42,22.35,0
28,26.46,22.41,0
28,26.49,22.47,0
27,26.50,22.51,0
27,26.51,22.56,0
29,26.56,22.62,0
28,26.59,22.67,0
28,26.61,22.73,0
27,26.62,22.77,0
27,26.63,22.81,0
28,26.66,22.86,0
28,26.68,22.92,0
28,26.71,22.97,0
27,26.72,23.01,0
26,26.70,23.04,0
27,26.71,23.08,0
26,26.69,23.11,0
27,26.70,23.14,0
28,26.73,23.19,0
27,26.73,23.23,0
28,26.76,23.28,0
28,26.78,23.33,0
28,26.81,23.37,0
28,26.83,23.42,0
28,26.85,23.46,0
27,26.86,23.50,0
28,26.88,23.54,0
28,26.90,23.59,0
27,26.90,23.62,0
28,26.93,23.67,0
26,26.91,23.69,0
27,26.91,23.72,0
29,26.95,23.78,0
28,26.97,23.82,0
28,26.99,23.86,0
27,26.99,23.89,0
28,27.01,23.93,0
28,27.03,23.97,0
28,27.05,24.01,0
27,27.05,24.04,0
28,27.07,24.08,0
28,27.09,24.12,0
27,27.09,24.15,0
27,27.08,24.18,0
28,27.10,24.22,0
29,27.14,24.27,0
27,27.14,24.29,0
26,27.12,24.31,0
28,27.13,24.35,0
28,27.15,24.38,0
27,27.15,24.41,0
26,27.12,24.43,0
28,27.14,24.46,0
28,27.16,24.50,0
28,27.18,24.53,0
26,27.15,24.55,0
28,27.17,24.58,0
28,27.19,24.62,0
27,27.18,24.64,0
26,27.16,24.65,0
28,27.18,24.69,0
28,27.19,24.72,0
27,27.19,24.74,0
26,27.16,24.75,0
28,27.18,24.79,0
30,27.24,24.84,0
26,27.21,24.85,0
26,27.19,24.86,0
28,27.20,24.89,0
28,27.22,24.92,0
26,27.20,24.94,0
28,27.21,24.97,0
28,27.23,25.00,0
28,27.24,25.03,0
26,27.22,25.04,0
28,27.23,25.07,0
27,27.23,25.09,0
27,27.22,25.10,0
26,27.20,25.11,0
28,27.22,25.14,0
28,27.23,25.17,0
27,27.23,25.19,0
28,27.24,25.22,0
26,27.22,25.23,0
28,27.23,25.25,0
27,27.23,25.27,0
28,27.24,25.30,0
28,27.26,25.32,0
27,27.25,25.34,0
28,27.27,25.37,0
28,27.28,25.39,0
28,27.30,25.42,0
27,27.29,25.44,0
26,27.27,25.44,0
28,27.28,25.47,0
28,27.30,25.49,0
28,27.31,25.52,0
30,27.36,25.56,0
29,27.40,25.60,0
28,27.41,25.62,0
28,27.42,25.64,0
28,27.43,25.67,0
28,27.44,25.69,0
28,27.45,25.71,0
27,27.44,25.73,0
23,27.36,25.70,0
28,27.37,25.72,0
28,27.38,25.75,0
27,27.37,25.76,0
28,27.39,25.78,0
28,27.40,25.80,0
28,27.41,25.83,0
27,27.40,25.84,0
29,27.43,25.87,0
28,27.45,25.89,0
28,27.46,25.91,0
28,27.47,25.93,0
28,27.48,25.95,0
28,27.49,25.97,0
28,27.50,25.99,0
27,27.49,26.00,0
29,27.52,26.03,0
28,27.53,26.05,0
27,27.52,26.06,0
28,27.53,26.08,0
28,27.54,26.10,0
28,27.55,26.12,0
27,27.54,26.13,0
28,27.54,26.15,0
27,27.53,26.16,0
28,27.54,26.17,0
27,27.53,26.18,0
27,27.52,26.19,0
28,27.53,26.21,0
27,27.52,26.22,0
27,27.51,26.22,0
28,27.52,26.24,0
28,27.53,26.26,0
28,27.54,26.28,0
28,27.55,26.29,0
28,27.56,26.31,0
28,27.57,26.33,0
27,27.55,26.34,0
27,27.54,26.34,0
28,27.55,26.36,0
28,27.56,26.38,0
27,27.55,26.38,0
27,27.54,26.39,0
28,27.55,26.40,0
28,27.56,26.42,0
27,27.55,26.43,0
26,27.52,26.42,0
28,27.53,26.44,0
28,27.53,26.45,0
27,27.52,26.46,0
26,27.49,26.45,0
28,27.50,26.47,0
28,27.51,26.48,0
26,27.48,26.48,0
27,27.47,26.48,0
28,27.48,26.50,0
27,27.47,26.50,0
26,27.45,26.50,0
28,27.46,26.51,0
28,27.47,26.53,0
26,27.44,26.52,0
26,27.41,26.52,0
26,27.38,26.51,0
28,27.39,26.53,0
27,27.39,26.53,0
26,27.36,26.53,0
28,27.37,26.54,0
28,27.38,26.56,0
28,27.40,26.57,0
26,27.37,26.57,0
27,27.36,26.57,0
28,27.37,26.58,0
26,27.35,26.58,0
26,27.32,26.57,0
27,27.31,26.58,0
28,27.33,26.59,0
27,27.32,26.60,0
26,27.29,26.59,0
27,27.29,26.59,0
27,27.28,26.60,0
26,27.26,26.59,0
26,27.23,26.59,0
26,27.21,26.58,0
28,27.22,26.59,0
26,27.20,26.59,0
26,27.17,26.58,0
27,27.17,26.59,0
26,27.15,26.58,0
26,27.12,26.57,0
28,27.14,26.59,0
26,27.12,26.58,0
27,27.12,26.59,0
26,27.09,26.58,0
28,27.11,26.60,0
26,27.09,26.59,0
26,27.07,26.58,0
28,27.09,26.60,0
26,27.06,26.59,0
28,27.08,26.61,0
27,27.08,26.61,0
30,27.14,26.64,0
28,27.16,26.66,0
27,27.15,26.66,0
28,27.17,26.67,0
26,27.15,26.67,0
26,27.12,26.66,0
27,27.12,26.66,0
30,27.18,26.70,0
27,27.18,26.70,0
26,27.15,26.69,0
26,27.13,26.69,0
28,27.15,26.70,0
30,27.20,26.73,0
28,27.22,26.75,0
27,27.22,26.75,0
27,27.21,26.75,0
28,27.23,26.76,0
28,27.24,26.78,0
27,27.24,26.78,0
28,27.25,26.79,0
28,27.27,26.80,0
27,27.26,26.80,0
27,27.26,26.81,0
23,27.17,26.77,0
28,27.19,26.78,0
27,27.18,26.78,0
26,27.16,26.77,0
28,27.18,26.79,0
29,27.21,26.81,0
27,27.21,26.81,0
27,27.21,26.81,0
28,27.22,26.82,0
28,27.24,26.84,0
28,27.25,26.85,0
28,27.27,26.86,0
28,27.28,26.87,0
28,27.30,26.88,0
28,27.31,26.89,0
27,27.30,26.89,0
30,27.36,26.93,0
28,27.37,26.94,0
27,27.36,26.94,0
26,27.34,26.93,0
28,27.35,26.94,0
28,27.36,26.95,0
28,27.38,26.96,0
26,27.35,26.95,0
28,27.36,26.96,0
28,27.37,26.97,0
27,27.37,26.97,0
28,27.38,26.98,0
28,27.39,26.99,0
28,27.40,27.00,0
28,27.42,27.01,0
27,27.41,27.01,0
29,27.44,27.03,0
27,27.43,27.03,0
27,27.42,27.03,0
28,27.43,27.04,0
28,27.44,27.05,0
27,27.44,27.05,0
26,27.41,27.04,0
28,27.42,27.05,0
28,27.43,27.06,0
27,27.42,27.06,0
26,27.39,27.05,0
26,27.37,27.04,0
28,27.38,27.05,0
27,27.37,27.05,0
28,27.38,27.06,0
28,27.40,27.06,0
28,27.41,27.07,0
28,27.42,27.08,0
28,27.43,27.09,0
28,27.44,27.10,0
27,27.43,27.10,0
28,27.45,27.11,0
28,27.46,27.12,0
30,27.51,27.15,0
27,27.50,27.15,0
28,27.51,27.15,0
28,27.52,27.16,0
28,27.53,27.17,0
27,27.52,27.17,0
28,27.53,27.18,0
28,27.54,27.19,0
28,27.54,27.19,0
28,27.55,27.20,0
28,27.56,27.21,0
28,27.57,27.22,0
29,27.60,27.24,0
28,27.61,27.24,0
28,27.62,27.25,0
28,27.62,27.26,0
29,27.65,27.28,0
29,27.68,27.29,0
28,27.68,27.30,0
28,27.69,27.31,0
30,27.74,27.33,0
30,27.78,27.36,0
32,27.87,27.41,0
29,27.89,27.42,0
29,27.91,27.44,0
30,27.95,27.46,0
30,27.99,27.49,0
30,28.03,27.52,0
30,28.07,27.54,0
30,28.11,27.56,0
32,28.19,27.61,0
30,28.23,27.63,0
29,28.24,27.65,0
30,28.28,27.67,0
33,28.37,27.72,0
30,28.40,27.75,0
30,28.44,27.77,0
31,28.49,27.80,0
29,28.50,27.81,0
30,28.53,27.83,0
30,28.56,27.86,0
32,28.63,27.90,0
29,28.63,27.91,0
29,28.64,27.92,0
34,28.75,27.98,0
31,28.79,28.01,0
29,28.80,28.02,0
30,28.82,28.04,0
30,28.84,28.06,0
32,28.91,28.10,0
29,28.91,28.11,0
29,28.91,28.12,0
30,28.93,28.14,0
31,28.97,28.16,0
30,28.99,28.18,0
30,29.01,28.20,0
30,29.03,28.22,0
29,29.03,28.23,0
32,29.09,28.26,0
29,29.09,28.27,0
28,29.07,28.27,0
29,29.07,28.28,0
29,29.07,28.28,0
30,29.09,28.30,0
30,29.10,28.32,0
30,29.12,28.34,0
30,29.14,28.35,0
30,29.16,28.37,0
30,29.17,28.38,0
31,29.21,28.41,0
29,29.21,28.42,0
30,29.22,28.43,0
30,29.24,28.45,0
29,29.23,28.45,0
29,29.23,28.46,0
28,29.20,28.45,0
30,29.22,28.47,0
30,29.23,28.49,0
30,29.25,28.50,0
29,29.25,28.51,0
28,29.22,28.50,0
30,29.24,28.52,0
29,29.23,28.52,0
30,29.25,28.53,0
28,29.22,28.53,0
30,29.24,28.54,0
30,29.25,28.56,0
30,29.27,28.57,0
30,29.28,28.59,0
31,29.32,28.61,0
30,29.33,28.63,0
30,29.34,28.64,0
32,29.40,28.67,0
31,29.43,28.70,0
30,29.44,28.71,0
30,29.45,28.72,0
32,29.50,28.75,0
31,29.53,28.78,0
30,29.54,28.79,0
30,29.55,28.80,0
32,29.60,28.83,0
31,29.63,28.86,0
31,29.66,28.88,0
32,29.70,28.91,0
32,29.75,28.94,0
31,29.77,28.96,0
30,29.78,28.97,0
30,29.78,28.98,0
32,29.83,29.01,0
30,29.83,29.02,0
32,29.87,29.05,0
30,29.88,29.06,0
30,29.88,29.07,0
31,29.90,29.09,0
30,29.90,29.10,0
32,29.94,29.13,0
30,29.95,29.14,0
31,29.97,29.15,0
30,29.97,29.16,0
30,29.97,29.17,0
31,29.99,29.19,0
30,29.99,29.20,0
30,29.99,29.21,0
32,30.03,29.23,0
31,30.05,29.25,0
31,30.07,29.27,0
32,30.11,29.30,0
30,30.10,29.30,0
32,30.14,29.33,0
30,30.14,29.34,0
32,30.18,29.36,0
30,30.17,29.37,0
31,30.19,29.39,0
30,30.19,29.39,0
33,30.24,29.43,0
30,30.24,29.43,0
30,30.23,29.44,0
32,30.27,29.46,0
31,30.28,29.48,0
30,30.28,29.49,0
31,30.29,29.50,0
30,30.29,29.51,0
32,30.32,29.53,0
30,30.31,29.54,0
31,30.33,29.55,0
34,30.40,29.59,0
32,30.43,29.62,0
31,30.44,29.63,0
30,30.44,29.64,0
31,30.45,29.65,0
31,30.46,29.66,0
30,30.45,29.67,0
31,30.46,29.68,0
31,30.47,29.69,0
30,30.46,29.70,0
30,30.45,29.70,0
31,30.46,29.71,0
31,30.47,29.72,0
30,30.46,29.73,0
34,30.53,29.77,0
30,30.52,29.77,0
31,30.53,29.78,0
30,30.52,29.79,0
30,30.51,29.79,0
30,30.50,29.79,0
31,30.51,29.80,0
31,30.52,29.82,0
31,30.53,29.83,0
30,30.52,29.83,0
31,30.53,29.84,0
31,30.54,29.85,0
30,30.53,29.85,0
30,30.52,29.86,0
31,30.53,29.87,0
31,30.54,29.88,0
27,30.47,29.85,0
30,30.46,29.85,0
31,30.47,29.86,0
31,30.48,29.87,0
30,30.47,29.87,0
30,30.46,29.88,0
31,30.47,29.89,0
31,30.48,29.90,0
30,30.47,29.90,0
30,30.46,29.90,0
31,30.47,29.91,0
31,30.48,29.92,0
30,30.47,29.92,0
30,30.46,29.92,0
31,30.48,29.93,0
31,30.49,29.95,0
30,30.48,29.95,0
31,30.49,29.96,0
31,30.50,29.97,0
32,30.53,29.99,0
30,30.52,29.99,0
31,30.53,30.00,0
31,30.54,30.01,0
32,30.56,30.03,0
32,30.59,30.05,0
32,30.62,30.07,0
31,30.63,30.08,0
31,30.64,30.09,0
32,30.66,30.10,0
32,30.69,30.12,0
31,30.70,30.13,0
32,30.72,30.15,0
32,30.75,30.17,0
32,30.77,30.19,0
31,30.78,30.20,0
32,30.80,30.21,0
32,30.83,30.23,0
32,30.85,30.25,0
32,30.87,30.27,0
32,30.90,30.28,0
32,30.92,30.30,0
32,30.94,30.32,0
31,30.94,30.33,0
31,30.94,30.33,0
32,30.96,30.35,0
32,30.98,30.37,0
32,31.00,30.38,0
32,31.02,30.40,0
32,31.04,30.41,0
32,31.06,30.43,0
31,31.06,30.44,0
31,31.06,30.44,0
32,31.08,30.46,0
32,31.10,30.47,0
32,31.12,30.49,0
32,31.13,30.50,0
32,31.15,30.52,0
31,31.15,30.52,0
32,31.16,30.54,0
33,31.20,30.56,0
32,31.22,30.58,0
31,31.21,30.58,0
32,31.23,30.59,0
33,31.26,30.62,0
32,31.28,30.63,0
32,31.29,30.65,0
33,31.33,30.67,0
32,31.34,30.68,0
32,31.35,30.70,0
33,31.39,30.72,0
35,31.46,30.76,0
33,31.49,30.78,0
34,31.54,30.82,0
35,31.61,30.86,0
34,31.66,30.89,0
36,31.74,30.94,0
34,31.79,30.97,0
34,31.83,31.00,0
34,31.88,31.03,0
34,31.92,31.06,0
34,31.96,31.09,0
34,32.00,31.12,0
35,32.06,31.16,0
34,32.10,31.19,0
34,32.14,31.21,0
34,32.18,31.24,0
33,32.19,31.26,0
34,32.23,31.29,0
34,32.26,31.31,0
34,32.30,31.34,0
36,32.37,31.39,0
38,32.48,31.45,0
34,32.52,31.48,0
34,32.54,31.51,0
35,32.59,31.54,0
36,32.66,31.58,0
34,32.69,31.61,0
34,32.71,31.63,0
37,32.80,31.69,0
37,32.88,31.74,0
35,32.93,31.77,0
34,32.95,31.79,0
36,33.01,31.84,0
35,33.05,31.87,0
36,33.11,31.91,0
36,33.17,31.95,0
35,33.20,31.98,0
36,33.26,32.02,0
36,33.31,32.06,0
36,33.37,32.10,0
37,33.44,32.15,0
38,33.53,32.21,0
38,33.62,32.27,0
38,33.71,32.32,0
39,33.81,32.39,0
39,33.92,32.46,0
38,34.00,32.51,0
38,34.08,32.57,0
40,34.20,32.64,0
38,34.27,32.69,0
38,34.35,32.75,0
38,34.42,32.80,0
38,34.49,32.85,0
38,34.56,32.90,0
38,34.63,32.95,0
38,34.70,33.00,0
41,34.83,33.08,0
38,34.89,33.13,0
38,34.95,33.18,0
38,35.01,33.23,0
38,35.07,33.28,0
38,35.13,33.33,0
38,35.19,33.37,0
38,35.24,33.42,0
38,35.30,33.46,0
38,35.35,33.51,0
39,35.43,33.56,0
38,35.48,33.61,0
38,35.53,33.65,0
38,35.58,33.70,0
38,35.63,33.74,0
40,35.71,33.80,0
39,35.78,33.85,0
40,35.86,33.92,0
39,35.93,33.97,0
38,35.97,34.01,0
40,36.05,34.07,0
38,36.09,34.11,0
38,36.13,34.14,0
39,36.18,34.19,0
38,36.22,34.23,0
42,36.33,34.31,0
38,36.37,34.35,0
39,36.42,34.39,0
38,36.45,34.43,0
40,36.52,34.48,0
40,36.59,34.54,0
40,36.66,34.59,0
39,36.71,34.64,0
41,36.79,34.70,0
44,36.94,34.79,0
41,37.02,34.86,0
41,37.10,34.92,0
44,37.24,35.01,0
40,37.29,35.06,0
41,37.37,35.12,0
41,37.44,35.18,0
41,37.51,35.24,0
41,37.58,35.29,0
41,37.65,35.35,0
42,37.74,35.42,0
43,37.84,35.49,0
41,37.90,35.55,0
42,37.99,35.61,0
41,38.05,35.67,0
41,38.11,35.72,0
41,38.16,35.77,0
42,38.24,35.83,0
43,38.33,35.91,0
44,38.45,35.99,0
42,38.52,36.05,0
43,38.61,36.12,0
43,38.70,36.19,0
44,38.80,36.26,0
42,38.87,36.32,0
42,38.93,36.38,0
44,39.03,36.45,0
44,39.13,36.53,0
44,39.23,36.60,0
44,39.32,36.68,0
44,39.42,36.75,0
45,39.53,36.83,0
43,39.60,36.90,0
44,39.69,36.97,0
45,39.79,37.05,0
44,39.88,37.12,0
46,40.00,37.21,0
44,40.08,37.27,0
46,40.20,37.36,0
46,40.31,37.45,0
44,40.39,37.51,0
46,40.50,37.60,0
45,40.59,37.67,0
45,40.68,37.74,0
46,40.78,37.83,0
46,40.89,37.91,0
45,40.97,37.98,0
46,41.07,38.06,0
46,41.17,38.14,0
46,41.27,38.22,0
45,41.34,38.29,0
45,41.41,38.35,0
46,41.51,38.43,0
46,41.60,38.51,0
47,41.70,38.59,0
47,41.81,38.67,0
46,41.89,38.75,0
46,41.98,38.82,0
47,42.08,38.90,0
48,42.19,38.99,0
46,42.27,39.06,0
47,42.37,39.14,0
48,42.48,39.23,0
48,42.59,39.32,0
46,42.66,39.39,0
46,42.72,39.45,0
48,42.83,39.54,0
48,42.93,39.62,0
47,43.01,39.70,0
47,43.09,39.77,0
43,43.09,39.80,0
48,43.19,39.88,0
48,43.29,39.96,0
47,43.36,40.03,0
49,43.47,40.12,0
50,43.60,40.22,0
49,43.71,40.31,0
47,43.78,40.38,0
49,43.88,40.46,0
48,43.96,40.54,0
49,44.06,40.62,0
48,44.14,40.70,0
51,44.28,40.80,0
50,44.40,40.89,0
50,44.51,40.98,0
50,44.62,41.07,0
51,44.74,41.17,0
52,44.89,41.28,0
50,44.99,41.37,0
52,45.13,41.47,0
50,45.23,41.56,0
52,45.36,41.66,0
52,45.50,41.77,0
51,45.61,41.86,0
52,45.74,41.96,0
50,45.82,42.04,0
52,45.94,42.14,0
50,46.03,42.22,0
50,46.11,42.30,0
52,46.22,42.39,0
52,46.34,42.49,0
52,46.45,42.59,0
54,46.60,42.70,0
53,46.73,42.80,0
52,46.84,42.89,0
54,46.98,43.01,0
54,47.12,43.12,0
53,47.24,43.21,0
53,47.35,43.31,0
53,47.47,43.41,0
53,47.58,43.51,0
53,47.68,43.60,0
53,47.79,43.69,0
54,47.92,43.80,0
55,48.06,43.91,0
53,48.16,44.00,0
54,48.27,44.10,0
56,48.43,44.22,0
55,48.56,44.33,0
55,48.69,44.43,0
56,48.83,44.55,0
56,48.98,44.66,0
56,49.12,44.78,0
58,49.30,44.91,0
56,49.43,45.02,0
56,49.56,45.13,0
60,49.77,45.28,0
63,50.03,45.46,0
60,50.23,45.60,0
61,50.45,45.76,0
64,50.72,45.94,0
64,50.99,46.12,0
62,51.21,46.28,0
62,51.42,46.43,0
64,51.67,46.61,0
65,51.94,46.79,0
64,52.18,46.97,0
62,52.38,47.12,0
63,52.59,47.28,0
64,52.82,47.44,0
64,53.04,47.61,0
64,53.26,47.77,0
67,53.54,47.96,0
66,53.78,48.14,0
64,53.99,48.30,0
65,54.21,48.47,0
64,54.41,48.63,0
67,54.66,48.81,0
66,54.88,48.98,0
64,55.07,49.13,0
65,55.26,49.29,0
65,55.46,49.45,0
65,55.65,49.60,0
66,55.86,49.77,0
65,56.04,49.92,0
65,56.22,50.07,0
64,56.38,50.21,0
66,56.57,50.37,0
66,56.76,50.52,0
66,56.94,50.68,0
66,57.12,50.83,0
65,57.28,50.97,0
66,57.45,51.12,0
68,57.67,51.29,0
70,57.91,51.48,0
70,58.15,51.66,0
68,58.35,51.83,0
68,58.54,51.99,0
70,58.77,52.17,0
74,59.08,52.39,0
70,59.30,52.56,0
70,59.51,52.74,0
72,59.76,52.93,0
70,59.96,53.10,0
70,60.17,53.27,0
70,60.36,53.44,0
70,60.55,53.60,0
71,60.76,53.78,0
70,60.95,53.94,0
72,61.17,54.12,0
70,61.35,54.28,0
71,61.54,54.45,0
71,61.73,54.61,0
70,61.89,54.77,0
74,62.14,54.96,0
73,62.35,55.14,0
76,62.63,55.35,0
78,62.93,55.57,0
76,63.19,55.78,0
75,63.43,55.97,0
75,63.66,56.16,0
75,63.89,56.35,0
76,64.13,56.55,0
77,64.39,56.75,0
77,64.64,56.95,0
80,64.95,57.18,0
79,65.23,57.40,0
79,65.50,57.62,0
79,65.77,57.83,0
77,66.00,58.02,0
80,66.28,58.24,0
82,66.59,58.48,0
84,66.94,58.74,0
81,67.22,58.96,0
80,67.48,59.17,0
83,67.79,59.41,0
83,68.09,59.64,0
84,68.41,59.89,0
84,68.72,60.13,0
83,69.01,60.36,0
86,69.35,60.61,0
83,69.62,60.84,0
82,69.87,61.05,0
83,70.13,61.27,0
87,70.47,61.52,0
86,70.78,61.77,0
84,71.04,61.99,0
84,71.30,62.21,0
84,71.56,62.43,0
86,71.85,62.67,0
87,72.15,62.91,0
86,72.43,63.14,0
85,72.68,63.36,0
86,72.94,63.58,0
86,73.20,63.81,0
86,73.46,64.03,0
88,73.75,64.27,0
85,73.98,64.48,0
86,74.22,64.69,0
86,74.45,64.91,0
85,74.66,65.11,0
87,74.91,65.33,0
88,75.17,65.55,0
90,75.47,65.80,0
89,75.74,66.03,0
89,76.00,66.26,0
88,76.24,66.48,0
89,76.50,66.70,0
88,76.73,66.91,0
89,76.98,67.14,0
90,77.24,67.36,0
90,77.49,67.59,0
89,77.72,67.80,0
90,77.97,68.03,0
88,78.17,68.23,0
88,78.36,68.42,0
89,78.58,68.63,0
89,78.79,68.83,0
88,78.97,69.03,0
88,79.15,69.21,0
88,79.33,69.40,0
88,79.50,69.59,0
88,79.67,69.77,0
88,79.84,69.96,0
88,80.00,70.14,0
88,80.16,70.31,0
88,80.32,70.49,0
90,80.51,70.69,0
90,80.70,70.88,0
89,80.87,71.06,0
90,81.05,71.25,0
90,81.23,71.44,0
93,81.46,71.65,0
93,81.69,71.87,0
92,81.90,72.07,0
92,82.10,72.27,0
92,82.30,72.46,0
94,82.53,72.68,0
94,82.76,72.89,0
94,82.99,73.10,0
92,83.17,73.29,0
92,83.35,73.48,0
92,83.52,73.67,0
94,83.73,73.87,0
92,83.89,74.05,0
92,84.06,74.23,0
92,84.21,74.41,0
94,84.41,74.60,0
94,84.60,74.80,0
92,84.75,74.97,0
92,84.89,75.14,0
93,85.06,75.32,0
92,85.20,75.48,0
92,85.33,75.65,0
96,85.55,75.85,0
92,85.67,76.01,0
92,85.80,76.17,0
92,85.92,76.33,0
92,86.05,76.49,0
92,86.17,76.64,0
93,86.30,76.81,0
92,86.42,76.96,0
92,86.53,77.11,0
92,86.64,77.26,0
92,86.74,77.41,0
92,86.85,77.55,0
92,86.95,77.70,0
92,87.05,77.84,0
91,87.13,77.97,0
91,87.21,78.10,0
89,87.25,78.21,0
92,87.34,78.35,0
93,87.45,78.50,0
91,87.52,78.62,0
92,87.61,78.75,0
92,87.70,78.89,0
92,87.79,79.02,0
92,87.87,79.15,0
92,87.95,79.28,0
90,88.00,79.38,0
94,88.12,79.53,0
92,88.19,79.65,0
92,88.27,79.78,0
91,88.32,79.89,0
91,88.38,80.00,0
95,88.51,80.15,0
93,88.60,80.28,0
92,88.67,80.40,0
93,88.75,80.52,0
92,88.82,80.64,0
92,88.88,80.75,0
91,88.93,80.85,0
92,88.99,80.97,0
92,89.05,81.08,0
92,89.11,81.18,0
90,89.12,81.27,0
92,89.18,81.38,0
92,89.24,81.49,0
92,89.29,81.59,0
90,89.31,81.68,0
92,89.36,81.78,0
91,89.39,81.87,0
90,89.41,81.95,0
90,89.42,82.03,0
91,89.45,82.12,0
92,89.50,82.22,0
90,89.51,82.30,0
90,89.52,82.38,0
90,89.53,82.45,0
90,89.54,82.53,0
90,89.55,82.60,0
90,89.56,82.68,0
91,89.59,82.76,0
90,89.59,82.83,0
90,89.60,82.90,0
90,89.61,82.97,0
92,89.66,83.07,0
90,89.67,83.13,0
90,89.67,83.20,0
90,89.68,83.27,0
91,89.71,83.35,0
90,89.71,83.41,0
90,89.72,83.48,0
92,89.76,83.57,0
92,89.81,83.65,0
90,89.81,83.71,0
90,89.81,83.78,0
90,89.82,83.84,0
90,89.82,83.90,0
90,89.83,83.96,0
90,89.83,84.02,0
90,89.83,84.08,0
90,89.84,84.14,0
90,89.84,84.20,0
90,89.84,84.26,0
90,89.85,84.31,0
90,89.85,84.37,0
89,89.83,84.42,0
90,89.84,84.47,0
90,89.84,84.53,0
90,89.84,84.58,0
89,89.82,84.63,0
90,89.83,84.68,0
89,89.81,84.72,0
89,89.80,84.77,0
88,89.76,84.80,0
88,89.72,84.83,0
90,89.73,84.88,0
89,89.72,84.92,0
88,89.68,84.96,0
89,89.67,85.00,0
89,89.65,85.04,0
88,89.62,85.07,0
90,89.63,85.12,0
88,89.60,85.14,0
89,89.58,85.18,0
89,89.57,85.22,0
89,89.56,85.26,0
90,89.57,85.31,0
88,89.54,85.33,0
90,89.55,85.38,0
88,89.52,85.41,0
90,89.53,85.45,0
89,89.52,85.49,0
89,89.51,85.52,0
89,89.50,85.56,0
88,89.47,85.58,0
88,89.44,85.61,0
89,89.43,85.64,0
90,89.44,85.68,0
90,89.45,85.73,0
89,89.44,85.76,0
89,89.43,85.79,0
88,89.40,85.81,0
88,89.38,85.84,0
88,89.35,85.86,0
90,89.36,85.90,0
92,89.41,85.96,0
88,89.39,85.98,0
87,89.34,85.99,0
88,89.31,86.01,0
88,89.28,86.03,0
88,89.26,86.05,0
88,89.23,86.07,0
89,89.23,86.10,0
85,89.14,86.09,0
86,89.08,86.09,0
86,89.02,86.09,0
87,88.98,86.10,0
86,88.92,86.09,0
86,88.86,86.09,0
86,88.80,86.09,0
87,88.77,86.10,0
84,88.67,86.08,0
86,88.62,86.08,0
86,88.57,86.08,0
85,88.50,86.07,0
85,88.43,86.06,0
85,88.36,86.05,0
86,88.31,86.05,0
85,88.24,86.04,0
86,88.20,86.04,0
84,88.12,86.01,0
86,88.07,86.01,0
85,88.01,86.00,0
84,87.93,85.98,0
84,87.85,85.96,0
84,87.78,85.95,0
85,87.72,85.94,0
83,87.63,85.91,0
84,87.55,85.89,0
84,87.48,85.87,0
84,87.41,85.85,0
84,87.34,85.83,0
84,87.28,85.81,0
84,87.21,85.79,0
84,87.15,85.78,0
83,87.06,85.75,0
82,86.96,85.71,0
84,86.90,85.69,0
83,86.83,85.67,0
83,86.75,85.64,0
84,86.69,85.62,0
84,86.64,85.61,0
83,86.57,85.58,0
83,86.50,85.56,0
82,86.41,85.52,0
84,86.36,85.51,0
81,86.25,85.46,0
82,86.17,85.43,0
82,86.08,85.39,0
82,86.00,85.36,0
82,85.92,85.32,0
82,85.84,85.29,0
82,85.77,85.26,0
82,85.69,85.23,0
82,85.62,85.19,0
82,85.54,85.16,0
82,85.47,85.13,0
82,85.40,85.10,0
82,85.34,85.07,0
82,85.27,85.04,0
82,85.20,85.01,0
82,85.14,84.98,0
82,85.08,84.95,0
82,85.02,84.92,0
83,84.98,84.90,0
82,84.92,84.87,0
82,84.86,84.84,0
82,84.80,84.81,0
82,84.74,84.78,0
81,84.67,84.75,0
81,84.60,84.71,0
82,84.54,84.68,0
81,84.47,84.64,0
81,84.40,84.61,0
81,84.34,84.57,0
80,84.25,84.53,0
82,84.20,84.50,0
81,84.14,84.47,0
81,84.08,84.43,0
80,84.00,84.39,0
80,83.92,84.34,0
79,83.82,84.29,0
82,83.78,84.27,0
81,83.73,84.23,0
81,83.67,84.20,0
79,83.58,84.15,0
82,83.55,84.13,0
81,83.50,84.10,0
80,83.43,84.06,0
80,83.36,84.02,0
80,83.29,83.98,0
80,83.22,83.94,0
80,83.16,83.90,0
79,83.08,83.85,0
81,83.03,83.82,0
80,82.97,83.78,0
79,82.89,83.73,0
79,82.82,83.69,0
81,82.78,83.66,0
79,82.70,83.61,0
78,82.61,83.56,0
79,82.54,83.51,0
80,82.49,83.48,0
78,82.40,83.42,0
78,82.31,83.37,0
78,82.22,83.31,0
80,82.18,83.28,0
79,82.12,83.24,0
78,82.03,83.18,0
79,81.97,83.14,0
83,81.99,83.14,0
80,81.95,83.11,0
79,81.89,83.07,0
79,81.84,83.03,0
80,81.80,83.00,0
78,81.72,82.95,0
78,81.65,82.90,0
78,81.58,82.85,0
75,81.44,82.77,0
78,81.38,82.72,0
78,81.31,82.68,0
78,81.24,82.63,0
77,81.16,82.57,0
78,81.09,82.53,0
78,81.03,82.48,0
78,80.97,82.44,0
76,80.87,82.37,0
78,80.81,82.33,0
76,80.72,82.27,0
78,80.66,82.22,0
77,80.59,82.17,0
77,80.52,82.12,0
76,80.43,82.06,0
76,80.34,82.00,0
78,80.29,81.96,0
76,80.21,81.90,0
76,80.12,81.84,0
76,80.04,81.78,0
77,79.98,81.73,0
76,79.90,81.68,0
74,79.78,81.60,0
77,79.73,81.55,0
76,79.65,81.50,0
76,79.58,81.44,0
76,79.51,81.39,0
76,79.44,81.33,0
76,79.37,81.28,0
76,79.30,81.23,0
76,79.24,81.18,0
77,79.19,81.13,0
75,79.11,81.07,0
76,79.04,81.02,0
76,78.98,80.97,0
76,78.92,80.92,0
76,78.87,80.87,0
76,78.81,80.82,0
75,78.73,80.77,0
76,78.68,80.72,0
75,78.60,80.66,0
76,78.55,80.61,0
76,78.50,80.57,0
75,78.43,80.51,0
75,78.36,80.46,0
74,78.27,80.39,0
74,78.19,80.33,0
75,78.13,80.28,0
76,78.08,80.23,0
76,78.04,80.19,0
74,77.96,80.13,0
76,77.92,80.09,0
76,77.88,80.05,0
74,77.81,79.99,0
76,77.77,79.95,0
75,77.71,79.90,0
76,77.68,79.86,0
74,77.61,79.80,0
76,77.57,79.76,0
74,77.50,79.70,0
75,77.45,79.66,0
75,77.40,79.61,0
74,77.34,79.55,0
75,77.29,79.51,0
74,77.22,79.45,0
76,77.20,79.42,0
74,77.13,79.36,0
76,77.11,79.33,0
74,77.05,79.28,0
76,77.03,79.24,0
74,76.97,79.19,0
74,76.91,79.14,0
74,76.85,79.09,0
75,76.81,79.05,0
75,76.78,79.01,0
74,76.72,78.96,0
74,76.67,78.91,0
75,76.63,78.87,0
74,76.58,78.82,0
74,76.53,78.77,0
75,76.50,78.73,0
74,76.45,78.69,0
74,76.40,78.64,0
74,76.35,78.59,0
76,76.34,78.57,0
74,76.30,78.52,0
74,76.25,78.48,0
74,76.21,78.43,0
73,76.14,78.38,0
74,76.10,78.33,0
74,76.06,78.29,0
74,76.02,78.25,0
73,75.96,78.19,0
73,75.90,78.14,0
73,75.84,78.09,0
74,75.80,78.05,0
73,75.75,78.00,0
73,75.69,77.95,0
74,75.66,77.91,0
74,75.62,77.87,0
73,75.57,77.82,0
75,75.56,77.79,0
74,75.53,77.76,0
72,75.46,77.70,0
73,75.41,77.65,0
73,75.36,77.61,0
72,75.29,77.55,0
72,75.23,77.49,0
73,75.18,77.45,0
72,75.12,77.39,0
72,75.06,77.34,0
72,75.00,77.29,0
73,74.96,77.24,0
72,74.90,77.19,0
72,74.84,77.14,0
72,74.78,77.09,0
73,74.75,77.05,0
72,74.69,77.00,0
72,74.64,76.95,0
74,74.63,76.92,0
73,74.59,76.88,0
73,74.56,76.84,0
72,74.51,76.79,0
72,74.46,76.74,0
73,74.43,76.71,0
72,74.38,76.66,0
74,74.37,76.63,0
74,74.37,76.61,0
73,74.34,76.57,0
75,74.35,76.55,0
74,74.35,76.53,0
74,74.34,76.50,0
74,74.33,76.48,0
74,74.33,76.45,0
73,74.30,76.42,0
74,74.29,76.40,0
73,74.27,76.36,0
72,74.22,76.32,0
74,74.22,76.29,0
72,74.17,76.25,0
73,74.15,76.22,0
72,74.11,76.18,0
73,74.08,76.14,0
74,74.08,76.12,0
72,74.04,76.08,0
72,74.00,76.04,0
73,73.98,76.01,0
73,73.96,75.98,0
73,73.94,75.95,0
74,73.94,75.93,0
72,73.90,75.89,0
73,73.89,75.86,0
72,73.85,75.82,0
73,73.83,75.80,0
74,73.83,75.78,0
73,73.82,75.75,0
72,73.78,75.71,0
72,73.75,75.68,0
72,73.71,75.64,0
72,73.68,75.60,0
74,73.68,75.59,0
71,73.63,75.54,0
72,73.60,75.51,0
72,73.56,75.47,0
74,73.57,75.46,0
72,73.54,75.42,0
73,73.53,75.40,0
73,73.52,75.37,0
71,73.47,75.33,0
72,73.44,75.30,0
72,73.41,75.26,0
72,73.38,75.23,0
71,73.34,75.19,0
72,73.31,75.16,0
72,73.28,75.12,0
71,73.24,75.08,0
72,73.21,75.05,0
72,73.19,75.02,0
71,73.14,74.98,0
71,73.10,74.94,0
73,73.10,74.92,0
73,73.10,74.90,0
71,73.06,74.86,0
70,72.99,74.82,0
71,72.95,74.78,0
70,72.90,74.73,0
70,72.84,74.68,0
70,72.78,74.64,0
69,72.71,74.58,0
70,72.65,74.53,0
70,72.60,74.49,0
70,72.55,74.44,0
71,72.52,74.41,0
70,72.47,74.36,0
70,72.42,74.32,0
70,72.37,74.28,0
71,72.34,74.25,0
70,72.29,74.20,0
70,72.25,74.16,0
70,72.20,74.12,0
69,72.14,74.07,0
70,72.10,74.03,0
70,72.05,73.99,0
69,71.99,73.94,0
69,71.93,73.89,0
69,71.87,73.84,0
69,71.82,73.79,0
68,71.74,73.73,0
71,71.73,73.71,0
69,71.67,73.66,0
70,71.64,73.62,0
70,71.60,73.59,0
70,71.57,73.55,0
70,71.54,73.51,0
69,71.49,73.47,0
70,71.46,73.43,0
69,71.41,73.39,0
70,71.38,73.36,0
68,71.32,73.30,0
69,71.27,73.26,0
69,71.22,73.22,0
69,71.18,73.17,0
68,71.12,73.12,0
68,71.05,73.07,0
69,71.01,73.03,0
70,70.99,73.00,0
68,70.93,72.95,0
68,70.87,72.90,0
69,70.84,72.86,0
70,70.82,72.83,0
68,70.76,72.79,0
68,70.71,72.74,0
67,70.63,72.68,0
68,70.58,72.63,0
68,70.53,72.59,0
68,70.48,72.54,0
68,70.43,72.50,0
68,70.38,72.45,0
68,70.33,72.41,0
68,70.29,72.36,0
67,70.22,72.31,0
70,70.22,72.29,0
68,70.17,72.24,0
68,70.13,72.20,0
67,70.07,72.15,0
67,70.00,72.10,0
68,69.96,72.06,0
67,69.91,72.00,0
67,69.85,71.95,0
67,69.79,71.91,0
68,69.75,71.87,0
68,69.72,71.83,0
66,69.64,71.77,0
70,69.65,71.75,0
68,69.62,71.71,0
67,69.57,71.67,0
67,69.52,71.62,0
66,69.44,71.56,0
68,69.42,71.53,0
66,69.35,71.47,0
67,69.30,71.43,0
67,69.25,71.38,0
66,69.19,71.33,0
67,69.15,71.29,0
66,69.08,71.23,0
66,69.02,71.18,0
65,68.94,71.12,0
67,68.90,71.08,0
67,68.86,71.04,0
65,68.79,70.98,0
66,68.73,70.93,0
65,68.66,70.87,0
66,68.60,70.82,0
67,68.57,70.78,0
65,68.50,70.72,0
65,68.43,70.67,0
67,68.40,70.63,0
65,68.33,70.57,0
65,68.27,70.52,0
65,68.20,70.46,0
67,68.18,70.43,0
64,68.09,70.36,0
65,68.03,70.31,0
65,67.97,70.26,0
67,67.95,70.22,0
67,67.93,70.19,0
64,67.85,70.13,0
64,67.78,70.07,0
64,67.70,70.01,0
63,67.61,69.94,0
64,67.54,69.88,0
64,67.46,69.82,0
65,67.42,69.77,0
65,67.37,69.72,0
65,67.32,69.68,0
64,67.25,69.62,0
65,67.21,69.57,0
64,67.14,69.52,0
64,67.08,69.46,0
64,67.02,69.41,0
64,66.96,69.35,0
64,66.90,69.30,0
64,66.84,69.25,0
64,66.79,69.20,0
64,66.73,69.14,0
64,66.67,69.09,0
63,66.60,69.03,0
64,66.55,68.98,0
64,66.50,68.93,0
64,66.45,68.88,0
64,66.40,68.83,0
64,66.35,68.78,0
64,66.30,68.74,0
64,66.26,68.69,0
64,66.21,68.64,0
64,66.17,68.60,0
64,66.13,68.55,0
64,66.08,68.50,0
64,66.04,68.46,0
64,66.00,68.41,0
64,65.96,68.37,0
65,65.94,68.34,0
64,65.90,68.29,0
65,65.88,68.26,0
64,65.85,68.22,0
64,65.81,68.18,0
62,65.73,68.11,0
64,65.70,68.07,0
64,65.66,68.03,0
64,65.63,67.99,0
64,65.60,67.95,0
64,65.57,67.91,0
64,65.54,67.87,0
64,65.50,67.83,0
64,65.47,67.80,0
64,65.45,67.76,0
63,65.40,67.71,0
68,65.45,67.71,0
64,65.42,67.68,0
64,65.39,67.64,0
63,65.34,67.59,0
64,65.32,67.56,0
62,65.25,67.50,0
64,65.23,67.47,0
63,65.18,67.42,0
62,65.12,67.37,0
64,65.09,67.33,0
63,65.05,67.29,0
64,65.03,67.26,0
62,64.97,67.21,0
62,64.91,67.15,0
63,64.87,67.11,0
62,64.82,67.06,0
61,64.74,67.00,0
62,64.68,66.95,0
63,64.65,66.91,0
62,64.60,66.86,0
62,64.55,66.81,0
62,64.50,66.76,0
62,64.45,66.72,0
62,64.40,66.67,0
62,64.35,66.62,0
62,64.30,66.58,0
62,64.26,66.53,0
62,64.21,66.49,0
62,64.17,66.44,0
62,64.12,66.40,0
62,64.08,66.35,0
62,64.04,66.31,0
61,63.98,66.26,0
62,63.94,66.21,0
61,63.88,66.16,0
62,63.84,66.12,0
61,63.79,66.07,0
61,63.73,66.02,0
61,63.68,65.97,0
61,63.62,65.92,0
63,63.61,65.89,0
61,63.56,65.84,0
61,63.51,65.79,0
61,63.46,65.74,0
62,63.43,65.71,0
60,63.36,65.65,0
61,63.31,65.60,0
61,63.26,65.56,0
61,63.22,65.51,0
60,63.15,65.46,0
61,63.11,65.41,0
61,63.07,65.37,0
61,63.03,65.32,0
60,62.97,65.27,0
61,62.93,65.23,0
61,62.89,65.19,0
61,62.85,65.14,0
61,62.81,65.10,0
62,62.80,65.07,0
62,62.78,65.04,0
61,62.75,65.00,0
60,62.69,64.95,0
60,62.64,64.90,0
61,62.61,64.86,0
61,62.57,64.82,0
62,62.56,64.79,0
62,62.55,64.77,0
61,62.52,64.73,0
61,62.49,64.69,0
60,62.44,64.64,0
61,62.41,64.61,0
61,62.38,64.57,0
61,62.35,64.54,0
60,62.31,64.49,0
60,62.26,64.45,0
61,62.24,64.41,0
60,62.19,64.37,0
60,62.15,64.32,0
60,62.10,64.28,0
60,62.06,64.24,0
60,62.02,64.20,0
60,61.98,64.15,0
62,61.98,64.13,0
60,61.94,64.09,0
59,61.88,64.04,0
60,61.85,64.00,0
62,61.85,63.98,0
60,61.81,63.94,0
60,61.78,63.90,0
60,61.74,63.86,0
60,61.70,63.82,0
63,61.73,63.81,0
60,61.70,63.78,0
60,61.66,63.74,0
60,61.63,63.70,0
59,61.58,63.65,0
59,61.52,63.61,0
58,61.45,63.55,0
58,61.39,63.50,0
60,61.36,63.46,0
58,61.29,63.41,0
60,61.26,63.37,0
60,61.24,63.34,0
59,61.19,63.30,0
60,61.17,63.26,0
60,61.15,63.23,0
60,61.12,63.20,0
60,61.10,63.17,0
60,61.08,63.13,0
60,61.06,63.10,0
60,61.04,63.07,0
60,61.02,63.04,0
62,61.04,63.03,0
60,61.02,63.00,0
60,61.00,62.97,0
63,61.04,62.97,0
58,60.97,62.92,0
58,60.91,62.87,0
59,60.88,62.83,0
58,60.82,62.78,0
58,60.76,62.74,0
58,60.71,62.69,0
59,60.67,62.65,0
55,60.56,62.58,0
58,60.51,62.53,0
59,60.48,62.49,0
58,60.43,62.45,0
58,60.38,62.41,0
59,60.35,62.37,0
58,60.31,62.33,0
58,60.26,62.28,0
57,60.19,62.23,0
57,60.13,62.18,0
58,60.09,62.14,0
58,60.05,62.10,0
60,60.05,62.07,0
57,59.98,62.02,0
58,59.94,61.98,0
58,59.91,61.94,0
58,59.87,61.90,0
58,59.83,61.87,0
57,59.77,61.82,0
58,59.74,61.78,0
57,59.68,61.73,0
58,59.65,61.69,0
57,59.60,61.65,0
58,59.56,61.61,0
59,59.55,61.58,0
58,59.52,61.55,0
58,59.49,61.51,0
58,59.46,61.48,0
57,59.41,61.43,0
60,59.42,61.42,0
59,59.42,61.39,0
58,59.39,61.36,0
59,59.38,61.34,0
58,59.35,61.30,0
58,59.33,61.27,0
58,59.30,61.24,0
57,59.25,61.20,0
57,59.21,61.15,0
57,59.16,61.11,0
58,59.14,61.08,0
57,59.10,61.04,0
57,59.06,61.00,0
56,58.99,60.95,0
56,58.93,60.90,0
57,58.90,60.86,0
57,58.86,60.82,0
56,58.80,60.77,0
56,58.74,60.73,0
57,58.71,60.69,0
56,58.66,60.64,0
56,58.60,60.60,0
56,58.55,60.55,0
57,58.52,60.51,0
56,58.47,60.47,0
56,58.42,60.42,0
56,58.37,60.38,0
57,58.34,60.35,0
56,58.30,60.30,0
56,58.25,60.26,0
56,58.21,60.22,0
56,58.16,60.18,0
56,58.12,60.13,0
56,58.08,60.09,0
56,58.03,60.05,0
56,57.99,60.01,0
56,57.95,59.97,0
56,57.92,59.93,0
55,57.86,59.88,0
56,57.82,59.84,0
56,57.78,59.80,0
54,57.71,59.75,0
56,57.67,59.71,0
56,57.64,59.67,0
56,57.61,59.64,0
56,57.58,59.60,0
54,57.50,59.54,0
56,57.47,59.51,0
56,57.44,59.47,0
56,57.42,59.44,0
56,57.39,59.40,0
55,57.34,59.36,0
54,57.27,59.31,0
54,57.21,59.25,0
55,57.16,59.21,0
55,57.12,59.17,0
54,57.06,59.12,0
54,57.00,59.07,0
56,56.98,59.03,0
55,56.94,58.99,0
54,56.88,58.94,0
56,56.86,58.91,0
54,56.80,58.87,0
54,56.75,58.82,0
58,56.77,58.81,0
55,56.74,58.77,0
55,56.70,58.73,0
55,56.67,58.70,0
55,56.63,58.66,0
54,56.58,58.61,0
58,56.61,58.61,0
54,56.56,58.56,0
55,56.53,58.52,0
54,56.48,58.48,0
55,56.45,58.44,0
54,56.40,58.40,0
55,56.37,58.37,0
54,56.32,58.32,0
57,56.34,58.31,0
55,56.31,58.28,0
53,56.24,58.22,0
54,56.20,58.18,0
54,56.15,58.14,0
55,56.13,58.11,0
53,56.07,58.06,0
54,56.03,58.02,0
51,55.93,57.95,0
55,55.91,57.92,0
53,55.85,57.87,0
54,55.81,57.83,0
53,55.76,57.78,0
55,55.74,57.75,0
54,55.71,57.71,0
53,55.65,57.67,0
50,55.54,57.59,0
53,55.49,57.55,0
54,55.46,57.51,0
54,55.43,57.47,0
54,55.40,57.44,0
56,55.41,57.43,0
53,55.36,57.38,0
53,55.32,57.34,0
52,55.25,57.28,0
53,55.21,57.24,0
53,55.16,57.20,0
53,55.12,57.16,0
54,55.10,57.13,0
53,55.05,57.08,0
53,55.01,57.04,0
54,54.99,57.01,0
54,54.97,56.98,0
53,54.93,56.94,0
53,54.90,56.90,0
54,54.88,56.87,0
53,54.84,56.84,0
53,54.80,56.80,0
53,54.77,56.76,0
52,54.71,56.71,0
54,54.70,56.68,0
53,54.66,56.65,0
53,54.63,56.61,0
53,54.60,56.58,0
52,54.55,56.53,0
52,54.49,56.48,0
52,54.44,56.44,0
52,54.40,56.39,0
52,54.35,56.35,0
53,54.32,56.32,0
52,54.27,56.27,0
54,54.27,56.25,0
54,54.26,56.23,0
54,54.26,56.21,0
52,54.21,56.16,0
52,54.17,56.12,0
53,54.15,56.09,0
52,54.10,56.05,0
52,54.06,56.01,0
52,54.02,55.97,0
52,53.98,55.93,0
51,53.92,55.88,0
52,53.88,55.84,0
52,53.84,55.80,0
54,53.85,55.79,0
51,53.79,55.74,0
54,53.79,55.72,0
52,53.76,55.68,0
54,53.76,55.67,0
53,53.75,55.64,0
52,53.71,55.60,0
52,53.68,55.57,0
52,53.64,55.53,0
51,53.59,55.49,0
52,53.56,55.45,0
52,53.53,55.42,0
52,53.50,55.38,0
52,53.47,55.35,0
52,53.44,55.32,0
51,53.39,55.27,0
52,53.36,55.24,0
51,53.32,55.20,0
52,53.29,55.17,0
52,53.26,55.13,0
52,53.24,55.10,0
52,53.21,55.07,0
52,53.19,55.04,0
52,53.17,55.01,0
52,53.14,54.98,0
52,53.12,54.95,0
55,53.16,54.95,0
52,53.13,54.92,0
52,53.11,54.89,0
52,53.09,54.86,0
51,53.05,54.82,0
52,53.03,54.80,0
52,53.01,54.77,0
54,53.03,54.76,0
52,53.00,54.73,0
50,52.94,54.69,0
52,52.93,54.66,0
52,52.91,54.63,0
52,52.89,54.61,0
52,52.87,54.58,0
52,52.85,54.55,0
52,52.84,54.53,0
53,52.84,54.51,0
54,52.86,54.51,0
51,52.83,54.47,0
52,52.81,54.45,0
51,52.77,54.41,0
52,52.76,54.39,0
51,52.72,54.36,0
52,52.71,54.33,0
52,52.69,54.31,0
54,52.72,54.31,0
50,52.67,54.26,0
51,52.63,54.23,0
52,52.62,54.21,0
50,52.57,54.17,0
50,52.52,54.12,0
52,52.51,54.10,0
52,52.50,54.08,0
51,52.47,54.05,0
50,52.42,54.01,0
52,52.41,53.99,0
50,52.36,53.95,0
50,52.31,53.91,0
50,52.27,53.87,0
52,52.26,53.85,0
50,52.22,53.81,0
48,52.13,53.76,0
50,52.09,53.72,0
51,52.07,53.69,0
50,52.03,53.65,0
50,51.99,53.62,0
50,51.95,53.58,0
50,51.91,53.55,0
50,51.87,53.51,0
50,51.83,53.48,0
50,51.79,53.44,0
51,51.78,53.42,0
50,51.74,53.38,0
50,51.71,53.35,0
50,51.67,53.32,0
52,51.68,53.30,0
50,51.65,53.27,0
50,51.61,53.24,0
50,51.58,53.20,0
51,51.57,53.18,0
51,51.56,53.16,0
50,51.53,53.13,0
52,51.54,53.12,0
50,51.51,53.09,0
50,51.48,53.06,0
50,51.45,53.02,0
52,51.46,53.01,0
50,51.43,52.98,0
50,51.40,52.95,0
50,51.37,52.92,0
52,51.38,52.92,0
51,51.38,52.90,0
50,51.35,52.87,0
50,51.32,52.84,0
51,51.32,52.82,0
51,51.31,52.80,0
49,51.26,52.76,0
50,51.24,52.74,0
50,51.21,52.71,0
50,51.19,52.68,0
50,51.17,52.66,0
50,51.14,52.63,0
50,51.12,52.60,0
51,51.12,52.59,0
50,51.09,52.56,0
50,51.07,52.53,0
50,51.05,52.51,0
50,51.03,52.48,0
52,51.05,52.48,0
50,51.03,52.45,0
50,51.01,52.43,0
50,50.99,52.41,0
50,50.97,52.38,0
50,50.95,52.36,0
49,50.91,52.32,0
50,50.89,52.30,0
50,50.87,52.28,0
50,50.86,52.26,0
49,50.82,52.22,0
50,50.80,52.20,0
49,50.77,52.17,0
50,50.75,52.15,0
49,50.72,52.12,0
49,50.68,52.08,0
49,50.65,52.05,0
50,50.64,52.03,0
48,50.58,51.99,0
50,50.57,51.97,0
50,50.56,51.95,0
49,50.53,51.92,0
49,50.50,51.89,0
49,50.47,51.87,0
49,50.44,51.84,0
49,50.41,51.81,0
49,50.38,51.78,0
49,50.35,51.75,0
48,50.31,51.71,0
49,50.28,51.69,0
48,50.24,51.65,0
49,50.21,51.62,0
49,50.19,51.60,0
48,50.14,51.56,0
49,50.12,51.54,0
48,50.08,51.50,0
49,50.06,51.48,0
48,50.01,51.44,0
48,49.97,51.41,0
49,49.95,51.38,0
48,49.92,51.35,0
48,49.88,51.32,0
47,49.82,51.27,0
48,49.78,51.24,0
49,49.77,51.22,0
48,49.73,51.19,0
48,49.70,51.15,0
49,49.68,51.13,0
49,49.67,51.11,0
48,49.64,51.08,0
46,49.56,51.03,0
49,49.55,51.01,0
47,49.50,50.97,0
48,49.47,50.94,0
48,49.44,50.91,0
48,49.41,50.88,0
48,49.39,50.85,0
48,49.36,50.82,0
48,49.33,50.79,0
49,49.32,50.78,0
48,49.30,50.75,0
48,49.27,50.72,0
46,49.21,50.67,0
48,49.18,50.65,0
48,49.16,50.62,0
48,49.13,50.59,0
46,49.07,50.55,0
49,49.07,50.53,0
48,49.05,50.51,0
46,48.99,50.46,0
47,48.95,50.43,0
47,48.91,50.39,0
48,48.89,50.37,0
49,48.89,50.36,0
47,48.86,50.32,0
48,48.84,50.30,0
48,48.82,50.28,0
48,48.81,50.25,0
47,48.77,50.22,0
48,48.75,50.20,0
48,48.74,50.18,0
48,48.72,50.16,0
48,48.71,50.13,0
48,48.70,50.11,0
48,48.68,50.09,0
46,48.63,50.05,0
46,48.58,50.01,0
48,48.56,49.99,0
48,48.55,49.97,0
46,48.50,49.93,0
47,48.47,49.90,0
48,48.46,49.88,0
48,48.45,49.86,0
49,48.46,49.85,0
47,48.43,49.83,0
48,48.43,49.81,0
48,48.42,49.79,0
48,48.41,49.77,0
47,48.38,49.74,0
48,48.37,49.73,0
48,48.37,49.71,0
47,48.34,49.68,0
47,48.31,49.66,0
48,48.31,49.64,0
47,48.28,49.61,0
47,48.25,49.59,0
47,48.23,49.56,0
48,48.22,49.54,0
52,48.30,49.57,0
47,48.27,49.54,0
48,48.27,49.53,0
48,48.26,49.51,0
50,48.30,49.52,0
48,48.29,49.50,0
47,48.27,49.48,0
48,48.26,49.46,0
48,48.26,49.45,0
48,48.25,49.43,0
48,48.25,49.42,0
48,48.24,49.41,0
47,48.22,49.38,0
48,48.21,49.37,0
48,48.21,49.35,0
48,48.20,49.34,0
49,48.22,49.34,0
49,48.23,49.33,0
49,48.25,49.33,0
48,48.24,49.32,0
49,48.26,49.31,0
48,48.25,49.30,0
48,48.25,49.29,0
48,48.24,49.27,0
49,48.26,49.27,0
48,48.25,49.26,0
48,48.25,49.25,0
48,48.24,49.23,0
48,48.24,49.22,0
48,48.23,49.21,0
48,48.23,49.20,0
47,48.21,49.18,0
48,48.20,49.16,0
48,48.20,49.15,0
48,48.19,49.14,0
48,48.19,49.13,0
48,48.19,49.12,0
47,48.16,49.10,0
47,48.14,49.08,0
49,48.16,49.07,0
49,48.17,49.07,0
48,48.17,49.06,0
48,48.17,49.05,0
48,48.16,49.04,0
48,48.16,49.03,0
48,48.16,49.02,0
46,48.11,48.99,0
48,48.11,48.98,0
48,48.11,48.97,0
48,48.11,48.96,0
49,48.12,48.96,0
48,48.12,48.95,0
48,48.12,48.94,0
48,48.12,48.93,0
47,48.09,48.91,0
48,48.09,48.91,0
48,48.09,48.90,0
46,48.05,48.87,0
46,48.01,48.84,0
51,48.07,48.86,0
48,48.07,48.85,0
46,48.03,48.82,0
47,48.00,48.80,0
47,47.98,48.79,0
47,47.96,48.77,0
46,47.93,48.74,0
47,47.91,48.72,0
47,47.89,48.71,0
47,47.87,48.69,0
46,47.83,48.66,0
46,47.80,48.64,0
48,47.80,48.63,0
47,47.79,48.61,0
46,47.75,48.59,0
47,47.73,48.57,0
47,47.72,48.56,0
48,47.73,48.55,0
48,47.73,48.54,0
46,47.70,48.52,0
47,47.68,48.50,0
48,47.69,48.50,0
48,47.69,48.49,0
47,47.68,48.48,0
48,47.69,48.47,0
50,47.73,48.49,0
46,47.70,48.46,0
46,47.66,48.44,0
49,47.69,48.45,0
48,47.70,48.44,0
49,47.72,48.45,0
47,47.71,48.43,0
48,47.72,48.43,0
48,47.72,48.42,0
47,47.71,48.41,0
47,47.69,48.40,0
46,47.66,48.37,0
46,47.63,48.35,0
46,47.59,48.32,0
47,47.58,48.31,0
46,47.55,48.29,0
47,47.54,48.27,0
47,47.53,48.26,0
47,47.52,48.25,0
47,47.51,48.24,0
48,47.52,48.23,0
46,47.49,48.21,0
47,47.48,48.20,0
48,47.49,48.20,0
47,47.48,48.19,0
48,47.49,48.18,0
47,47.48,48.17,0
50,47.53,48.19,0
49,47.56,48.20,0
48,47.57,48.20,0
48,47.58,48.19,0
49,47.60,48.20,0
47,47.59,48.19,0
48,47.60,48.19,0
47,47.59,48.18,0
49,47.62,48.19,0
49,47.64,48.19,0
47,47.63,48.18,0
48,47.64,48.18,0
47,47.63,48.17,0
48,47.63,48.17,0
48,47.64,48.16,0
47,47.63,48.15,0
49,47.66,48.16,0
48,47.66,48.16,0
48,47.67,48.16,0
48,47.68,48.16,0
48,47.68,48.16,0
48,47.69,48.15,0
48,47.69,48.15,0
48,47.70,48.15,0
49,47.73,48.16,0
49,47.75,48.17,0
49,47.78,48.18,0
46,47.74,48.15,0
49,47.77,48.16,0
48,47.77,48.16,0
48,47.78,48.16,0
48,47.78,48.16,0
48,47.78,48.16,0
48,47.79,48.15,0
49,47.81,48.16,0
48,47.82,48.16,0
49,47.84,48.17,0
49,47.86,48.18,0
48,47.87,48.18,0
48,47.87,48.17,0
48,47.87,48.17,0
48,47.87,48.17,0
48,47.88,48.17,0
46,47.84,48.15,0
48,47.84,48.15,0
48,47.85,48.14,0
48,47.85,48.14,0
47,47.83,48.13,0
48,47.84,48.13,0
48,47.84,48.13,0
48,47.84,48.13,0
47,47.82,48.12,0
48,47.83,48.12,0
48,47.83,48.11,0
48,47.84,48.11,0
48,47.84,48.11,0
49,47.86,48.12,0
48,47.86,48.12,0
48,47.87,48.12,0
47,47.85,48.11,0
48,47.85,48.11,0
48,47.86,48.11,0
48,47.86,48.10,0
50,47.90,48.12,0
48,47.90,48.12,0
48,47.91,48.12,0
48,47.91,48.12,0
47,47.89,48.11,0
48,47.89,48.11,0
48,47.89,48.11,0
47,47.88,48.09,0
47,47.86,48.08,0
49,47.88,48.09,0
48,47.88,48.09,0
49,47.91,48.10,0
47,47.89,48.09,0
50,47.93,48.11,0
48,47.93,48.11,0
47,47.91,48.10,0
47,47.89,48.09,0
49,47.92,48.10,0
48,47.92,48.09,0
48,47.92,48.09,0
49,47.94,48.10,0
48,47.94,48.10,0
48,47.94,48.10,0
48,47.94,48.10,0
49,47.97,48.11,0
48,47.97,48.11,0
48,47.97,48.11,0
48,47.97,48.11,0
48,47.97,48.10,0
48,47.97,48.10,0
48,47.97,48.10,0
50,48.01,48.12,0
49,48.03,48.13,0
49,48.05,48.14,0
49,48.07,48.15,0
50,48.11,48.17,0
49,48.13,48.17,0
50,48.16,48.19,0
49,48.18,48.20,0
49,48.20,48.21,0
49,48.21,48.22,0
49,48.23,48.22,0
49,48.24,48.23,0
48,48.24,48.23,0
49,48.25,48.24,0
52,48.33,48.27,0
49,48.34,48.28,0
49,48.35,48.29,0
51,48.41,48.32,0
53,48.50,48.36,0
52,48.57,48.40,0
50,48.60,48.42,0
51,48.65,48.44,0
53,48.73,48.49,0
55,48.86,48.55,0
52,48.92,48.59,0
54,49.02,48.64,0
55,49.14,48.70,0
52,49.20,48.74,0
52,49.26,48.77,0
51,49.29,48.79,0
53,49.36,48.83,0
52,49.42,48.87,0
52,49.47,48.90,0
52,49.52,48.93,0
52,49.57,48.96,0
53,49.64,49.00,0
52,49.69,49.03,0
52,49.73,49.06,0
52,49.78,49.09,0
52,49.82,49.12,0
52,49.87,49.15,0
52,49.91,49.18,0
53,49.97,49.21,0
52,50.01,49.24,0
54,50.09,49.29,0
54,50.17,49.34,0
52,50.20,49.36,0
53,50.26,49.40,0
52,50.30,49.43,0
54,50.37,49.47,0
53,50.42,49.51,0
54,50.49,49.55,0
54,50.56,49.60,0
54,50.63,49.64,0
53,50.68,49.67,0
54,50.75,49.72,0
54,50.81,49.76,0
54,50.88,49.80,0
55,50.96,49.85,0
54,51.02,49.90,0
54,51.08,49.94,0
55,51.16,49.99,0
53,51.19,50.02,0
54,51.25,50.06,0
54,51.30,50.10,0
54,51.36,50.14,0
56,51.45,50.19,0
54,51.50,50.23,0
58,51.63,50.31,0
54,51.68,50.35,0
54,51.73,50.38,0
54,51.77,50.42,0
54,51.82,50.46,0
56,51.90,50.51,0
55,51.96,50.56,0
54,52.00,50.59,0
56,52.08,50.64,0
56,52.16,50.70,0
55,52.22,50.74,0
55,52.27,50.78,0
57,52.37,50.85,0
56,52.44,50.90,0
55,52.49,50.94,0
56,52.56,50.99,0
60,52.71,51.08,0
57,52.80,51.14,0
56,52.86,51.19,0
56,52.92,51.23,0
56,52.98,51.28,0
55,53.03,51.32,0
58,53.12,51.39,0
58,53.22,51.45,0
60,53.36,51.54,0
57,53.43,51.59,0
58,53.52,51.66,0
58,53.61,51.72,0
60,53.74,51.80,0
61,53.88,51.89,0
61,54.03,51.99,0
60,54.15,52.07,0
59,54.24,52.14,0
60,54.36,52.21,0
60,54.47,52.29,0
59,54.56,52.36,0
62,54.71,52.46,0
63,54.88,52.56,0
62,55.02,52.66,0
61,55.14,52.74,0
61,55.26,52.82,0
61,55.37,52.90,0
61,55.48,52.98,0
64,55.65,53.09,0
64,55.82,53.20,0
65,56.00,53.32,0
67,56.22,53.46,0
64,56.38,53.56,0
64,56.53,53.67,0
65,56.70,53.78,0
64,56.85,53.88,0
64,56.99,53.98,0
66,57.17,54.10,0
64,57.31,54.20,0
64,57.44,54.30,0
68,57.65,54.44,0
66,57.82,54.55,0
67,58.00,54.68,0
65,58.14,54.78,0
66,58.30,54.89,0
66,58.45,55.00,0
70,58.68,55.15,0
71,58.93,55.31,0
70,59.15,55.46,0
70,59.37,55.61,0
70,59.58,55.75,0
72,59.83,55.91,0
71,60.05,56.06,0
70,60.25,56.20,0
72,60.49,56.36,0
73,60.74,56.53,0
72,60.96,56.68,0
71,61.16,56.82,0
72,61.38,56.98,0
72,61.59,57.13,0
72,61.80,57.28,0
72,62.01,57.42,0
72,62.20,57.57,0
73,62.42,57.72,0
72,62.61,57.87,0
72,62.80,58.01,0
72,62.98,58.15,0
72,63.16,58.29,0
72,63.34,58.42,0
70,63.47,58.54,0
74,63.68,58.69,0
74,63.89,58.85,0
74,64.09,59.00,0
74,64.29,59.15,0
76,64.53,59.32,0
76,64.76,59.48,0
76,64.98,59.65,0
76,65.20,59.81,0
76,65.42,59.97,0
78,65.67,60.15,0
77,65.89,60.32,0
76,66.10,60.48,0
78,66.33,60.65,0
77,66.55,60.82,0
78,66.78,60.99,0
78,67.00,61.16,0
76,67.18,61.31,0
79,67.42,61.48,0
80,67.67,61.67,0
80,67.92,61.85,0
78,68.12,62.01,0
78,68.32,62.17,0
78,68.51,62.33,0
78,68.70,62.49,0
78,68.89,62.64,0
79,69.09,62.81,0
78,69.27,62.96,0
80,69.48,63.13,0
79,69.67,63.29,0
79,69.86,63.45,0
78,70.02,63.59,0
81,70.24,63.77,0
81,70.46,63.94,0
81,70.67,64.11,0
84,70.93,64.31,0
82,71.15,64.48,0
81,71.35,64.65,0
81,71.54,64.81,0
86,71.83,65.03,0
90,72.20,65.28,0
86,72.47,65.48,0
85,72.72,65.68,0
86,72.99,65.88,0
87,73.27,66.09,0
85,73.50,66.28,0
86,73.75,66.48,0
94,74.16,66.75,0
92,74.52,67.01,0
92,74.86,67.26,0
90,75.17,67.48,0
92,75.50,67.73,0
96,75.91,68.01,0
97,76.34,68.30,0
95,76.71,68.57,0
99,77.15,68.87,0
95,77.51,69.13,0
95,77.86,69.39,0
97,78.24,69.67,0
96,78.60,69.93,0
100,79.03,70.23,0
101,79.47,70.54,0
99,79.86,70.82,0
96,80.18,71.08,0
98,80.54,71.35,0
98,80.89,71.61,0
102,81.31,71.92,0
103,81.74,72.23,0
100,82.11,72.50,0
105,82.57,72.83,0
105,83.01,73.15,0
107,83.49,73.49,0
109,84.00,73.84,0
109,84.50,74.20,0
109,84.99,74.54,0
114,85.57,74.94,0
116,86.18,75.35,0
116,86.78,75.76,0
114,87.32,76.14,0
117,87.92,76.55,0
117,88.50,76.95,0
114,89.01,77.32,0
113,89.49,77.68,0
115,90.00,78.05,0
118,90.56,78.45,0
119,91.13,78.86,0
116,91.62,79.23,0
120,92.19,79.64,0
120,92.75,80.04,0
120,93.29,80.44,0
122,93.87,80.86,0
123,94.45,81.28,0
121,94.98,81.67,0
122,95.52,82.08,0
124,96.09,82.50,0
124,96.65,82.91,0
123,97.18,83.31,0
125,97.73,83.73,0
124,98.26,84.13,0
123,98.75,84.52,0
125,99.28,84.93,0
126,99.81,85.34,0
125,100.32,85.73,0
125,100.81,86.13,0
123,101.25,86.49,0
124,101.71,86.87,0
124,102.15,87.24,0
126,102.63,87.63,0
124,103.06,87.99,0
124,103.48,88.35,0
124,103.89,88.71,0
127,104.35,89.09,0
126,104.78,89.46,0
125,105.19,89.82,0
128,105.64,90.20,0
128,106.09,90.58,0
127,106.51,90.94,0
126,106.90,91.29,0
130,107.36,91.68,0
132,107.85,92.08,0
128,108.26,92.44,0
130,108.69,92.82,0
128,109.08,93.17,0
128,109.46,93.52,0
128,109.83,93.86,0
128,110.19,94.20,0
128,110.55,94.54,0
129,110.92,94.88,0
128,111.26,95.22,0
132,111.67,95.58,0
129,112.02,95.92,0
129,112.36,96.25,0
131,112.73,96.60,0
134,113.16,96.97,0
134,113.57,97.34,0
134,113.98,97.71,0
132,114.34,98.05,0
138,114.82,98.45,0
140,115.32,98.86,0
136,115.73,99.24,0
135,116.12,99.59,0
136,116.52,99.96,0
138,116.95,100.34,0
136,117.33,100.70,0
139,117.76,101.08,0
137,118.14,101.44,0
137,118.52,101.79,0
138,118.91,102.15,0
137,119.27,102.50,0
137,119.63,102.85,0
137,119.98,103.19,0
137,120.32,103.53,0
140,120.71,103.89,0
138,121.06,104.23,0
138,121.39,104.57,0
138,121.73,104.91,0
137,122.03,105.23,0
137,122.33,105.54,0
138,122.64,105.87,0
139,122.97,106.20,0
137,123.25,106.51,0
139,123.57,106.83,0
138,123.86,107.14,0
140,124.18,107.47,0
137,124.44,107.77,0
138,124.71,108.07,0
137,124.95,108.36,0
139,125.23,108.67,0
139,125.51,108.97,0
139,125.78,109.27,0
138,126.02,109.56,0
139,126.28,109.85,0
139,126.54,110.14,0
139,126.79,110.43,0
137,126.99,110.70,0
141,127.27,111.00,0
143,127.59,111.32,0
142,127.87,111.63,0
141,128.14,111.92,0
142,128.41,112.22,0
143,128.70,112.53,0
139,128.91,112.79,0
141,129.15,113.08,0
141,129.39,113.36,0
142,129.64,113.64,0
141,129.87,113.92,0
143,130.13,114.21,0
141,130.35,114.47,0
141,130.56,114.74,0
143,130.81,115.02,0
143,131.05,115.30,0
143,131.29,115.58,0
141,131.49,115.83,0
141,131.68,116.09,0
141,131.86,116.33,0
141,132.05,116.58,0
141,132.23,116.83,0
141,132.40,117.07,0
141,132.57,117.31,0
141,132.74,117.54,0
140,132.89,117.77,0
141,133.05,118.00,0
140,133.19,118.22,0
139,133.30,118.43,0
139,133.42,118.63,0
140,133.55,118.85,0
141,133.70,119.07,0
140,133.83,119.28,0
139,133.93,119.48,0
142,134.09,119.70,0
140,134.21,119.90,0
140,134.32,120.10,0
140,134.44,120.30,0
139,134.53,120.49,0
140,134.64,120.69,0
141,134.77,120.89,0
140,134.87,121.08,0
139,134.95,121.26,0
140,135.05,121.45,0
139,135.13,121.62,0
143,135.29,121.84,0
139,135.36,122.01,0
139,135.44,122.18,0
139,135.51,122.35,0
140,135.60,122.52,0
138,135.65,122.68,0
139,135.71,122.84,0
139,135.78,123.00,0
138,135.82,123.15,0
139,135.89,123.31,0
137,135.91,123.45,0
138,135.95,123.59,0
138,135.99,123.74,0
139,136.05,123.89,0
137,136.07,124.02,0
139,136.13,124.17,0
136,136.13,124.29,0
137,136.14,124.42,0
136,136.14,124.53,0
136,136.14,124.65,0
136,136.14,124.76,0
136,136.13,124.87,0
135,136.11,124.97,0
135,136.09,125.07,0
136,136.09,125.18,0
135,136.07,125.28,0
135,136.04,125.38,0
135,136.02,125.47,0
135,136.00,125.57,0
134,135.96,125.65,0
133,135.90,125.73,0
134,135.87,125.81,0
135,135.85,125.90,0
133,135.79,125.97,0
134,135.75,126.05,0
133,135.70,126.12,0
134,135.67,126.20,0
133,135.61,126.27,0
133,135.56,126.34,0
133,135.51,126.40,0
132,135.44,126.46,0
133,135.39,126.52,0
132,135.32,126.58,0
132,135.26,126.63,0
131,135.17,126.68,0
132,135.11,126.73,0
131,135.03,126.77,0
132,134.96,126.83,0
131,134.89,126.87,0
131,134.81,126.91,0
129,134.69,126.93,0
130,134.60,126.96,0
131,134.53,127.00,0
132,134.48,127.05,0
129,134.37,127.07,0
131,134.30,127.11,0
133,134.27,127.17,0
130,134.19,127.20,0
131,134.12,127.23,0
131,134.06,127.27,0
131,134.00,127.31,0
130,133.92,127.34,0
130,133.84,127.36,0
129,133.74,127.38,0
131,133.69,127.42,0
129,133.60,127.43,0
129,133.50,127.45,0
129,133.41,127.46,0
130,133.35,127.49,0
130,133.28,127.51,0
129,133.19,127.53,0
128,133.09,127.53,0
129,133.01,127.55,0
129,132.93,127.56,0
128,132.83,127.57,0
128,132.73,127.57,0
128,132.64,127.58,0
127,132.52,127.57,0
127,132.41,127.56,0
129,132.35,127.58,0
127,132.24,127.57,0
128,132.15,127.58,0
127,132.05,127.57,0
127,131.95,127.57,0
126,131.83,127.55,0
126,131.71,127.53,0
127,131.62,127.53,0
126,131.51,127.51,0
125,131.38,127.49,0
126,131.27,127.47,0
127,131.18,127.47,0
126,131.08,127.45,0
125,130.96,127.43,0
125,130.84,127.41,0
125,130.72,127.38,0
125,130.61,127.36,0
125,130.50,127.33,0
124,130.37,127.30,0
124,130.24,127.27,0
125,130.13,127.24,0
126,130.05,127.23,0
125,129.95,127.21,0
126,129.87,127.20,0
125,129.77,127.18,0
125,129.68,127.15,0
124,129.57,127.12,0
125,129.47,127.10,0
125,129.38,127.08,0
124,129.28,127.05,0
125,129.19,127.03,0
124,129.09,127.00,0
124,128.99,126.97,0
123,128.87,126.93,0
125,128.79,126.91,0
125,128.71,126.89,0
123,128.60,126.85,0
125,128.53,126.83,0
124,128.44,126.80,0
124,128.35,126.78,0
124,128.26,126.75,0
124,128.18,126.72,0
124,128.09,126.69,0
124,128.01,126.67,0
124,127.93,126.64,0
123,127.83,126.60,0
123,127.73,126.57,0
123,127.64,126.53,0
123,127.55,126.50,0
124,127.48,126.47,0
123,127.39,126.44,0
122,127.28,126.39,0
124,127.21,126.37,0
123,127.13,126.34,0
121,127.01,126.28,0
123,126.93,126.25,0
121,126.81,126.20,0
121,126.69,126.15,0
121,126.58,126.09,0
121,126.47,126.04,0
121,126.36,125.99,0
121,126.25,125.94,0
121,126.14,125.89,0
121,126.04,125.84,0
122,125.96,125.81,0
121,125.86,125.76,0
122,125.78,125.72,0
121,125.69,125.67,0
121,125.60,125.63,0
121,125.50,125.58,0
124,125.47,125.56,0
120,125.36,125.51,0
121,125.28,125.46,0
120,125.17,125.41,0
119,125.05,125.34,0
120,124.95,125.29,0
119,124.83,125.23,0
119,124.71,125.17,0
119,124.60,125.10,0
119,124.49,125.04,0
118,124.36,124.97,0
119,124.25,124.91,0
118,124.12,124.84,0
118,124.00,124.78,0
118,123.88,124.71,0
117,123.74,124.63,0
114,123.55,124.52,0
118,123.44,124.46,0
117,123.31,124.38,0
117,123.18,124.31,0
117,123.06,124.24,0
117,122.94,124.17,0
116,122.80,124.08,0
116,122.66,124.00,0
116,122.53,123.92,0
116,122.40,123.84,0
116,122.27,123.76,0
115,122.13,123.68,0
116,122.00,123.60,0
115,121.86,123.51,0
116,121.75,123.44,0
115,121.61,123.36,0
115,121.48,123.27,0
115,121.35,123.19,0
116,121.24,123.12,0
113,121.08,123.02,0
114,120.94,122.93,0
114,120.80,122.84,0
114,120.66,122.75,0
113,120.51,122.65,0
114,120.38,122.56,0
113,120.23,122.47,0
113,120.09,122.37,0
114,119.96,122.29,0
113,119.82,122.20,0
114,119.71,122.12,0
114,119.59,122.03,0
113,119.46,121.94,0
113,119.33,121.85,0
114,119.23,121.78,0
113,119.10,121.69,0
113,118.98,121.60,0
113,118.86,121.51,0
113,118.74,121.43,0
111,118.59,121.33,0
115,118.52,121.26,0
112,118.39,121.17,0
112,118.26,121.08,0
113,118.15,121.00,0
111,118.01,120.90,0
111,117.87,120.80,0
112,117.75,120.71,0
113,117.66,120.63,0
111,117.52,120.54,0
111,117.39,120.44,0
111,117.27,120.35,0
113,117.18,120.27,0
111,117.06,120.18,0
111,116.94,120.09,0
111,116.82,120.00,0
110,116.68,119.90,0
110,116.55,119.80,0
110,116.42,119.70,0
109,116.27,119.59,0
110,116.14,119.50,0
109,116.00,119.39,0
110,115.88,119.30,0
111,115.78,119.22,0
110,115.67,119.12,0
109,115.53,119.02,0
109,115.40,118.92,0
109,115.27,118.82,0
109,115.15,118.73,0
110,115.05,118.64,0
109,114.93,118.54,0
109,114.81,118.45,0
107,114.65,118.33,0
109,114.54,118.24,0
108,114.41,118.14,0
108,114.28,118.03,0
108,114.15,117.93,0
108,114.03,117.83,0
108,113.91,117.74,0
107,113.77,117.63,0
109,113.68,117.54,0
107,113.54,117.44,0
108,113.43,117.34,0
108,113.32,117.25,0
108,113.22,117.16,0
108,113.11,117.07,0
107,112.99,116.96,0
107,112.87,116.87,0
106,112.73,116.76,0
106,112.60,116.65,0
108,112.51,116.56,0
107,112.40,116.47,0
106,112.27,116.36,0
105,112.12,116.25,0
105,111.98,116.14,0
107,111.88,116.04,0
103,111.70,115.91,0
105,111.57,115.81,0
105,111.44,115.70,0
105,111.31,115.59,0
105,111.18,115.48,0
105,111.06,115.38,0
105,110.94,115.28,0
105,110.82,115.17,0
105,110.70,115.07,0
105,110.59,114.97,0
104,110.46,114.86,0
105,110.35,114.76,0
105,110.24,114.66,0
104,110.12,114.56,0
104,109.99,114.45,0
103,109.85,114.34,0
104,109.74,114.23,0
103,109.60,114.12,0
103,109.47,114.01,0
103,109.34,113.90,0
104,109.23,113.80,0
101,109.07,113.67,0
103,108.95,113.57,0
102,108.81,113.45,0
103,108.69,113.35,0
101,108.54,113.22,0
103,108.43,113.12,0
101,108.28,113.00,0
101,108.13,112.88,0
101,107.99,112.76,0
102,107.87,112.65,0
102,107.75,112.55,0
102,107.64,112.44,0
101,107.51,112.33,0
101,107.38,112.21,0
101,107.25,112.10,0
101,107.12,111.99,0
101,107.00,111.88,0
101,106.88,111.77,0
101,106.76,111.66,0
101,106.65,111.56,0
101,106.53,111.45,0
99,106.38,111.33,0
100,106.26,111.21,0
99,106.11,111.09,0
100,105.99,110.98,0
100,105.87,110.87,0
98,105.71,110.74,0
100,105.60,110.64,0
99,105.47,110.52,0
100,105.36,110.41,0
100,105.25,110.31,0
99,105.12,110.20,0
98,104.98,110.07,0
98,104.84,109.95,0
98,104.71,109.83,0
100,104.61,109.74,0
99,104.50,109.63,0
99,104.39,109.52,0
98,104.26,109.41,0
98,104.14,109.29,0
98,104.01,109.18,0
98,103.89,109.07,0
98,103.78,108.96,0
98,103.66,108.85,0
98,103.55,108.74,0
98,103.44,108.63,0
97,103.31,108.52,0
98,103.20,108.41,0
97,103.08,108.30,0
96,102.94,108.17,0
98,102.84,108.07,0
98,102.74,107.97,0
95,102.59,107.84,0
97,102.47,107.73,0
97,102.36,107.63,0
96,102.24,107.51,0
95,102.09,107.38,0
96,101.97,107.27,0
96,101.85,107.16,0
97,101.75,107.06,0
98,101.68,106.97,0
96,101.56,106.86,0
96,101.45,106.75,0
96,101.34,106.64,0
95,101.22,106.52,0
96,101.11,106.42,0
95,100.99,106.30,0
95,100.87,106.19,0
91,100.67,106.04,0
95,100.56,105.93,0
95,100.45,105.82,0
95,100.34,105.71,0
96,100.25,105.61,0
95,100.15,105.51,0
96,100.07,105.41,0
96,99.98,105.32,0
95,99.88,105.22,0
97,99.83,105.13,0
95,99.73,105.03,0
95,99.64,104.93,0
95,99.54,104.83,0
95,99.45,104.73,0
95,99.36,104.64,0
96,99.30,104.55,0
95,99.21,104.45,0
95,99.13,104.36,0
95,99.04,104.27,0
94,98.94,104.16,0
94,98.84,104.06,0
95,98.77,103.97,0
93,98.65,103.86,0
93,98.54,103.75,0
93,98.43,103.65,0
93,98.32,103.54,0
93,98.21,103.43,0
93,98.11,103.33,0
93,98.01,103.23,0
93,97.91,103.12,0
93,97.81,103.02,0
93,97.71,102.92,0
93,97.62,102.82,0
92,97.51,102.72,0
92,97.40,102.61,0
91,97.27,102.49,0
93,97.18,102.40,0
91,97.06,102.28,0
92,96.96,102.18,0
92,96.86,102.08,0
91,96.74,101.97,0
91,96.63,101.86,0
92,96.53,101.76,0
91,96.42,101.65,0
91,96.31,101.55,0
92,96.23,101.45,0
91,96.12,101.35,0
92,96.04,101.25,0
89,95.90,101.13,0
91,95.80,101.03,0
91,95.71,100.93,0
92,95.63,100.84,0
90,95.52,100.73,0
91,95.43,100.63,0
92,95.36,100.55,0
90,95.25,100.44,0
90,95.15,100.34,0
91,95.07,100.24,0
91,94.98,100.15,0
90,94.88,100.05,0
90,94.79,99.95,0
90,94.69,99.85,0
90,94.60,99.75,0
90,94.50,99.65,0
90,94.41,99.56,0
89,94.31,99.45,0
88,94.18,99.34,0
88,94.06,99.22,0
88,93.94,99.11,0
89,93.84,99.01,0
88,93.72,98.90,0
88,93.61,98.79,0
90,93.53,98.70,0
89,93.44,98.61,0
88,93.33,98.50,0
88,93.23,98.40,0
89,93.14,98.30,0
88,93.04,98.20,0
88,92.94,98.10,0
88,92.84,98.00,0
88,92.74,97.90,0
88,92.65,97.80,0
88,92.56,97.70,0
88,92.46,97.60,0
88,92.38,97.51,0
87,92.27,97.40,0
87,92.16,97.30,0
88,92.08,97.20,0
88,92.00,97.11,0
87,91.90,97.01,0
86,91.78,96.90,0
89,91.72,96.82,0
87,91.63,96.72,0
87,91.54,96.63,0
88,91.47,96.54,0
86,91.36,96.43,0
87,91.27,96.34,0
86,91.16,96.24,0
86,91.06,96.13,0
86,90.96,96.03,0
87,90.88,95.94,0
87,90.80,95.85,0
86,90.71,95.75,0
86,90.61,95.66,0
87,90.54,95.57,0
86,90.45,95.47,0
86,90.36,95.38,0
86,90.27,95.29,0
85,90.17,95.18,0
85,90.06,95.08,0
85,89.96,94.98,0
86,89.88,94.89,0
85,89.79,94.79,0
86,89.71,94.70,0
90,89.72,94.66,0
85,89.62,94.56,0
86,89.55,94.47,0
86,89.48,94.39,0
85,89.39,94.30,0
85,89.30,94.20,0
84,89.20,94.10,0
87,89.15,94.03,0
86,89.09,93.95,0
84,88.99,93.85,0
84,88.89,93.75,0
84,88.79,93.65,0
86,88.73,93.58,0
84,88.64,93.48,0
84,88.55,93.39,0
87,88.52,93.32,0
81,88.36,93.20,0
84,88.28,93.11,0
84,88.19,93.02,0
85,88.13,92.94,0
84,88.05,92.85,0
83,87.94,92.75,0
82,87.83,92.64,0
84,87.75,92.55,0
82,87.63,92.45,0
82,87.52,92.34,0
85,87.47,92.27,0
82,87.36,92.17,0
85,87.31,92.10,0
84,87.25,92.02,0
83,87.16,91.93,0
84,87.10,91.85,0
84,87.04,91.77,0
83,86.96,91.68,0
81,86.84,91.57,0
84,86.78,91.50,0
84,86.73,91.42,0
82,86.63,91.33,0
82,86.54,91.24,0
84,86.49,91.16,0
82,86.40,91.07,0
82,86.31,90.98,0
82,86.22,90.89,0
84,86.18,90.82,0
82,86.10,90.73,0
82,86.01,90.65,0
82,85.93,90.56,0
82,85.86,90.47,0
82,85.78,90.39,0
82,85.70,90.31,0
84,85.67,90.24,0
81,85.57,90.15,0
82,85.50,90.07,0
82,85.43,89.99,0
82,85.36,89.91,0
82,85.30,89.83,0
82,85.23,89.75,0
81,85.15,89.66,0
79,85.02,89.56,0
81,84.94,89.47,0
80,84.84,89.38,0
80,84.75,89.28,0
79,84.63,89.18,0
81,84.56,89.10,0
80,84.47,89.01,0
80,84.38,88.92,0
81,84.31,88.84,0
80,84.23,88.75,0
80,84.14,88.66,0
80,84.06,88.58,0
79,83.96,88.48,0
81,83.90,88.40,0
80,83.82,88.32,0
80,83.74,88.24,0
79,83.65,88.15,0
81,83.60,88.07,0
80,83.52,87.99,0
79,83.43,87.90,0
79,83.34,87.81,0
80,83.28,87.74,0
80,83.21,87.66,0
79,83.13,87.57,0
79,83.05,87.49,0
81,83.00,87.42,0
80,82.94,87.35,0
78,82.85,87.25,0
80,82.79,87.18,0
79,82.71,87.10,0
80,82.66,87.03,0
79,82.59,86.95,0
80,82.53,86.88,0
79,82.46,86.80,0
78,82.37,86.71,0
78,82.29,86.62,0
79,82.22,86.55,0
78,82.14,86.46,0
79,82.07,86.39,0
79,82.01,86.31,0
78,81.93,86.23,0
78,81.85,86.15,0
79,81.80,86.08,0
79,81.74,86.01,0
78,81.67,85.93,0
78,81.59,85.85,0
78,81.52,85.77,0
78,81.45,85.69,0
78,81.38,85.61,0
79,81.33,85.55,0
78,81.27,85.47,0
78,81.20,85.40,0
78,81.14,85.32,0
78,81.07,85.25,0
78,81.01,85.18,0
77,80.93,85.10,0
78,80.87,85.03,0
80,80.86,84.98,0
78,80.80,84.91,0
76,80.70,84.82,0
77,80.63,84.74,0
77,80.56,84.66,0
76,80.47,84.57,0
76,80.38,84.49,0
78,80.33,84.42,0
78,80.28,84.36,0
77,80.22,84.29,0
78,80.17,84.22,0
77,80.11,84.15,0
77,80.05,84.08,0
77,79.99,84.01,0
77,79.93,83.94,0
76,79.85,83.86,0
75,79.75,83.77,0
77,79.70,83.70,0
77,79.64,83.64,0
77,79.59,83.57,0
77,79.54,83.50,0
76,79.47,83.43,0
77,79.42,83.36,0
76,79.35,83.29,0
77,79.30,83.23,0
76,79.24,83.16,0
75,79.15,83.07,0
76,79.09,83.00,0
76,79.03,82.93,0
75,78.95,82.85,0
76,78.89,82.79,0
76,78.83,82.72,0
77,78.79,82.66,0
75,78.72,82.58,0
74,78.62,82.50,0
76,78.57,82.43,0
77,78.54,82.38,0
75,78.47,82.30,0
74,78.38,82.22,0
75,78.31,82.15,0
76,78.26,82.09,0
75,78.20,82.02,0
74,78.12,81.94,0
76,78.07,81.88,0
75,78.01,81.81,0
74,77.93,81.73,0
74,77.85,81.65,0
74,77.78,81.58,0
74,77.70,81.50,0
74,77.63,81.43,0
74,77.55,81.35,0
76,77.52,81.30,0
74,77.45,81.23,0
74,77.38,81.15,0
74,77.32,81.08,0
74,77.25,81.01,0
75,77.20,80.95,0
74,77.14,80.88,0
74,77.08,80.81,0
74,77.02,80.74,0
74,76.96,80.68,0
74,76.90,80.61,0
77,76.90,80.57,0
75,76.86,80.52,0
74,76.80,80.45,0
74,76.75,80.39,0
76,76.73,80.34,0
75,76.70,80.29,0
74,76.64,80.23,0
74,76.59,80.17,0
74,76.54,80.10,0
75,76.51,80.05,0
74,76.46,79.99,0
74,76.41,79.93,0
74,76.36,79.87,0
74,76.31,79.81,0
74,76.27,79.76,0
74,76.22,79.70,0
74,76.18,79.64,0
74,76.13,79.59,0
74,76.09,79.53,0
74,76.05,79.47,0
74,76.01,79.42,0
74,75.97,79.37,0
76,75.97,79.33,0
73,75.91,79.27,0
72,75.83,79.20,0
73,75.77,79.13,0
73,75.72,79.07,0
73,75.66,79.01,0
73,75.61,78.95,0
76,75.62,78.92,0
73,75.57,78.86,0
73,75.52,78.80,0
73,75.47,78.75,0
72,75.40,78.68,0
72,75.33,78.61,0
74,75.30,78.57,0
72,75.24,78.50,0
71,75.15,78.43,0
73,75.11,78.37,0
72,75.05,78.31,0
72,74.98,78.24,0
72,74.92,78.18,0
73,74.89,78.13,0
72,74.83,78.07,0
72,74.77,78.01,0
72,74.72,77.95,0
73,74.68,77.90,0
72,74.63,77.84,0
72,74.58,77.78,0
71,74.50,77.71,0
72,74.45,77.66,0
72,74.41,77.60,0
71,74.34,77.53,0
75,74.35,77.51,0
72,74.30,77.45,0
71,74.24,77.39,0
72,74.19,77.33,0
71,74.13,77.27,0
71,74.07,77.21,0
71,74.01,77.15,0
70,73.92,77.08,0
67,73.79,76.97,0
71,73.73,76.91,0
70,73.66,76.85,0
70,73.58,76.78,0
72,73.55,76.73,0
71,73.50,76.67,0
70,73.43,76.61,0
70,73.36,76.54,0
66,73.21,76.43,0
69,73.13,76.36,0
70,73.07,76.30,0
69,72.99,76.22,0
70,72.93,76.16,0
70,72.87,76.10,0
69,72.79,76.03,0
68,72.69,75.95,0
69,72.62,75.88,0
69,72.55,75.81,0
70,72.50,75.75,0
69,72.43,75.68,0
69,72.36,75.62,0
69,72.29,75.55,0
68,72.21,75.48,0
68,72.12,75.40,0
69,72.06,75.34,0
72,72.06,75.30,0
68,71.98,75.23,0
68,71.90,75.16,0
70,71.86,75.11,0
69,71.80,75.05,0
68,71.73,74.97,0
70,71.69,74.93,0
70,71.66,74.88,0
68,71.58,74.81,0
68,71.51,74.74,0
68,71.44,74.67,0
70,71.41,74.62,0
70,71.39,74.58,0
70,71.36,74.53,0
69,71.31,74.48,0
69,71.26,74.42,0
70,71.24,74.38,0
68,71.17,74.31,0
68,71.11,74.25,0
69,71.07,74.20,0
68,71.01,74.14,0
70,70.99,74.10,0
68,70.93,74.03,0
67,70.85,73.96,0
68,70.79,73.90,0
68,70.74,73.85,0
68,70.68,73.79,0
67,70.61,73.72,0
70,70.60,73.68,0
68,70.54,73.63,0
68,70.49,73.57,0
69,70.46,73.52,0
67,70.39,73.46,0
69,70.37,73.41,0
68,70.32,73.36,0
68,70.27,73.31,0
70,70.27,73.27,0
68,70.22,73.22,0
69,70.20,73.18,0
68,70.15,73.13,0
68,70.11,73.07,0
68,70.07,73.02,0
68,70.03,72.97,0
69,70.01,72.93,0
70,70.01,72.90,0
68,69.97,72.86,0
68,69.93,72.81,0
68,69.89,72.76,0
69,69.87,72.72,0
68,69.83,72.67,0
66,69.76,72.61,0
68,69.72,72.56,0
67,69.67,72.51,0
68,69.63,72.46,0
68,69.60,72.42,0
67,69.55,72.36,0
67,69.50,72.31,0
68,69.47,72.27,0
67,69.42,72.21,0
67,69.37,72.16,0
67,69.32,72.11,0
68,69.30,72.07,0
66,69.23,72.01,0
67,69.19,71.96,0
67,69.14,71.91,0
66,69.08,71.85,0
66,69.02,71.79,0
66,68.96,71.73,0
65,68.88,71.66,0
66,68.82,71.61,0
66,68.76,71.55,0
65,68.69,71.49,0
66,68.63,71.43,0
66,68.58,71.38,0
66,68.53,71.32,0
66,68.48,71.27,0
68,68.47,71.24,0
66,68.42,71.19,0
66,68.37,71.13,0
68,68.37,71.10,0
66,68.32,71.05,0
66,68.27,71.00,0
70,68.31,70.99,0
66,68.26,70.94,0
66,68.21,70.89,0
66,68.17,70.84,0
66,68.13,70.79,0
65,68.06,70.74,0
66,68.02,70.69,0
66,67.98,70.64,0
63,67.88,70.57,0
66,67.85,70.52,0
66,67.81,70.47,0
65,67.75,70.42,0
66,67.72,70.38,0
65,67.66,70.32,0
66,67.63,70.28,0
66,67.60,70.24,0
64,67.53,70.17,0
66,67.49,70.13,0
65,67.44,70.08,0
65,67.40,70.03,0
64,67.33,69.97,0
66,67.30,69.93,0
65,67.26,69.88,0
64,67.19,69.82,0
64,67.13,69.76,0
66,67.10,69.73,0
64,67.04,69.67,0
66,67.02,69.63,0
64,66.96,69.58,0
64,66.90,69.52,0
64,66.84,69.46,0
64,66.79,69.41,0
66,66.77,69.38,0
65,66.74,69.33,0
64,66.68,69.28,0
66,66.67,69.25,0
64,66.61,69.19,0
65,66.58,69.15,0
66,66.57,69.12,0
64,66.52,69.07,0
64,66.47,69.02,0
64,66.42,68.97,0
64,66.37,68.92,0
62,66.28,68.85,0
64,66.24,68.80,0
64,66.19,68.75,0
64,66.15,68.71,0
66,66.15,68.68,0
64,66.10,68.63,0
63,66.04,68.57,0
64,66.00,68.53,0
64,65.96,68.48,0
64,65.92,68.44,0
63,65.86,68.38,0
64,65.83,68.34,0
64,65.79,68.30,0
64,65.75,68.25,0
63,65.70,68.20,0
63,65.64,68.15,0
64,65.61,68.11,0
64,65.58,68.07,0
62,65.51,68.01,0
63,65.46,67.96,0
63,65.41,67.91,0
62,65.34,67.85,0
62,65.27,67.79,0
62,65.21,67.73,0
61,65.12,67.66,0
62,65.06,67.61,0
63,65.02,67.56,0
63,64.98,67.52,0
62,64.92,67.46,0
62,64.86,67.41,0
62,64.80,67.35,0
63,64.77,67.31,0
62,64.71,67.26,0
62,64.66,67.20,0
62,64.61,67.15,0
62,64.55,67.10,0
62,64.50,67.05,0
61,64.43,66.99,0
62,64.38,66.94,0
61,64.32,66.88,0
62,64.27,66.83,0
61,64.20,66.77,0
60,64.12,66.70,0
61,64.06,66.65,0
61,64.00,66.59,0
60,63.92,66.52,0
61,63.86,66.47,0
61,63.80,66.41,0
60,63.72,66.35,0
60,63.65,66.29,0
61,63.60,66.23,0
60,63.53,66.17,0
60,63.45,66.11,0
60,63.39,66.05,0
60,63.32,65.99,0
61,63.27,65.94,0
59,63.19,65.87,0
60,63.12,65.81,0
60,63.06,65.75,0
60,63.00,65.69,0
59,62.92,65.63,0
60,62.86,65.57,0
60,62.80,65.52,0
60,62.75,65.46,0
60,62.69,65.41,0
60,62.64,65.35,0
62,62.63,65.32,0
60,62.57,65.27,0
60,62.52,65.21,0
60,62.47,65.16,0
61,62.44,65.12,0
59,62.37,65.06,0
64,62.41,65.05,0
58,62.32,64.98,0
60,62.27,64.93,0
59,62.21,64.87,0
58,62.12,64.80,0
58,62.04,64.73,0
60,62.00,64.68,0
59,61.94,64.63,0
59,61.88,64.57,0
60,61.84,64.52,0
59,61.79,64.47,0
59,61.73,64.41,0
60,61.69,64.37,0
60,61.66,64.33,0
60,61.63,64.28,0
59,61.58,64.23,0
55,61.44,64.14,0
60,61.41,64.10,0
59,61.37,64.05,0
60,61.34,64.01,0
58,61.27,63.95,0
60,61.25,63.91,0
59,61.20,63.86,0
58,61.14,63.80,0
60,61.12,63.76,0
60,61.09,63.72,0
59,61.05,63.68,0
59,61.01,63.63,0
58,60.95,63.57,0
58,60.89,63.52,0
60,60.87,63.48,0
58,60.82,63.43,0
60,60.80,63.39,0
60,60.78,63.36,0
58,60.73,63.31,0
58,60.67,63.25,0
60,60.66,63.22,0
58,60.61,63.17,0
59,60.57,63.13,0
58,60.52,63.07,0
60,60.51,63.04,0
60,60.50,63.01,0
59,60.47,62.97,0
58,60.42,62.92,0
60,60.41,62.89,0
59,60.39,62.86,0
58,60.34,62.81,0
58,60.29,62.76,0
60,60.29,62.73,0
59,60.26,62.69,0
59,60.23,62.66,0
61,60.25,62.64,0
60,60.25,62.61,0
58,60.20,62.57,0
58,60.16,62.52,0
57,60.09,62.47,0
58,60.05,62.42,0
58,60.01,62.38,0
58,59.97,62.33,0
60,59.97,62.31,0
58,59.93,62.27,0
58,59.89,62.23,0
57,59.83,62.17,0
57,59.78,62.12,0
58,59.74,62.08,0
58,59.71,62.04,0
60,59.71,62.02,0
58,59.68,61.98,0
58,59.65,61.94,0
58,59.61,61.90,0
57,59.56,61.85,0
59,59.55,61.82,0
58,59.52,61.78,0
58,59.49,61.75,0
58,59.46,61.71,0
58,59.43,61.67,0
58,59.40,61.63,0
58,59.37,61.60,0
58,59.34,61.56,0
59,59.34,61.54,0
57,59.29,61.49,0
58,59.27,61.46,0
58,59.24,61.42,0
58,59.22,61.39,0
58,59.19,61.35,0
58,59.17,61.32,0
57,59.12,61.28,0
58,59.10,61.24,0
58,59.08,61.21,0
58,59.06,61.18,0
58,59.04,61.15,0
58,59.02,61.12,0
58,59.00,61.09,0
56,58.94,61.03,0
58,58.92,61.00,0
57,58.88,60.96,0
56,58.82,60.91,0
58,58.80,60.89,0
56,58.75,60.84,0
58,58.73,60.81,0
56,58.68,60.76,0
56,58.63,60.71,0
57,58.59,60.68,0
56,58.54,60.63,0
56,58.49,60.58,0
56,58.44,60.54,0
57,58.41,60.50,0
56,58.36,60.46,0
58,58.36,60.43,0
57,58.33,60.40,0
57,58.30,60.36,0
56,58.26,60.32,0
56,58.21,60.28,0
56,58.17,60.23,0
56,58.12,60.19,0
58,58.12,60.17,0
56,58.08,60.13,0
56,58.04,60.09,0
56,58.00,60.05,0
56,57.96,60.01,0
58,57.96,59.98,0
56,57.92,59.95,0
56,57.88,59.91,0
56,57.84,59.87,0
56,57.81,59.83,0
56,57.77,59.79,0
58,57.77,59.77,0
56,57.74,59.73,0
56,57.70,59.70,0
56,57.67,59.66,0
56,57.64,59.62,0
55,57.58,59.58,0
56,57.55,59.54,0
56,57.52,59.51,0
56,57.49,59.47,0
56,57.46,59.44,0
56,57.43,59.40,0
55,57.38,59.36,0
55,57.34,59.31,0
54,57.27,59.26,0
55,57.22,59.22,0
55,57.18,59.18,0
55,57.13,59.13,0
55,57.09,59.09,0
56,57.07,59.06,0
54,57.01,59.01,0
55,56.97,58.97,0
58,56.99,58.96,0
56,56.97,58.93,0
56,56.95,58.90,0
55,56.91,58.86,0
58,56.93,58.86,0
56,56.91,58.83,0
55,56.88,58.79,0
55,56.84,58.75,0
55,56.80,58.71,0
55,56.77,58.68,0
54,56.71,58.63,0
55,56.68,58.59,0
55,56.64,58.56,0
54,56.59,58.51,0
54,56.54,58.47,0
55,56.51,58.43,0
53,56.44,58.38,0
55,56.41,58.34,0
54,56.36,58.30,0
55,56.33,58.27,0
53,56.27,58.21,0
54,56.22,58.17,0
54,56.18,58.13,0
54,56.13,58.09,0
54,56.09,58.05,0
54,56.05,58.01,0
54,56.01,57.97,0
53,55.95,57.92,0
57,55.97,57.91,0
54,55.93,57.87,0
54,55.89,57.83,0
53,55.83,57.78,0
54,55.80,57.74,0
54,55.76,57.71,0
54,55.73,57.67,0
54,55.69,57.63,0
54,55.66,57.60,0
54,55.62,57.56,0
54,55.59,57.53,0
55,55.58,57.50,0
54,55.55,57.47,0
54,55.52,57.43,0
54,55.49,57.40,0
54,55.46,57.36,0
54,55.43,57.33,0
55,55.42,57.31,0
54,55.39,57.27,0
53,55.34,57.23,0
54,55.32,57.20,0
54,55.29,57.17,0
54,55.26,57.13,0
54,55.24,57.10,0
54,55.21,57.07,0
54,55.19,57.04,0
54,55.17,57.01,0
54,55.14,56.98,0
54,55.12,56.95,0
54,55.10,56.92,0
54,55.08,56.89,0
54,55.05,56.86,0
53,55.01,56.82,0
54,54.99,56.80,0
54,54.97,56.77,0
56,54.99,56.76,0
54,54.97,56.73,0
54,54.95,56.71,0
54,54.93,56.68,0
55,54.94,56.66,0
54,54.92,56.64,0
54,54.90,56.61,0
54,54.88,56.58,0
54,54.86,56.56,0
54,54.85,56.53,0
54,54.83,56.51,0
54,54.81,56.48,0
55,54.82,56.47,0
54,54.80,56.44,0
54,54.78,56.42,0
54,54.77,56.39,0
53,54.73,56.36,0
54,54.72,56.34,0
56,54.74,56.33,0
54,54.73,56.31,0
54,54.71,56.29,0
52,54.66,56.24,0
53,54.63,56.21,0
52,54.57,56.17,0
53,54.54,56.14,0
52,54.49,56.10,0
53,54.46,56.06,0
54,54.45,56.04,0
54,54.44,56.02,0
55,54.46,56.01,0
53,54.43,55.98,0
53,54.40,55.95,0
52,54.35,55.91,0
52,54.30,55.87,0
53,54.28,55.85,0
53,54.25,55.82,0
53,54.23,55.79,0
54,54.22,55.77,0
52,54.18,55.73,0
52,54.13,55.70,0
52,54.09,55.66,0
52,54.05,55.62,0
52,54.01,55.59,0
52,53.97,55.55,0
53,53.95,55.52,0
53,53.93,55.50,0
54,53.93,55.48,0
53,53.91,55.46,0
54,53.91,55.45,0
53,53.90,55.42,0
53,53.88,55.40,0
53,53.86,55.37,0
55,53.88,55.37,0
53,53.87,55.35,0
53,53.85,55.32,0
55,53.87,55.32,0
56,53.91,55.33,0
53,53.90,55.30,0
54,53.90,55.29,0
54,53.90,55.28,0
54,53.90,55.26,0
54,53.90,55.25,0
54,53.91,55.24,0
54,53.91,55.23,0
54,53.91,55.21,0
54,53.91,55.20,0
54,53.91,55.19,0
55,53.93,55.19,0
54,53.94,55.18,0
56,53.98,55.18,0
54,53.98,55.17,0
54,53.98,55.16,0
53,53.96,55.14,0
56,54.00,55.15,0
54,54.00,55.14,0
54,54.00,55.12,0
55,54.02,55.12,0
54,54.02,55.11,0
54,54.02,55.10,0
54,54.02,55.09,0
55,54.04,55.09,0
54,54.04,55.08,0
54,54.04,55.07,0
54,54.04,55.06,0
55,54.05,55.06,0
53,54.03,55.04,0
54,54.03,55.03,0
54,54.03,55.01,0
54,54.03,55.00,0
55,54.05,55.00,0
54,54.05,54.99,0
54,54.05,54.98,0
54,54.05,54.97,0
54,54.05,54.97,0
54,54.05,54.96,0
54,54.05,54.95,0
53,54.02,54.93,0
54,54.02,54.92,0
54,54.02,54.91,0
54,54.02,54.90,0
54,54.02,54.89,0
54,54.02,54.88,0
54,54.02,54.87,0
54,54.02,54.86,0
54,54.02,54.85,0
54,54.02,54.85,0
54,54.02,54.84,0
54,54.02,54.83,0
53,54.00,54.81,0
54,54.00,54.80,0
54,54.00,54.80,0
56,54.04,54.81,0
54,54.04,54.80,0
56,54.08,54.81,0
54,54.08,54.80,0
54,54.07,54.79,0
55,54.09,54.80,0
56,54.13,54.81,0
58,54.21,54.84,0
54,54.20,54.83,0
56,54.24,54.84,0
54,54.24,54.84,0
56,54.27,54.85,0
54,54.27,54.84,0
57,54.32,54.86,0
56,54.35,54.87,0
56,54.39,54.88,0
56,54.42,54.89,0
55,54.43,54.90,0
55,54.44,54.90,0
57,54.49,54.92,0
55,54.50,54.92,0
56,54.53,54.93,0
55,54.54,54.93,0
57,54.59,54.95,0
59,54.68,54.99,0
56,54.71,55.00,0
55,54.71,55.00,0
57,54.76,55.02,0
55,54.76,55.02,0
55,54.77,55.02,0
58,54.83,55.05,0
58,54.90,55.08,0
58,54.96,55.11,0
57,55.00,55.13,0
57,55.04,55.15,0
57,55.08,55.17,0
58,55.14,55.19,0
59,55.21,55.23,0
57,55.25,55.25,0
58,55.30,55.28,0
55,55.30,55.27,0
57,55.33,55.29,0
57,55.37,55.31,0
57,55.40,55.33,0
57,55.43,55.34,0
59,55.50,55.38,0
57,55.53,55.40,0
57,55.56,55.41,0
56,55.57,55.42,0
57,55.60,55.43,0
57,55.63,55.45,0
56,55.63,55.45,0
56,55.64,55.46,0
57,55.67,55.47,0
58,55.71,55.50,0
57,55.74,55.52,0
58,55.79,55.54,0
57,55.81,55.55,0
57,55.83,55.57,0
56,55.84,55.57,0
56,55.84,55.58,0
56,55.84,55.58,0
57,55.87,55.60,0
57,55.89,55.61,0
58,55.93,55.63,0
57,55.95,55.65,0
58,55.99,55.67,0
60,56.07,55.71,0
58,56.11,55.74,0
59,56.17,55.77,0
60,56.25,55.81,0
59,56.30,55.84,0
58,56.34,55.87,0
58,56.37,55.89,0
60,56.44,55.93,0
58,56.47,55.95,0
58,56.50,55.97,0
58,56.53,55.99,0
60,56.60,56.03,0
58,56.63,56.05,0
58,56.66,56.07,0
58,56.69,56.09,0
59,56.73,56.12,0
59,56.78,56.15,0
58,56.80,56.16,0
60,56.87,56.20,0
59,56.91,56.23,0
60,56.97,56.27,0
62,57.07,56.33,0
60,57.13,56.36,0
60,57.19,56.40,0
60,57.24,56.44,0
60,57.30,56.47,0
60,57.35,56.51,0
60,57.40,56.54,0
58,57.42,56.56,0
60,57.47,56.59,0
59,57.50,56.61,0
59,57.53,56.64,0
58,57.54,56.65,0
60,57.59,56.69,0
60,57.64,56.72,0
60,57.68,56.75,0
60,57.73,56.78,0
60,57.77,56.82,0
60,57.82,56.85,0
60,57.86,56.88,0
60,57.91,56.91,0
60,57.95,56.94,0
59,57.97,56.96,0
61,58.03,57.00,0
60,58.07,57.03,0
62,58.15,57.08,0
59,58.16,57.10,0
60,58.20,57.13,0
60,58.24,57.16,0
60,58.27,57.19,0
61,58.33,57.23,0
61,58.38,57.26,0
61,58.43,57.30,0
63,58.52,57.36,0
62,58.59,57.40,0
64,58.70,57.47,0
61,58.75,57.51,0
61,58.79,57.54,0
63,58.88,57.59,0
64,58.98,57.66,0
64,59.08,57.72,0
63,59.16,57.77,0
66,59.30,57.86,0
64,59.39,57.92,0
64,59.48,57.98,0
64,59.57,58.04,0
63,59.64,58.09,0
64,59.73,58.15,0
64,59.81,58.21,0
64,59.90,58.26,0
64,59.98,58.32,0
68,60.14,58.42,0
68,60.30,58.51,0
68,60.45,58.61,0
69,60.62,58.71,0
67,60.75,58.80,0
67,60.87,58.88,0
66,60.98,58.95,0
66,61.08,59.02,0
68,61.22,59.11,0
63,61.25,59.15,0
66,61.35,59.22,0
66,61.44,59.29,0
68,61.57,59.37,0
70,61.74,59.48,0
70,61.90,59.58,0
70,62.07,59.69,0
69,62.20,59.78,0
71,62.38,59.89,0
70,62.53,59.99,0
72,62.72,60.11,0
74,62.95,60.25,0
70,63.09,60.35,0
70,63.23,60.45,0
72,63.40,60.56,0
72,63.57,60.68,0
73,63.76,60.80,0
72,63.93,60.91,0
73,64.11,61.03,0
72,64.27,61.14,0
74,64.46,61.27,0
72,64.61,61.38,0
73,64.78,61.49,0
75,64.98,61.63,0
78,65.25,61.79,0
74,65.42,61.92,0
78,65.67,62.08,0
77,65.90,62.23,0
76,66.10,62.36,0
78,66.34,62.52,0
76,66.53,62.65,0
76,66.72,62.79,0
76,66.91,62.92,0
76,67.09,63.05,0
76,67.27,63.18,0
77,67.46,63.32,0
78,67.67,63.47,0
78,67.88,63.61,0
78,68.08,63.75,0
78,68.28,63.90,0
78,68.47,64.04,0
78,68.66,64.18,0
78,68.85,64.32,0
79,69.05,64.46,0
78,69.23,64.60,0
78,69.41,64.73,0
77,69.56,64.86,0
78,69.73,64.99,0
78,69.89,65.12,0
78,70.06,65.25,0
78,70.22,65.37,0
79,70.39,65.51,0
80,70.58,65.65,0
82,70.81,65.82,0
82,71.04,65.98,0
82,71.25,66.14,0
84,71.51,66.32,0
82,71.72,66.48,0
85,71.98,66.66,0
85,72.25,66.84,0
84,72.48,67.02,0
84,72.71,67.19,0
84,72.94,67.35,0
82,73.12,67.50,0
85,73.36,67.67,0
84,73.57,67.84,0
83,73.76,67.99,0
82,73.92,68.13,0
83,74.10,68.28,0
84,74.30,68.44,0
85,74.52,68.60,0
84,74.71,68.76,0
84,74.89,68.91,0
84,75.07,69.06,0
85,75.27,69.22,0
86,75.49,69.39,0
86,75.70,69.55,0
86,75.90,69.72,0
86,76.10,69.88,0
90,76.38,70.08,0
87,76.59,70.25,0
87,76.80,70.42,0
86,76.99,70.57,0
88,77.21,70.75,0
88,77.42,70.92,0
89,77.65,71.10,0
91,77.92,71.30,0
89,78.14,71.48,0
89,78.36,71.65,0
88,78.55,71.82,0
87,78.72,71.97,0
88,78.91,72.13,0
90,79.13,72.31,0
89,79.33,72.47,0
92,79.58,72.67,0
89,79.77,72.83,0
90,79.97,73.00,0
90,80.17,73.17,0
90,80.37,73.34,0
89,80.54,73.50,0
90,80.73,73.66,0
91,80.94,73.84,0
93,81.18,74.03,0
92,81.40,74.21,0
92,81.61,74.39,0
91,81.80,74.55,0
92,82.00,74.73,0
94,82.24,74.92,0
94,82.47,75.11,0
94,82.70,75.30,0
94,82.93,75.49,0
93,83.13,75.66,0
95,83.37,75.85,0
94,83.58,76.04,0
95,83.81,76.23,0
98,84.09,76.44,0
96,84.33,76.64,0
94,84.53,76.81,0
96,84.76,77.00,0
98,85.02,77.21,0
94,85.20,77.38,0
94,85.38,77.55,0
96,85.59,77.73,0
93,85.74,77.89,0
95,85.92,78.06,0
96,86.12,78.24,0
97,86.34,78.42,0
97,86.55,78.61,0
96,86.74,78.78,0
96,86.93,78.96,0
95,87.09,79.12,0
96,87.27,79.28,0
96,87.44,79.45,0
96,87.61,79.62,0
95,87.76,79.77,0
97,87.95,79.94,0
96,88.11,80.10,0
96,88.26,80.26,0
95,88.40,80.41,0
98,88.59,80.59,0
98,88.78,80.76,0
96,88.92,80.91,0
98,89.11,81.08,0
98,89.28,81.25,0
98,89.46,81.42,0
97,89.61,81.58,0
97,89.76,81.73,0
99,89.94,81.90,0
100,90.14,82.08,0
99,90.32,82.25,0
98,90.47,82.41,0
99,90.64,82.58,0
98,90.79,82.73,0
98,90.94,82.88,0
98,91.08,83.03,0
100,91.26,83.20,0
98,91.39,83.35,0
100,91.56,83.52,0
102,91.77,83.70,0
101,91.96,83.88,0
100,92.12,84.04,0
99,92.25,84.19,0
100,92.41,84.35,0
100,92.56,84.50,0
102,92.75,84.68,0
104,92.97,84.87,0
101,93.14,85.03,0
101,93.29,85.19,0
102,93.47,85.36,0
103,93.66,85.54,0
104,93.86,85.72,0
102,94.03,85.88,0
101,94.17,86.03,0
104,94.36,86.21,0
103,94.54,86.38,0
102,94.68,86.54,0
103,94.85,86.70,0
102,94.99,86.86,0
103,95.15,87.02,0
103,95.31,87.18,0
102,95.45,87.33,0
102,95.58,87.47,0
101,95.68,87.61,0
100,95.77,87.73,0
102,95.90,87.87,0
102,96.02,88.02,0
103,96.16,88.17,0
103,96.29,88.31,0
101,96.39,88.44,0
105,96.56,88.61,0
104,96.71,88.76,0
103,96.84,88.90,0
103,96.96,89.04,0
102,97.06,89.17,0
103,97.18,89.31,0
103,97.29,89.45,0
104,97.43,89.59,0
105,97.58,89.75,0
104,97.71,89.89,0
103,97.81,90.02,0
102,97.90,90.14,0
102,97.98,90.26,0
101,98.04,90.37,0
101,98.10,90.47,0
103,98.20,90.60,0
103,98.29,90.72,0
102,98.37,90.84,0
103,98.46,90.96,0
103,98.55,91.08,0
103,98.64,91.20,0
103,98.73,91.31,0
103,98.81,91.43,0
101,98.86,91.53,0
102,98.92,91.63,0
103,99.00,91.75,0
104,99.10,91.87,0
103,99.18,91.98,0
103,99.26,92.09,0
103,99.33,92.20,0
104,99.42,92.32,0
103,99.50,92.42,0
101,99.53,92.51,0
102,99.57,92.60,0
103,99.64,92.71,0
103,99.71,92.81,0
104,99.80,92.92,0
101,99.82,93.00,0
101,99.84,93.08,0
103,99.91,93.18,0
101,99.93,93.26,0
103,99.99,93.36,0
102,100.03,93.44,0
102,100.07,93.53,0
102,100.11,93.62,0
101,100.13,93.69,0
101,100.14,93.76,0
102,100.18,93.84,0
102,100.22,93.93,0
102,100.25,94.01,0
101,100.27,94.08,0
101,100.28,94.15,0
101,100.30,94.21,0
101,100.31,94.28,0
102,100.34,94.36,0
101,100.36,94.43,0
100,100.35,94.48,0
100,100.34,94.54,0
100,100.34,94.59,0
99,100.31,94.64,0
101,100.32,94.70,0
101,100.34,94.76,0
99,100.31,94.80,0
101,100.32,94.87,0
100,100.32,94.92,0
100,100.31,94.97,0
100,100.31,95.02,0
99,100.28,95.06,0
101,100.29,95.12,0
100,100.29,95.17,0
100,100.28,95.22,0
100,100.28,95.26,0
99,100.25,95.30,0
100,100.25,95.35,0
100,100.24,95.39,0
101,100.26,95.45,0
100,100.25,95.50,0
99,100.23,95.53,0
100,100.22,95.58,0
100,100.22,95.62,0
100,100.21,95.66,0
100,100.21,95.71,0
99,100.18,95.74,0
100,100.18,95.78,0
101,100.20,95.83,0
100,100.19,95.88,0
100,100.19,95.92,0
100,100.19,95.96,0
100,100.18,96.00,0
99,100.16,96.03,0
97,100.09,96.04,0
99,100.07,96.07,0
99,100.05,96.10,0
100,100.05,96.14,0
99,100.03,96.17,0
98,99.99,96.18,0
98,99.95,96.20,0
98,99.91,96.22,0
98,99.87,96.24,0
98,99.83,96.25,0
98,99.80,96.27,0
98,99.76,96.29,0
97,99.71,96.30,0
96,99.63,96.29,0
97,99.58,96.30,0
96,99.51,96.30,0
96,99.44,96.29,0
96,99.37,96.29,0
98,99.34,96.31,0
96,99.28,96.31,0
96,99.21,96.30,0
96,99.15,96.30,0
95,99.06,96.29,0
96,99.00,96.28,0
96,98.94,96.28,0
96,98.88,96.28,0
95,98.80,96.27,0
95,98.73,96.25,0
96,98.67,96.25,0
96,98.62,96.25,0
94,98.53,96.23,0
95,98.46,96.21,0
94,98.37,96.19,0
94,98.28,96.17,0
95,98.22,96.16,0
95,98.15,96.15,0
94,98.07,96.12,0
96,98.03,96.12,0
94,97.95,96.10,0
94,97.87,96.08,0
94,97.79,96.06,0
94,97.71,96.04,0
95,97.66,96.03,0
94,97.59,96.01,0
96,97.55,96.01,0
94,97.48,95.99,0
94,97.41,95.97,0
94,97.35,95.95,0
94,97.28,95.93,0
94,97.21,95.91,0
93,97.13,95.88,0
92,97.03,95.84,0
96,97.01,95.84,0
94,96.95,95.83,0
93,96.87,95.80,0
92,96.77,95.76,0
93,96.69,95.73,0
92,96.60,95.69,0
92,96.51,95.66,0
92,96.42,95.62,0
92,96.33,95.58,0
92,96.24,95.55,0
92,96.16,95.51,0
92,96.08,95.48,0
93,96.01,95.45,0
92,95.93,95.42,0
92,95.85,95.38,0
96,95.86,95.39,0
92,95.78,95.36,0
92,95.70,95.32,0
92,95.63,95.29,0
92,95.56,95.26,0
92,95.49,95.22,0
92,95.42,95.19,0
91,95.33,95.15,0
92,95.26,95.12,0
92,95.20,95.09,0
90,95.09,95.04,0
91,95.01,95.00,0
91,94.93,94.96,0
90,94.83,94.91,0
90,94.74,94.86,0
90,94.64,94.81,0
91,94.57,94.77,0
92,94.52,94.74,0
90,94.43,94.70,0
90,94.34,94.65,0
90,94.25,94.60,0
90,94.17,94.56,0
90,94.08,94.51,0
90,94.00,94.47,0
89,93.90,94.41,0
89,93.80,94.36,0
88,93.69,94.29,0
90,93.61,94.25,0
89,93.52,94.20,0
89,93.43,94.15,0
89,93.34,94.09,0
88,93.24,94.03,0
89,93.15,93.98,0
88,93.05,93.92,0
88,92.95,93.86,0
87,92.83,93.80,0
88,92.73,93.74,0
88,92.64,93.68,0
88,92.54,93.62,0
87,92.43,93.56,0
89,92.36,93.51,0
88,92.28,93.46,0
88,92.19,93.40,0
88,92.11,93.35,0
88,92.03,93.29,0
87,91.92,93.23,0
87,91.83,93.17,0
86,91.71,93.10,0
88,91.64,93.05,0
86,91.52,92.98,0
86,91.41,92.91,0
86,91.30,92.84,0
86,91.20,92.77,0
86,91.09,92.70,0
86,90.99,92.63,0
86,90.89,92.57,0
86,90.79,92.50,0
86,90.70,92.44,0
86,90.60,92.37,0
86,90.51,92.31,0
86,90.42,92.25,0
86,90.33,92.18,0
86,90.25,92.12,0
86,90.16,92.06,0
85,90.06,91.99,0
86,89.98,91.93,0
86,89.90,91.87,0
86,89.82,91.81,0
85,89.72,91.74,0
86,89.65,91.69,0
84,89.54,91.61,0
85,89.45,91.54,0
84,89.34,91.47,0
84,89.23,91.39,0
84,89.13,91.32,0
85,89.04,91.26,0
84,88.94,91.18,0
84,88.84,91.11,0
84,88.75,91.04,0
83,88.63,90.96,0
84,88.54,90.89,0
84,88.45,90.82,0
84,88.36,90.75,0
85,88.29,90.70,0
84,88.21,90.63,0
84,88.12,90.56,0
84,88.04,90.50,0
84,87.96,90.43,0
84,87.88,90.37,0
83,87.78,90.29,0
83,87.69,90.22,0
83,87.59,90.15,0
86,87.56,90.11,0
84,87.49,90.05,0
83,87.40,89.98,0
83,87.31,89.91,0
82,87.21,89.83,0
84,87.14,89.77,0
82,87.04,89.69,0
83,86.96,89.62,0
82,86.86,89.55,0
82,86.76,89.47,0
82,86.67,89.40,0
82,86.57,89.32,0
81,86.46,89.24,0
82,86.37,89.17,0
82,86.28,89.10,0
82,86.20,89.03,0
81,86.10,88.95,0
82,86.01,88.88,0
82,85.93,88.81,0
84,85.89,88.76,0
81,85.80,88.68,0
82,85.72,88.61,0
82,85.65,88.55,0
84,85.61,88.50,0
81,85.52,88.43,0
82,85.45,88.36,0
81,85.36,88.29,0
82,85.29,88.23,0
83,85.25,88.17,0
82,85.18,88.11,0
82,85.12,88.05,0
82,85.06,87.99,0
81,84.98,87.92,0
82,84.92,87.86,0
82,84.86,87.80,0
82,84.80,87.75,0
82,84.75,87.69,0
81,84.67,87.62,0
82,84.62,87.57,0
81,84.54,87.50,0
81,84.47,87.43,0
80,84.38,87.36,0
80,84.30,87.29,0
81,84.23,87.22,0
81,84.17,87.16,0
81,84.10,87.10,0
80,84.02,87.03,0
80,83.94,86.96,0
80,83.86,86.89,0
80,83.78,86.82,0
84,83.79,86.79,0
82,83.75,86.74,0
80,83.68,86.68,0
80,83.60,86.61,0
80,83.53,86.54,0
80,83.46,86.48,0
80,83.39,86.41,0
80,83.32,86.35,0
79,83.24,86.28,0
79,83.15,86.20,0
80,83.09,86.14,0
78,82.99,86.06,0
78,82.89,85.98,0
79,82.81,85.91,0
80,82.75,85.85,0
78,82.66,85.77,0
76,82.53,85.67,0
79,82.46,85.61,0
79,82.39,85.54,0
79,82.32,85.48,0
78,82.23,85.40,0
79,82.17,85.34,0
81,82.14,85.29,0
80,82.10,85.24,0
78,82.02,85.17,0
79,81.96,85.11,0
78,81.88,85.04,0
78,81.80,84.97,0
78,81.73,84.90,0
79,81.67,84.84,0
79,81.62,84.78,0
78,81.55,84.71,0
78,81.48,84.64,0
78,81.41,84.58,0
78,81.34,84.51,0
78,81.27,84.45,0
78,81.21,84.38,0
78,81.14,84.32,0
76,81.04,84.23,0
77,80.96,84.16,0
78,80.90,84.10,0
78,80.84,84.04,0
76,80.74,83.96,0
76,80.65,83.88,0
76,80.56,83.80,0
78,80.50,83.74,0
76,80.41,83.67,0
77,80.35,83.60,0
76,80.26,83.52,0
77,80.19,83.46,0
78,80.15,83.40,0
76,80.07,83.33,0
76,79.99,83.26,0
76,79.91,83.18,0
76,79.83,83.11,0
76,79.75,83.04,0
76,79.68,82.97,0
76,79.60,82.90,0
76,79.53,82.83,0
75,79.44,82.75,0
76,79.37,82.69,0
75,79.28,82.61,0
77,79.24,82.55,0
76,79.17,82.49,0
76,79.11,82.42,0
76,79.05,82.36,0
75,78.97,82.28,0
76,78.91,82.22,0
75,78.83,82.15,0
75,78.75,82.08,0
75,78.68,82.01,0
76,78.62,81.95,0
74,78.53,81.87,0
76,78.48,81.81,0
76,78.43,81.75,0
74,78.34,81.67,0
74,78.26,81.60,0
76,78.21,81.54,0
75,78.15,81.47,0
74,78.06,81.40,0
74,77.98,81.33,0
74,77.90,81.25,0
74,77.82,81.18,0
74,77.75,81.11,0
74,77.67,81.04,0
74,77.60,80.97,0
73,77.51,80.89,0
74,77.44,80.82,0
74,77.37,80.75,0
74,77.30,80.68,0
73,77.22,80.61,0
74,77.15,80.54,0
72,77.05,80.45,0
74,76.99,80.39,0
73,76.91,80.32,0
73,76.83,80.24,0
72,76.73,80.16,0
72,76.64,80.08,0
73,76.57,80.01,0
72,76.47,79.93,0
72,76.38,79.85,0
74,76.34,79.79,0
72,76.25,79.71,0
72,76.17,79.64,0
72,76.08,79.56,0
72,76.00,79.48,0
72,75.92,79.41,0
72,75.84,79.33,0
73,75.79,79.27,0
73,75.73,79.21,0
73,75.67,79.15,0
72,75.60,79.07,0
70,75.49,78.98,0
72,75.42,78.91,0
71,75.33,78.84,0
74,75.30,78.79,0
70,75.20,78.70,0
71,75.11,78.62,0
70,75.01,78.54,0
70,74.91,78.45,0
72,74.85,78.39,0
71,74.78,78.31,0
70,74.68,78.23,0
70,74.59,78.15,0
71,74.52,78.08,0
70,74.43,77.99,0
71,74.36,77.92,0
70,74.27,77.85,0
70,74.18,77.77,0
70,74.10,77.69,0
70,74.02,77.61,0
66,73.86,77.50,0
70,73.78,77.42,0
70,73.71,77.35,0
70,73.63,77.27,0
70,73.56,77.20,0
70,73.49,77.13,0
69,73.40,77.05,0
68,73.29,76.96,0
70,73.22,76.89,0
70,73.16,76.82,0
69,73.08,76.74,0
71,73.03,76.68,0
68,72.93,76.60,0
68,72.84,76.51,0
69,72.76,76.43,0
68,72.66,76.35,0
68,72.57,76.27,0
68,72.48,76.18,0
68,72.39,76.10,0
68,72.30,76.02,0
68,72.22,75.94,0
68,72.13,75.86,0
67,72.03,75.77,0
68,71.95,75.70,0
68,71.87,75.62,0
67,71.77,75.53,0
67,71.68,75.45,0
67,71.58,75.36,0
68,71.51,75.29,0
67,71.42,75.21,0
67,71.33,75.12,0
69,71.29,75.06,0
68,71.22,74.99,0
66,71.12,74.90,0
67,71.03,74.82,0
68,70.97,74.76,0
68,70.91,74.69,0
66,70.81,74.60,0
67,70.74,74.52,0
65,70.62,74.43,0
66,70.53,74.35,0
66,70.44,74.26,0
66,70.35,74.18,0
66,70.26,74.10,0
66,70.18,74.02,0
66,70.10,73.94,0
66,70.01,73.86,0
65,69.91,73.77,0
66,69.84,73.69,0
66,69.76,73.61,0
65,69.66,73.53,0
66,69.59,73.45,0
66,69.52,73.38,0
66,69.45,73.30,0
65,69.36,73.22,0
66,69.29,73.15,0
64,69.19,73.06,0
66,69.12,72.99,0
66,69.06,72.92,0
66,69.00,72.85,0
66,68.94,72.78,0
66,68.88,72.71,0
65,68.80,72.63,0
65,68.73,72.56,0
65,68.65,72.48,0
64,68.56,72.40,0
65,68.49,72.32,0
65,68.42,72.25,0
64,68.33,72.17,0
64,68.24,72.09,0
65,68.18,72.02,0
65,68.11,71.95,0
64,68.03,71.87,0
64,67.95,71.79,0
66,67.91,71.73,0
64,67.83,71.65,0
64,67.76,71.58,0
64,67.68,71.50,0
64,67.61,71.42,0
64,67.54,71.35,0
64,67.47,71.28,0
66,67.44,71.22,0
64,67.37,71.15,0
64,67.30,71.08,0
64,67.23,71.01,0
64,67.17,70.94,0
64,67.11,70.87,0
64,67.04,70.80,0
64,66.98,70.73,0
64,66.92,70.67,0
64,66.87,70.60,0
64,66.81,70.53,0
62,66.71,70.45,0
64,66.66,70.38,0
64,66.60,70.32,0
64,66.55,70.26,0
62,66.46,70.17,0
64,66.41,70.11,0
63,66.34,70.04,0
66,66.34,70.00,0
62,66.25,69.92,0
62,66.17,69.84,0
64,66.12,69.78,0
62,66.04,69.71,0
62,65.96,69.63,0
62,65.88,69.55,0
63,65.82,69.49,0
62,65.75,69.41,0
62,65.67,69.34,0
62,65.60,69.26,0
63,65.55,69.20,0
62,65.47,69.13,0
61,65.38,69.05,0
62,65.32,68.98,0
63,65.27,68.92,0
59,65.15,68.82,0
64,65.12,68.77,0
61,65.04,68.69,0
61,64.96,68.62,0
62,64.90,68.55,0
61,64.82,68.47,0
61,64.75,68.40,0
61,64.67,68.33,0
62,64.62,68.26,0
62,64.56,68.20,0
62,64.51,68.14,0
62,64.46,68.08,0
61,64.39,68.01,0
62,64.35,67.95,0
61,64.28,67.88,0
61,64.21,67.81,0
64,64.21,67.77,0
62,64.17,67.71,0
61,64.10,67.64,0
61,64.04,67.58,0
61,63.98,67.51,0
62,63.94,67.46,0
61,63.88,67.39,0
61,63.82,67.33,0
63,63.81,67.29,0
61,63.75,67.22,0
60,63.68,67.15,0
62,63.64,67.10,0
61,63.59,67.04,0
62,63.56,66.99,0
60,63.49,66.92,0
61,63.44,66.86,0
63,63.43,66.82,0
60,63.36,66.75,0
60,63.29,66.68,0
61,63.25,66.63,0
61,63.20,66.57,0
60,63.14,66.51,0
60,63.07,66.44,0
60,63.01,66.38,0
60,62.95,66.31,0
59,62.87,66.24,0
59,62.80,66.17,0
60,62.74,66.10,0
60,62.69,66.04,0
60,62.63,65.98,0
58,62.54,65.90,0
60,62.49,65.84,0
61,62.46,65.80,0
60,62.41,65.74,0
59,62.34,65.67,0
61,62.31,65.62,0
60,62.27,65.57,0
59,62.20,65.50,0
60,62.16,65.45,0
60,62.12,65.39,0
59,62.05,65.33,0
58,61.97,65.26,0
58,61.89,65.18,0
59,61.83,65.12,0
59,61.78,65.06,0
58,61.70,64.99,0
58,61.63,64.92,0
58,61.56,64.85,0
59,61.50,64.79,0
58,61.43,64.72,0
58,61.37,64.66,0
59,61.32,64.60,0
58,61.25,64.53,0
58,61.19,64.47,0
58,61.12,64.40,0
58,61.06,64.34,0
58,61.00,64.28,0
58,60.94,64.21,0
58,60.88,64.15,0
57,60.80,64.08,0
58,60.75,64.02,0
58,60.69,63.96,0
60,60.68,63.92,0
58,60.63,63.86,0
58,60.57,63.80,0
58,60.52,63.74,0
58,60.47,63.69,0
58,60.42,63.63,0
58,60.37,63.57,0
56,60.29,63.50,0
58,60.24,63.44,0
57,60.17,63.38,0
58,60.13,63.32,0
58,60.09,63.27,0
58,60.05,63.22,0
60,60.05,63.19,0
58,60.01,63.13,0
60,60.01,63.10,0
58,59.96,63.05,0
58,59.93,63.00,0
58,59.89,62.95,0
59,59.87,62.91,0
57,59.81,62.85,0
63,59.88,62.85,0
60,59.88,62.83,0
57,59.82,62.77,0
58,59.78,62.72,0
58,59.75,62.67,0
60,59.75,62.65,0
56,59.68,62.58,0
57,59.62,62.52,0
55,59.53,62.45,0
57,59.48,62.39,0
58,59.45,62.35,0
60,59.46,62.33,0
57,59.41,62.27,0
60,59.43,62.25,0
57,59.38,62.20,0
56,59.31,62.14,0
55,59.22,62.06,0
57,59.18,62.01,0
56,59.12,61.95,0
56,59.05,61.89,0
56,58.99,61.84,0
57,58.95,61.79,0
57,58.91,61.74,0
57,58.87,61.69,0
58,58.86,61.65,0
56,58.80,61.60,0
56,58.74,61.54,0
56,58.69,61.49,0
56,58.64,61.43,0
56,58.58,61.38,0
56,58.53,61.32,0
56,58.48,61.27,0
56,58.43,61.22,0
57,58.40,61.18,0
56,58.35,61.12,0
56,58.31,61.07,0
56,58.26,61.02,0
56,58.22,60.97,0
56,58.17,60.92,0
56,58.13,60.87,0
56,58.09,60.82,0
57,58.06,60.79,0
56,58.02,60.74,0
56,57.98,60.69,0
55,57.92,60.63,0
56,57.88,60.59,0
55,57.83,60.53,0
54,57.75,60.47,0
56,57.71,60.42,0
56,57.68,60.38,0
55,57.63,60.32,0
55,57.57,60.27,0
56,57.54,60.23,0
56,57.51,60.19,0
55,57.46,60.13,0
54,57.39,60.07,0
56,57.36,60.03,0
56,57.34,59.99,0
56,57.31,59.95,0
56,57.28,59.91,0
56,57.26,59.87,0
56,57.23,59.83,0
56,57.21,59.80,0
56,57.18,59.76,0
58,57.20,59.74,0
56,57.18,59.70,0
56,57.15,59.67,0
56,57.13,59.63,0
57,57.13,59.60,0
57,57.13,59.58,0
56,57.10,59.54,0
56,57.08,59.51,0
56,57.06,59.47,0
56,57.04,59.44,0
56,57.02,59.40,0
56,57.00,59.37,0
56,56.98,59.33,0
55,56.94,59.29,0
54,56.88,59.24,0
56,56.86,59.21,0
56,56.84,59.17,0
55,56.81,59.13,0
56,56.79,59.10,0
54,56.73,59.05,0
55,56.70,59.01,0
54,56.65,58.96,0
56,56.63,58.93,0
54,56.58,58.88,0
55,56.55,58.84,0
54,56.50,58.79,0
54,56.45,58.74,0
55,56.42,58.71,0
55,56.39,58.67,0
54,56.34,58.62,0
54,56.30,58.58,0
54,56.25,58.53,0
55,56.23,58.50,0
54,56.18,58.45,0
56,56.18,58.43,0
54,56.13,58.38,0
55,56.11,58.35,0
56,56.11,58.32,0
54,56.07,58.28,0
54,56.03,58.24,0
54,55.98,58.20,0
55,55.96,58.16,0
56,55.97,58.14,0
55,55.95,58.11,0
55,55.93,58.08,0
54,55.89,58.04,0
56,55.89,58.02,0
55,55.87,57.99,0
55,55.86,57.96,0
57,55.88,57.95,0
56,55.88,57.93,0
58,55.92,57.93,0
55,55.90,57.90,0
57,55.93,57.89,0
54,55.89,57.85,0
54,55.85,57.81,0
55,55.83,57.79,0
54,55.80,57.75,0
55,55.78,57.72,0
54,55.75,57.68,0
54,55.71,57.65,0
53,55.66,57.60,0
54,55.62,57.56,0
54,55.59,57.53,0
55,55.58,57.50,0
53,55.53,57.46,0
53,55.48,57.41,0
50,55.37,57.34,0
54,55.34,57.31,0
54,55.31,57.27,0
54,55.29,57.24,0
54,55.26,57.21,0
53,55.22,57.17,0
54,55.19,57.13,0
54,55.17,57.10,0
53,55.12,57.06,0
54,55.10,57.03,0
55,55.10,57.01,0
53,55.06,56.97,0
52,55.00,56.92,0
53,54.96,56.88,0
53,54.92,56.84,0
54,54.90,56.82,0
52,54.84,56.77,0
53,54.80,56.73,0
54,54.79,56.70,0
52,54.73,56.65,0
54,54.72,56.63,0
53,54.68,56.59,0
54,54.67,56.57,0
52,54.62,56.52,0
52,54.56,56.48,0
53,54.53,56.44,0
52,54.48,56.40,0
53,54.45,56.36,0
52,54.40,56.32,0
52,54.36,56.28,0
54,54.35,56.25,0
52,54.30,56.21,0
52,54.26,56.17,0
54,54.25,56.15,0
52,54.21,56.10,0
52,54.16,56.06,0
52,54.12,56.02,0
52,54.08,55.98,0
51,54.01,55.93,0
52,53.97,55.89,0
52,53.93,55.85,0
53,53.92,55.83,0
52,53.88,55.79,0
52,53.84,55.75,0
52,53.80,55.71,0
52,53.77,55.68,0
52,53.73,55.64,0
52,53.70,55.60,0
53,53.68,55.58,0
53,53.67,55.55,0
51,53.62,55.51,0
52,53.58,55.47,0
52,53.55,55.44,0
52,53.52,55.40,0
53,53.51,55.38,0
54,53.52,55.36,0
53,53.51,55.34,0
51,53.46,55.30,0
50,53.39,55.24,0
53,53.38,55.22,0
52,53.36,55.19,0
51,53.31,55.15,0
52,53.28,55.12,0
54,53.30,55.10,0
52,53.27,55.07,0
51,53.22,55.03,0
52,53.20,55.00,0
50,53.14,54.95,0
52,53.11,54.92,0
51,53.07,54.88,0
52,53.05,54.85,0
50,52.99,54.81,0
51,52.95,54.77,0
51,52.91,54.73,0
50,52.85,54.68,0
51,52.81,54.65,0
51,52.78,54.61,0
51,52.74,54.57,0
50,52.69,54.53,0
50,52.63,54.48,0
50,52.58,54.44,0
51,52.55,54.40,0
53,52.56,54.39,0
50,52.51,54.35,0
50,52.46,54.30,0
50,52.41,54.26,0
51,52.38,54.23,0
52,52.37,54.20,0
50,52.33,54.16,0
50,52.28,54.12,0
51,52.25,54.09,0
50,52.21,54.05,0
50,52.16,54.01,0
52,52.16,53.99,0
49,52.10,53.94,0
50,52.06,53.90,0
50,52.01,53.86,0
52,52.01,53.84,0
49,51.95,53.79,0
52,51.95,53.77,0
50,51.92,53.74,0
52,51.92,53.72,0
50,51.88,53.68,0
50,51.84,53.65,0
50,51.80,53.61,0
50,51.77,53.57,0
50,51.73,53.54,0
50,51.70,53.50,0
50,51.66,53.47,0
49,51.61,53.42,0
50,51.58,53.39,0
50,51.55,53.35,0
50,51.52,53.32,0
50,51.49,53.29,0
50,51.46,53.25,0
49,51.41,53.21,0
50,51.38,53.18,0
50,51.35,53.15,0
50,51.32,53.12,0
50,51.30,53.09,0
50,51.27,53.05,0
50,51.25,53.02,0
50,51.22,52.99,0
50,51.20,52.96,0
50,51.17,52.93,0
50,51.15,52.90,0
50,51.13,52.88,0
50,51.10,52.85,0
50,51.08,52.82,0
49,51.04,52.78,0
49,51.00,52.74,0
48,50.94,52.70,0
50,50.92,52.67,0
49,50.88,52.63,0
49,50.84,52.60,0
50,50.83,52.57,0
50,50.81,52.54,0
50,50.80,52.52,0
50,50.78,52.49,0
50,50.76,52.47,0
50,50.75,52.44,0
50,50.73,52.42,0
51,50.74,52.40,0
50,50.72,52.38,0
49,50.69,52.35,0
50,50.68,52.32,0
50,50.66,52.30,0
50,50.65,52.28,0
47,50.58,52.22,0
50,50.56,52.20,0
49,50.53,52.17,0
50,50.52,52.15,0
50,50.51,52.13,0
49,50.48,52.10,0
49,50.45,52.06,0
48,50.40,52.02,0
50,50.40,52.00,0
49,50.37,51.97,0
49,50.34,51.94,0
50,50.33,51.92,0
50,50.33,51.91,0
47,50.26,51.86,0
48,50.21,51.82,0
49,50.19,51.79,0
48,50.15,51.75,0
49,50.12,51.72,0
49,50.10,51.70,0
50,50.10,51.68,0
48,50.06,51.64,0
47,50.00,51.60,0
50,50.00,51.58,0
49,49.98,51.55,0
50,49.98,51.54,0
47,49.92,51.49,0
49,49.90,51.47,0
50,49.90,51.45,0
49,49.88,51.43,0
49,49.87,51.41,0
50,49.87,51.39,0
48,49.83,51.36,0
48,49.79,51.32,0
49,49.78,51.30,0
48,49.74,51.27,0
48,49.71,51.24,0
48,49.67,51.20,0
50,49.68,51.19,0
48,49.65,51.16,0
48,49.61,51.13,0
48,49.58,51.10,0
47,49.53,51.05,0
48,49.50,51.02,0
49,49.49,51.00,0
48,49.46,50.97,0
48,49.43,50.94,0
48,49.40,50.91,0
49,49.39,50.90,0
48,49.37,50.87,0
48,49.34,50.84,0
48,49.31,50.81,0
48,49.29,50.78,0
48,49.26,50.75,0
48,49.23,50.73,0
48,49.21,50.70,0
48,49.19,50.67,0
48,49.16,50.65,0
49,49.16,50.63,0
48,49.14,50.60,0
48,49.11,50.58,0
48,49.09,50.55,0
49,49.09,50.54,0
49,49.09,50.52,0
48,49.07,50.49,0
49,49.06,50.48,0
48,49.04,50.45,0
52,49.10,50.47,0
49,49.10,50.46,0
48,49.08,50.43,0
47,49.04,50.40,0
49,49.04,50.38,0
48,49.01,50.36,0
48,48.99,50.34,0
49,48.99,50.32,0
49,48.99,50.31,0
49,48.99,50.30,0
48,48.97,50.27,0
47,48.94,50.24,0
50,48.96,50.24,0
48,48.94,50.22,0
48,48.92,50.19,0
49,48.92,50.18,0
47,48.88,50.15,0
49,48.88,50.14,0
48,48.87,50.12,0
47,48.83,50.09,0
49,48.83,50.07,0
48,48.82,50.05,0
48,48.80,50.03,0
47,48.76,50.00,0
49,48.77,49.99,0
48,48.75,49.97,0
50,48.78,49.97,0
48,48.76,49.95,0
48,48.75,49.93,0
48,48.73,49.91,0
48,48.72,49.90,0
48,48.70,49.88,0
48,48.69,49.86,0
48,48.68,49.84,0
47,48.64,49.81,0
48,48.63,49.79,0
50,48.66,49.79,0
50,48.68,49.80,0
47,48.65,49.77,0
48,48.64,49.75,0
48,48.62,49.73,0
50,48.65,49.74,0
47,48.62,49.71,0
48,48.61,49.69,0
48,48.59,49.67,0
48,48.58,49.66,0
47,48.55,49.63,0
48,48.54,49.62,0
50,48.57,49.62,0
50,48.60,49.62,0
47,48.57,49.60,0
48,48.55,49.58,0
48,48.54,49.56,0
49,48.55,49.56,0
47,48.52,49.53,0
48,48.51,49.52,0
48,48.50,49.50,0
48,48.49,49.49,0
47,48.46,49.46,0
48,48.45,49.45,0
50,48.48,49.45,0
50,48.51,49.46,0
48,48.50,49.45,0
48,48.49,49.43,0
51,48.54,49.45,0
48,48.53,49.43,0
47,48.50,49.41,0
47,48.47,49.38,0
48,48.46,49.37,0
48,48.45,49.36,0
48,48.44,49.34,0
48,48.43,49.33,0
48,48.43,49.32,0
48,48.42,49.30,0
48,48.41,49.29,0
45,48.34,49.25,0
49,48.35,49.24,0
48,48.35,49.23,0
47,48.32,49.21,0
48,48.31,49.20,0
48,48.31,49.19,0
48,48.30,49.17,0
47,48.28,49.15,0
48,48.27,49.14,0
49,48.28,49.14,0
48,48.28,49.13,0
46,48.23,49.10,0
46,48.19,49.07,0
48,48.18,49.05,0
48,48.18,49.04,0
47,48.16,49.02,0
47,48.13,49.00,0
47,48.11,48.98,0
47,48.09,48.96,0
47,48.07,48.94,0
49,48.09,48.94,0
48,48.08,48.93,0
48,48.08,48.93,0
46,48.04,48.90,0
47,48.02,48.88,0
48,48.02,48.87,0
48,48.02,48.86,0
45,47.96,48.82,0
48,47.96,48.81,0
48,47.96,48.80,0
47,47.94,48.79,0
46,47.90,48.76,0
47,47.88,48.74,0
48,47.89,48.73,0
46,47.85,48.71,0
48,47.85,48.70,0
47,47.84,48.68,0
48,47.84,48.68,0
46,47.80,48.65,0
46,47.77,48.62,0
47,47.75,48.61,0
47,47.74,48.59,0
48,47.74,48.58,0
47,47.73,48.57,0
47,47.71,48.55,0
47,47.70,48.54,0
46,47.66,48.51,0
46,47.63,48.49,0
47,47.62,48.47,0
47,47.60,48.46,0
46,47.57,48.43,0
49,47.60,48.44,0
47,47.59,48.42,0
47,47.58,48.41,0
46,47.55,48.39,0
46,47.51,48.36,0
45,47.46,48.33,0
48,47.48,48.32,0
48,47.49,48.32,0
47,47.48,48.31,0
47,47.47,48.30,0
48,47.48,48.29,0
46,47.45,48.27,0
47,47.44,48.26,0
47,47.43,48.24,0
48,47.44,48.24,0
48,47.45,48.24,0
47,47.44,48.23,0
47,47.43,48.21,0
47,47.43,48.20,0
47,47.42,48.19,0
47,47.41,48.18,0
47,47.40,48.17,0
48,47.41,48.17,0
46,47.38,48.14,0
49,47.42,48.15,0
49,47.45,48.16,0
48,47.46,48.16,0
49,47.49,48.17,0
48,47.50,48.17,0
48,47.51,48.16,0
48,47.52,48.16,0
49,47.55,48.17,0
48,47.56,48.17,0
47,47.55,48.16,0
48,47.56,48.16,0
48,47.57,48.15,0
48,47.57,48.15,0
47,47.56,48.14,0
47,47.55,48.13,0
48,47.56,48.13,0
47,47.55,48.12,0
48,47.56,48.12,0
47,47.55,48.10,0
47,47.54,48.09,0
47,47.53,48.08,0
47,47.52,48.07,0
47,47.50,48.06,0
47,47.49,48.05,0
46,47.46,48.03,0
47,47.46,48.02,0
48,47.47,48.02,0
48,47.48,48.02,0
46,47.45,48.00,0
47,47.44,47.99,0
47,47.43,47.98,0
47,47.42,47.97,0
48,47.43,47.97,0
47,47.42,47.96,0
48,47.44,47.96,0
47,47.43,47.95,0
46,47.40,47.93,0
48,47.41,47.93,0
47,47.40,47.92,0
47,47.39,47.91,0
46,47.37,47.89,0
48,47.38,47.90,0
47,47.37,47.89,0
48,47.38,47.89,0
46,47.36,47.87,0
47,47.35,47.86,0
47,47.34,47.85,0
46,47.32,47.83,0
46,47.29,47.81,0
46,47.26,47.80,0
47,47.26,47.79,0
46,47.23,47.77,0
46,47.21,47.75,0
46,47.18,47.74,0
47,47.18,47.73,0
46,47.16,47.71,0
46,47.13,47.69,0
47,47.13,47.69,0
47,47.13,47.68,0
46,47.11,47.66,0
46,47.08,47.65,0
47,47.08,47.64,0
47,47.08,47.63,0
46,47.06,47.62,0
46,47.04,47.60,0
47,47.04,47.60,0
47,47.04,47.59,0
46,47.02,47.57,0
46,46.99,47.56,0
47,47.00,47.55,0
47,47.00,47.55,0
46,46.98,47.53,0
47,46.98,47.53,0
47,46.98,47.52,0
47,46.98,47.52,0
46,46.96,47.50,0
46,46.94,47.49,0
47,46.94,47.48,0
48,46.96,47.49,0
46,46.94,47.47,0
49,46.98,47.49,0
47,46.98,47.48,0
46,46.96,47.47,0
46,46.94,47.45,0
47,46.95,47.45,0
47,46.95,47.44,0
46,46.93,47.43,0
46,46.91,47.41,0
46,46.89,47.40,0
46,46.87,47.39,0
46,46.86,47.37,0
46,46.84,47.36,0
46,46.82,47.34,0
46,46.80,47.33,0
46,46.79,47.32,0
46,46.77,47.30,0
43,46.70,47.26,0
46,46.68,47.25,0
48,46.71,47.26,0
46,46.70,47.24,0
46,46.68,47.23,0
47,46.69,47.23,0
46,46.67,47.22,0
47,46.68,47.21,0
47,46.69,47.21,0
47,46.69,47.21,0
46,46.68,47.20,0
46,46.67,47.19,0
45,46.63,47.16,0
46,46.62,47.15,0
49,46.67,47.17,0
46,46.65,47.16,0
46,46.64,47.15,0
46,46.63,47.14,0
46,46.62,47.13,0
46,46.60,47.11,0
47,46.61,47.11,0
47,46.62,47.11,0
47,46.63,47.11,0
46,46.61,47.10,0
46,46.60,47.09,0
47,46.61,47.09,0
47,46.62,47.09,0
46,46.61,47.08,0
47,46.61,47.08,0
48,46.64,47.08,0
47,46.65,47.08,0
47,46.66,47.08,0
46,46.64,47.07,0
47,46.65,47.07,0
47,46.66,47.07,0
46,46.64,47.06,0
46,46.63,47.05,0
46,46.62,47.04,0
46,46.61,47.03,0
46,46.59,47.02,0
46,46.58,47.01,0
46,46.57,47.00,0
47,46.58,47.00,0
45,46.55,46.98,0
46,46.54,46.97,0
45,46.51,46.95,0
46,46.50,46.94,0
46,46.49,46.93,0
46,46.48,46.92,0
45,46.45,46.90,0
46,46.44,46.89,0
46,46.43,46.88,0
46,46.42,46.87,0
46,46.41,46.87,0
45,46.38,46.85,0
46,46.38,46.84,0
46,46.37,46.83,0
47,46.38,46.83,0
47,46.39,46.83,0
48,46.43,46.84,0
48,46.46,46.86,0
49,46.51,46.88,0
49,46.56,46.90,0
47,46.57,46.90,0
48,46.59,46.91,0
49,46.64,46.93,0
50,46.71,46.96,0
50,46.78,46.99,0
50,46.84,47.02,0
47,46.84,47.02,0
51,46.93,47.06,0
50,46.99,47.09,0
50,47.05,47.12,0
49,47.09,47.14,0
50,47.15,47.17,0
50,47.20,47.20,0
52,47.30,47.24,0
50,47.35,47.27,0
50,47.41,47.30,0
48,47.42,47.31,0
50,47.47,47.33,0
49,47.50,47.35,0
50,47.55,47.38,0
50,47.60,47.40,0
50,47.65,47.43,0
50,47.69,47.45,0
49,47.72,47.47,0
50,47.77,47.50,0
50,47.81,47.52,0
51,47.87,47.56,0
50,47.92,47.58,0
52,48.00,47.62,0
50,48.04,47.65,0
51,48.10,47.68,0
52,48.18,47.72,0
52,48.25,47.77,0
54,48.37,47.83,0
54,48.48,47.89,0
54,48.59,47.95,0
54,48.70,48.01,0
52,48.76,48.05,0
54,48.87,48.11,0
54,48.97,48.17,0
53,49.05,48.22,0
54,49.15,48.28,0
53,49.23,48.32,0
54,49.32,48.38,0
54,49.42,48.44,0
53,49.49,48.48,0
54,49.58,48.54,0
53,49.65,48.58,0
53,49.71,48.63,0
54,49.80,48.68,0
54,49.88,48.73,0
53,49.95,48.78,0
51,49.97,48.80,0
52,50.01,48.83,0
54,50.09,48.88,0
53,50.15,48.92,0
54,50.22,48.97,0
53,50.28,49.01,0
53,50.33,49.05,0
54,50.41,49.10,0
52,50.44,49.13,0
55,50.53,49.19,0
54,50.60,49.24,0
55,50.69,49.30,0
56,50.79,49.36,0
55,50.88,49.42,0
56,50.98,49.49,0
57,51.10,49.56,0
56,51.20,49.63,0
55,51.27,49.68,0
56,51.37,49.74,0
56,51.46,49.81,0
55,51.53,49.86,0
55,51.60,49.91,0
55,51.67,49.96,0
55,51.74,50.01,0
56,51.82,50.07,0
54,51.87,50.11,0
54,51.91,50.15,0
55,51.97,50.20,0
56,52.05,50.25,0
54,52.09,50.29,0
58,52.21,50.37,0
56,52.28,50.43,0
56,52.36,50.48,0
56,52.43,50.54,0
56,52.50,50.59,0
58,52.61,50.67,0
56,52.68,50.72,0
56,52.75,50.77,0
58,52.85,50.84,0
57,52.93,50.91,0
58,53.04,50.98,0
56,53.09,51.03,0
56,53.15,51.08,0
57,53.23,51.14,0
57,53.31,51.19,0
56,53.36,51.24,0
57,53.43,51.30,0
59,53.54,51.38,0
58,53.63,51.44,0
58,53.72,51.51,0
59,53.83,51.58,0
58,53.91,51.65,0
58,53.99,51.71,0
58,54.07,51.77,0
59,54.17,51.85,0
58,54.25,51.91,0
58,54.32,51.97,0
58,54.39,52.03,0
58,54.47,52.09,0
58,54.54,52.15,0
58,54.61,52.21,0
58,54.67,52.26,0
58,54.74,52.32,0
58,54.81,52.38,0
58,54.87,52.43,0
60,54.97,52.51,0
62,55.11,52.61,0
61,55.23,52.69,0
60,55.33,52.76,0
60,55.42,52.83,0
61,55.53,52.92,0
66,55.74,53.05,0
66,55.95,53.18,0
64,56.11,53.28,0
64,56.26,53.39,0
64,56.42,53.50,0
64,56.57,53.60,0
62,56.68,53.69,0
63,56.81,53.78,0
62,56.91,53.86,0
62,57.01,53.94,0
64,57.15,54.04,0
64,57.29,54.14,0
65,57.44,54.25,0
64,57.57,54.35,0
64,57.70,54.45,0
65,57.85,54.55,0
64,57.97,54.65,0
64,58.09,54.74,0
64,58.21,54.83,0
64,58.33,54.92,0
66,58.48,55.04,0
71,58.73,55.19,0
69,58.94,55.33,0
66,59.08,55.44,0
70,59.30,55.59,0
68,59.47,55.71,0
71,59.70,55.86,0
71,59.93,56.01,0
73,60.19,56.18,0
71,60.40,56.33,0
71,60.62,56.48,0
73,60.86,56.64,0
77,61.19,56.85,0
72,61.40,57.00,0
72,61.61,57.15,0
72,61.82,57.30,0
79,62.17,57.51,0
74,62.40,57.68,0
75,62.65,57.85,0
74,62.88,58.01,0
73,63.08,58.16,0
74,63.30,58.32,0
74,63.52,58.48,0
76,63.77,58.65,0
73,63.95,58.80,0
74,64.15,58.95,0
74,64.35,59.10,0
73,64.52,59.24,0
75,64.73,59.40,0
76,64.96,59.56,0
75,65.16,59.72,0
75,65.35,59.87,0
77,65.59,60.04,0
76,65.79,60.20,0
76,66.00,60.36,0
78,66.24,60.54,0
79,66.49,60.72,0
80,66.76,60.91,0
82,67.07,61.12,0
82,67.37,61.33,0
83,67.68,61.55,0
82,67.97,61.75,0
82,68.25,61.96,0
80,68.48,62.14,0
81,68.73,62.32,0
82,69.00,62.52,0
80,69.22,62.70,0
81,69.45,62.88,0
82,69.70,63.07,0
82,69.95,63.26,0
82,70.19,63.45,0
84,70.47,63.65,0
84,70.74,63.86,0
82,70.96,64.04,0
83,71.20,64.23,0
84,71.46,64.43,0
82,71.67,64.60,0
82,71.88,64.77,0
82,72.08,64.95,0
83,72.30,65.13,0
83,72.51,65.31,0
82,72.70,65.47,0
82,72.89,65.64,0
84,73.11,65.82,0
83,73.31,65.99,0
84,73.52,66.17,0
82,73.69,66.33,0
83,73.88,66.50,0
83,74.06,66.66,0
82,74.22,66.82,0
82,74.37,66.97,0
86,74.61,67.16,0
84,74.80,67.33,0
84,74.98,67.49,0
84,75.16,67.66,0
84,75.34,67.82,0
84,75.51,67.98,0
84,75.68,68.14,0
84,75.85,68.30,0
84,76.01,68.46,0
86,76.21,68.64,0
86,76.40,68.81,0
86,76.60,68.98,0
88,76.82,69.17,0
90,77.09,69.38,0
94,77.43,69.63,0
90,77.68,69.83,0
89,77.90,70.02,0
92,78.19,70.24,0
90,78.42,70.44,0
92,78.69,70.65,0
90,78.92,70.85,0
92,79.18,71.06,0
91,79.42,71.26,0
90,79.63,71.45,0
90,79.84,71.63,0
92,80.08,71.84,0
90,80.28,72.02,0
90,80.47,72.20,0
92,80.70,72.40,0
94,80.97,72.61,0
92,81.19,72.80,0
92,81.41,73.00,0
91,81.60,73.18,0
92,81.81,73.37,0
92,82.01,73.55,0
92,82.21,73.74,0
91,82.39,73.91,0
92,82.58,74.09,0
92,82.77,74.27,0
94,82.99,74.47,0
95,83.23,74.67,0
96,83.49,74.88,0
94,83.70,75.08,0
95,83.92,75.28,0
97,84.18,75.49,0
100,84.50,75.74,0
96,84.73,75.94,0
96,84.96,76.14,0
96,85.18,76.34,0
97,85.41,76.55,0
95,85.61,76.73,0
96,85.81,76.92,0
97,86.04,77.12,0
96,86.24,77.31,0
96,86.43,77.50,0
96,86.62,77.68,0
98,86.85,77.89,0
101,87.13,78.12,0
100,87.39,78.34,0
98,87.60,78.53,0
99,87.83,78.74,0
99,88.05,78.94,0
100,88.29,79.15,0
100,88.53,79.36,0
100,88.76,79.57,0
99,88.96,79.76,0
100,89.18,79.96,0
101,89.42,80.17,0
100,89.63,80.37,0
99,89.82,80.56,0
100,90.02,80.75,0
102,90.26,80.97,0
100,90.46,81.16,0
104,90.73,81.38,0
105,91.01,81.62,0
101,91.21,81.81,0
101,91.41,82.01,0
104,91.66,82.23,0
104,91.91,82.44,0
105,92.17,82.67,0
103,92.38,82.87,0
101,92.56,83.05,0
103,92.77,83.25,0
103,92.97,83.45,0
103,93.17,83.65,0
105,93.41,83.86,0
103,93.60,84.05,0
104,93.81,84.25,0
103,93.99,84.44,0
104,94.19,84.63,0
105,94.41,84.84,0
106,94.64,85.05,0
105,94.85,85.25,0
104,95.03,85.44,0
105,95.23,85.63,0
105,95.42,85.83,0
105,95.62,86.02,0
105,95.80,86.21,0
105,95.99,86.39,0
105,96.17,86.58,0
105,96.34,86.77,0
104,96.50,86.94,0
104,96.65,87.11,0
103,96.77,87.27,0
104,96.92,87.43,0
104,97.06,87.60,0
105,97.22,87.77,0
103,97.34,87.93,0
104,97.47,88.09,0
104,97.60,88.25,0
103,97.71,88.39,0
104,97.83,88.55,0
103,97.94,88.69,0
103,98.04,88.84,0
103,98.14,88.98,0
106,98.29,89.15,0
105,98.43,89.31,0
104,98.54,89.45,0
106,98.69,89.62,0
104,98.80,89.76,0
104,98.90,89.91,0
103,98.98,90.04,0
103,99.06,90.17,0
104,99.16,90.31,0
104,99.26,90.44,0
103,99.33,90.57,0
103,99.41,90.69,0
102,99.46,90.81,0
101,99.49,90.91,0
101,99.52,91.01,0
101,99.55,91.11,0
106,99.68,91.26,0
101,99.70,91.35,0
103,99.77,91.47,0
101,99.79,91.57,0
101,99.82,91.66,0
101,99.84,91.75,0
101,99.87,91.85,0
101,99.89,91.94,0
101,99.91,92.03,0
101,99.93,92.12,0
101,99.95,92.21,0
102,99.99,92.30,0
100,99.99,92.38,0
100,99.99,92.46,0
100,99.99,92.53,0
99,99.97,92.60,0
101,100.00,92.68,0
100,100.00,92.76,0
100,100.00,92.83,0
100,100.00,92.90,0
102,100.04,92.99,0
100,100.03,93.06,0
100,100.03,93.13,0
100,100.03,93.20,0
100,100.03,93.27,0
100,100.03,93.33,0
99,100.01,93.39,0
99,99.99,93.45,0
99,99.97,93.50,0
100,99.97,93.57,0
95,99.87,93.58,0
99,99.86,93.64,0
99,99.84,93.69,0
102,99.88,93.77,0
99,99.86,93.82,0
101,99.89,93.90,0
101,99.91,93.97,0
101,99.93,94.04,0
100,99.93,94.10,0
99,99.91,94.15,0
99,99.89,94.20,0
99,99.88,94.24,0
99,99.86,94.29,0
99,99.84,94.34,0
98,99.81,94.37,0
100,99.81,94.43,0
99,99.79,94.48,0
99,99.78,94.52,0
99,99.76,94.57,0
98,99.73,94.60,0
98,99.69,94.63,0
99,99.68,94.68,0
98,99.64,94.71,0
98,99.61,94.74,0
98,99.58,94.78,0
95,99.49,94.78,0
97,99.44,94.80,0
98,99.41,94.83,0
98,99.38,94.87,0
98,99.35,94.90,0
98,99.33,94.93,0
98,99.30,94.96,0
97,99.25,94.98,0
95,99.17,94.98,0
96,99.11,94.99,0
97,99.06,95.01,0
98,99.04,95.04,0
97,99.00,95.06,0
96,98.94,95.07,0
96,98.88,95.08,0
97,98.84,95.10,0
97,98.81,95.12,0
96,98.75,95.12,0
95,98.68,95.12,0
96,98.62,95.13,0
97,98.59,95.15,0
96,98.54,95.16,0
98,98.53,95.19,0
96,98.48,95.20,0
97,98.45,95.21,0
96,98.40,95.22,0
96,98.35,95.23,0
96,98.30,95.24,0
95,98.24,95.23,0
96,98.19,95.24,0
96,98.15,95.25,0
96,98.11,95.26,0
95,98.04,95.25,0
96,98.00,95.26,0
96,97.96,95.27,0
96,97.92,95.28,0
94,97.85,95.26,0
94,97.77,95.25,0
96,97.73,95.26,0
94,97.66,95.25,0
94,97.59,95.23,0
94,97.51,95.22,0
94,97.44,95.21,0
95,97.39,95.21,0
95,97.35,95.21,0
95,97.30,95.20,0
94,97.23,95.19,0
94,97.17,95.18,0
94,97.11,95.17,0
96,97.08,95.18,0
94,97.02,95.16,0
93,96.94,95.14,0
94,96.88,95.13,0
96,96.87,95.14,0
93,96.79,95.12,0
94,96.73,95.11,0
95,96.70,95.11,0
93,96.62,95.09,0
94,96.57,95.07,0
93,96.50,95.05,0
95,96.47,95.05,0
92,96.38,95.02,0
93,96.31,95.00,0
92,96.23,94.97,0
93,96.16,94.95,0
93,96.10,94.93,0
92,96.02,94.90,0
92,95.94,94.87,0
92,95.86,94.85,0
92,95.78,94.82,0
92,95.70,94.79,0
92,95.63,94.76,0
92,95.56,94.73,0
92,95.49,94.71,0
90,95.38,94.66,0
91,95.29,94.62,0
91,95.20,94.59,0
93,95.16,94.57,0
90,95.06,94.52,0
90,94.96,94.48,0
91,94.88,94.44,0
90,94.78,94.40,0
90,94.68,94.36,0
90,94.59,94.31,0
92,94.54,94.29,0
91,94.47,94.26,0
90,94.38,94.21,0
90,94.29,94.17,0
89,94.18,94.12,0
90,94.10,94.08,0
89,94.00,94.03,0
90,93.92,93.99,0
90,93.84,93.95,0
90,93.76,93.91,0
88,93.65,93.85,0
88,93.54,93.79,0
89,93.44,93.74,0
89,93.36,93.70,0
90,93.29,93.66,0
90,93.22,93.62,0
89,93.14,93.58,0
88,93.04,93.52,0
88,92.93,93.47,0
88,92.84,93.41,0
88,92.74,93.36,0
88,92.64,93.30,0
88,92.55,93.25,0
88,92.46,93.20,0
88,92.37,93.15,0
88,92.28,93.09,0
88,92.20,93.04,0
88,92.11,92.99,0
87,92.01,92.93,0
88,91.93,92.88,0
86,91.81,92.81,0
86,91.70,92.75,0
87,91.60,92.69,0
86,91.49,92.62,0
86,91.38,92.56,0
88,91.31,92.51,0
86,91.21,92.45,0
86,91.10,92.38,0
86,91.00,92.32,0
86,90.90,92.25,0
86,90.80,92.19,0
86,90.71,92.13,0
88,90.65,92.09,0
86,90.56,92.03,0
86,90.47,91.97,0
86,90.38,91.91,0
86,90.29,91.85,0
86,90.21,91.79,0
86,90.12,91.73,0
88,90.08,91.69,0
85,89.98,91.63,0
86,89.90,91.57,0
86,89.82,91.52,0
88,89.78,91.48,0
86,89.71,91.43,0
85,89.61,91.36,0
85,89.52,91.30,0
85,89.43,91.23,0
84,89.32,91.16,0
85,89.24,91.10,0
85,89.15,91.04,0
85,89.07,90.98,0
84,88.97,90.91,0
85,88.89,90.85,0
84,88.79,90.78,0
84,88.69,90.71,0
84,88.60,90.65,0
84,88.51,90.58,0
85,88.44,90.52,0
85,88.37,90.47,0
84,88.28,90.40,0
84,88.20,90.34,0
83,88.09,90.27,0
84,88.01,90.20,0
82,87.89,90.12,0
83,87.79,90.05,0
86,87.76,90.01,0
84,87.68,89.95,0
84,87.61,89.89,0
83,87.52,89.82,0
83,87.43,89.75,0
86,87.40,89.72,0
82,87.29,89.64,0
82,87.18,89.56,0
84,87.12,89.51,0
82,87.02,89.43,0
82,86.92,89.36,0
82,86.82,89.28,0
83,86.74,89.22,0
84,86.69,89.17,0
82,86.59,89.10,0
82,86.50,89.03,0
81,86.39,88.95,0
84,86.34,88.90,0
82,86.26,88.83,0
82,86.17,88.76,0
83,86.11,88.70,0
82,86.03,88.63,0
82,85.95,88.57,0
82,85.87,88.50,0
83,85.81,88.45,0
82,85.73,88.38,0
84,85.70,88.34,0
82,85.62,88.28,0
81,85.53,88.20,0
82,85.46,88.14,0
81,85.37,88.07,0
80,85.26,87.99,0
81,85.18,87.92,0
80,85.08,87.84,0
80,84.97,87.76,0
79,84.85,87.67,0
81,84.78,87.61,0
81,84.70,87.54,0
80,84.61,87.47,0
80,84.52,87.39,0
81,84.45,87.33,0
80,84.36,87.25,0
79,84.25,87.17,0
79,84.14,87.09,0
79,84.04,87.01,0
80,83.96,86.94,0
80,83.88,86.87,0
78,83.76,86.78,0
79,83.67,86.70,0
79,83.58,86.63,0
78,83.46,86.54,0
79,83.37,86.46,0
80,83.31,86.40,0
80,83.24,86.34,0
80,83.18,86.27,0
79,83.09,86.20,0
79,83.01,86.13,0
79,82.93,86.06,0
80,82.87,86.00,0
79,82.79,85.93,0
80,82.74,85.87,0
79,82.66,85.80,0
78,82.57,85.72,0
79,82.50,85.65,0
79,82.43,85.59,0
79,82.36,85.52,0
80,82.31,85.47,0
78,82.23,85.39,0
79,82.16,85.33,0
78,82.08,85.25,0
79,82.02,85.19,0
78,81.94,85.12,0
78,81.86,85.05,0
80,81.82,85.00,0
78,81.75,84.93,0
79,81.69,84.87,0
78,81.62,84.80,0
79,81.56,84.74,0
79,81.51,84.68,0
79,81.46,84.63,0
79,81.41,84.57,0
78,81.35,84.51,0
78,81.28,84.44,0
78,81.21,84.38,0
78,81.15,84.31,0
78,81.09,84.25,0
78,81.02,84.19,0
78,80.96,84.12,0
78,80.90,84.06,0
78,80.85,84.00,0
78,80.79,83.94,0
77,80.71,83.87,0
78,80.66,83.81,0
78,80.61,83.76,0
78,80.55,83.70,0
77,80.48,83.63,0
78,80.43,83.58,0
78,80.38,83.52,0
77,80.32,83.45,0
77,80.25,83.39,0
78,80.21,83.34,0
78,80.16,83.28,0
77,80.10,83.22,0
78,80.06,83.17,0
77,79.99,83.11,0
77,79.93,83.04,0
76,79.86,82.97,0
77,79.80,82.91,0
79,79.78,82.88,0
76,79.71,82.81,0
76,79.63,82.74,0
76,79.56,82.67,0
79,79.55,82.63,0
77,79.50,82.58,0
76,79.43,82.51,0
75,79.34,82.44,0
76,79.27,82.37,0
76,79.21,82.31,0
76,79.14,82.25,0
76,79.08,82.18,0
76,79.02,82.12,0
76,78.96,82.06,0
76,78.90,82.00,0
74,78.80,81.92,0
76,78.75,81.86,0
76,78.69,81.80,0
74,78.60,81.72,0
74,78.50,81.65,0
76,78.45,81.59,0
76,78.41,81.53,0
74,78.32,81.46,0
74,78.23,81.38,0
76,78.19,81.33,0
75,78.12,81.27,0
74,78.04,81.19,0
74,77.96,81.12,0
78,77.96,81.09,0
75,77.90,81.03,0
74,77.82,80.96,0
76,77.79,80.91,0
76,77.75,80.86,0
76,77.72,80.81,0
74,77.64,80.74,0
74,77.57,80.68,0
75,77.52,80.62,0
75,77.47,80.56,0
74,77.40,80.50,0
74,77.33,80.43,0
75,77.28,80.38,0
78,77.30,80.36,0
74,77.23,80.29,0
76,77.21,80.25,0
76,77.18,80.21,0
77,77.18,80.17,0
74,77.12,80.11,0
74,77.05,80.05,0
75,77.01,80.00,0
71,76.89,79.91,0
74,76.83,79.85,0
74,76.78,79.79,0
74,76.72,79.74,0
74,76.67,79.68,0
74,76.61,79.62,0
74,76.56,79.57,0
74,76.51,79.51,0
72,76.42,79.43,0
74,76.37,79.38,0
74,76.32,79.33,0
75,76.30,79.28,0
74,76.25,79.23,0
74,76.21,79.18,0
74,76.16,79.13,0
74,76.12,79.08,0
74,76.08,79.02,0
73,76.02,78.96,0
74,75.98,78.91,0
74,75.94,78.87,0
76,75.94,78.84,0
72,75.86,78.77,0
74,75.82,78.72,0
73,75.76,78.66,0
73,75.71,78.61,0
74,75.68,78.56,0
73,75.62,78.51,0
73,75.57,78.45,0
74,75.54,78.41,0
72,75.47,78.34,0
72,75.40,78.28,0
72,75.33,78.22,0
73,75.28,78.16,0
74,75.26,78.12,0
72,75.19,78.06,0
72,75.13,78.00,0
74,75.11,77.96,0
72,75.04,77.90,0
72,74.98,77.84,0
74,74.96,77.80,0
73,74.92,77.75,0
72,74.87,77.70,0
72,74.81,77.64,0
72,74.75,77.58,0
73,74.72,77.54,0
72,74.66,77.48,0
72,74.61,77.43,0
72,74.56,77.37,0
72,74.51,77.32,0
72,74.46,77.27,0
72,74.41,77.21,0
72,74.36,77.16,0
72,74.31,77.11,0
71,74.25,77.05,0
70,74.16,76.98,0
71,74.10,76.92,0
72,74.06,76.87,0
70,73.97,76.80,0
71,73.91,76.74,0
71,73.86,76.69,0
72,73.82,76.64,0
72,73.78,76.59,0
70,73.71,76.53,0
71,73.65,76.47,0
72,73.62,76.43,0
70,73.55,76.36,0
71,73.50,76.31,0
70,73.43,76.25,0
71,73.38,76.19,0
70,73.31,76.13,0
70,73.24,76.07,0
72,73.22,76.03,0
70,73.16,75.97,0
70,73.09,75.91,0
70,73.03,75.85,0
71,72.99,75.80,0
70,72.93,75.74,0
70,72.87,75.69,0
70,72.81,75.63,0
72,72.80,75.59,0
70,72.74,75.54,0
71,72.71,75.49,0
70,72.65,75.44,0
70,72.60,75.38,0
70,72.55,75.33,0
70,72.50,75.28,0
70,72.45,75.22,0
69,72.38,75.16,0
69,72.31,75.10,0
70,72.26,75.05,0
70,72.22,75.00,0
70,72.17,74.95,0
68,72.09,74.88,0
68,72.01,74.81,0
69,71.95,74.75,0
68,71.87,74.68,0
70,71.83,74.64,0
68,71.76,74.57,0
70,71.72,74.52,0
70,71.69,74.48,0
68,71.61,74.41,0
68,71.54,74.35,0
68,71.47,74.29,0
69,71.42,74.23,0
67,71.33,74.16,0
68,71.27,74.10,0
68,71.20,74.04,0
71,71.20,74.01,0
66,71.09,73.93,0
68,71.03,73.87,0
68,70.97,73.81,0
67,70.89,73.74,0
68,70.83,73.68,0
66,70.74,73.61,0
68,70.68,73.55,0
68,70.63,73.50,0
66,70.53,73.42,0
68,70.48,73.37,0
68,70.43,73.31,0
67,70.37,73.25,0
66,70.28,73.18,0
68,70.23,73.13,0
67,70.17,73.06,0
65,70.06,72.98,0
70,70.06,72.95,0
66,69.98,72.88,0
66,69.90,72.82,0
66,69.82,72.75,0
66,69.75,72.68,0
66,69.67,72.61,0
66,69.60,72.55,0
66,69.53,72.48,0
66,69.46,72.42,0
68,69.43,72.37,0
67,69.38,72.32,0
66,69.31,72.26,0
65,69.23,72.18,0
66,69.16,72.12,0
66,69.10,72.06,0
68,69.08,72.02,0
65,68.99,71.95,0
66,68.93,71.89,0
66,68.88,71.83,0
68,68.86,71.79,0
68,68.84,71.76,0
66,68.78,71.70,0
66,68.73,71.64,0
65,68.65,71.57,0
65,68.58,71.51,0
65,68.51,71.44,0
64,68.42,71.37,0
65,68.35,71.31,0
66,68.30,71.25,0
65,68.24,71.19,0
65,68.17,71.13,0
65,68.11,71.07,0
66,68.07,71.02,0
66,68.03,70.97,0
66,67.99,70.92,0
65,67.93,70.86,0
66,67.89,70.81,0
66,67.85,70.76,0
66,67.81,70.71,0
65,67.76,70.66,0
65,67.70,70.60,0
65,67.65,70.54,0
65,67.59,70.49,0
65,67.54,70.43,0
65,67.49,70.38,0
65,67.44,70.32,0
64,67.37,70.26,0
64,67.31,70.20,0
65,67.26,70.15,0
64,67.19,70.09,0
63,67.11,70.01,0
65,67.07,69.96,0
64,67.01,69.90,0
63,66.93,69.84,0
64,66.87,69.78,0
64,66.81,69.72,0
64,66.75,69.66,0
64,66.70,69.61,0
64,66.65,69.55,0
64,66.59,69.49,0
64,66.54,69.44,0
64,66.49,69.38,0
64,66.44,69.33,0
65,66.41,69.29,0
64,66.36,69.23,0
62,66.28,69.16,0
64,66.23,69.11,0
64,66.19,69.06,0
64,66.14,69.01,0
64,66.10,68.96,0
64,66.06,68.91,0
65,66.04,68.87,0
63,65.98,68.81,0
62,65.90,68.74,0
65,65.88,68.71,0
64,65.84,68.66,0
64,65.80,68.61,0
65,65.79,68.58,0
64,65.75,68.53,0
64,65.72,68.49,0
64,65.68,68.44,0
64,65.65,68.40,0
64,65.62,68.35,0
64,65.58,68.31,0
63,65.53,68.26,0
64,65.50,68.21,0
64,65.47,68.17,0
64,65.44,68.13,0
62,65.37,68.07,0
