Teste de posicionamento 2(EMG ao centro do bíceps (Vermelho A, Verde B) + Ref no cotovelo) - 16/09/2024 - teste5 - 5 contrações
long frequencia = 1000;                 //frequência de aquisição do sinal, neste caso, 1000 sinais por segundo
float fator1 = 0.02, fator2 = 0.01;
float incerteza = 0.13;
float pico_basal = 130; // Mínimo para ser considerado um pico de contração
int filtro_horizontal=200000; //intervalo de 200ms valores não pode ter mais de 1 contração

Biceps_D,mediaMovel_1,mediaMovel_2,Contracao
46,0.92,0.46,0
47,1.84,0.93,0
48,2.76,1.40,0
46,3.63,1.84,0
48,4.52,2.30,0
46,5.35,2.74,0
47,6.18,3.18,0
48,7.02,3.63,0
48,7.84,4.08,0
46,8.60,4.49,0
49,9.41,4.94,0
46,10.14,5.35,0
46,10.86,5.76,0
46,11.56,6.16,0
48,12.29,6.58,0
47,12.98,6.98,0
48,13.68,7.39,0
50,14.41,7.82,0
47,15.06,8.21,0
49,15.74,8.62,0
49,16.40,9.02,0
48,17.04,9.41,0
49,17.68,9.81,0
46,18.24,10.17,0
47,18.82,10.54,0
47,19.38,10.90,0
48,19.95,11.27,0
46,20.47,11.62,0
47,21.00,11.97,0
48,21.54,12.33,0
48,22.07,12.69,0
47,22.57,13.03,0
47,23.06,13.37,0
46,23.52,13.70,0
46,23.97,14.02,0
46,24.41,14.34,0
46,24.84,14.66,0
47,25.28,14.98,0
46,25.70,15.29,0
46,26.11,15.60,0
47,26.52,15.91,0
47,26.93,16.22,0
48,27.35,16.54,0
46,27.73,16.84,0
46,28.09,17.13,0
46,28.45,17.42,0
47,28.82,17.71,0
45,29.15,17.99,0
48,29.52,18.29,0
46,29.85,18.56,0
47,30.19,18.85,0
47,30.53,19.13,0
46,30.84,19.40,0
46,31.14,19.66,0
46,31.44,19.93,0
47,31.75,20.20,0
46,32.04,20.46,0
46,32.32,20.71,0
46,32.59,20.96,0
46,32.86,21.21,0
46,33.12,21.46,0
46,33.38,21.71,0
46,33.63,21.95,0
46,33.88,22.19,0
46,34.12,22.43,0
48,34.40,22.69,0
46,34.63,22.92,0
45,34.84,23.14,0
46,35.06,23.37,0
47,35.30,23.60,0
46,35.51,23.83,0
47,35.74,24.06,0
46,35.95,24.28,0
46,36.15,24.50,0
46,36.35,24.71,0
46,36.54,24.92,0
46,36.73,25.14,0
46,36.91,25.34,0
46,37.10,25.55,0
46,37.27,25.75,0
47,37.47,25.97,0
45,37.62,26.16,0
46,37.79,26.36,0
46,37.95,26.55,0
47,38.13,26.76,0
48,38.33,26.97,0
46,38.48,27.16,0
46,38.63,27.35,0
51,38.88,27.58,0
48,39.06,27.79,0
46,39.20,27.97,0
46,39.34,28.15,0
48,39.51,28.35,0
47,39.66,28.54,0
46,39.79,28.71,0
47,39.93,28.89,0
47,40.07,29.07,0
47,40.21,29.25,0
46,40.33,29.42,0
46,40.44,29.59,0
45,40.53,29.74,0
46,40.64,29.90,0
46,40.75,30.06,0
46,40.85,30.22,0
47,40.98,30.39,0
46,41.08,30.55,0
46,41.18,30.70,0
45,41.25,30.85,0
47,41.37,31.01,0
46,41.46,31.16,0
46,41.55,31.31,0
46,41.64,31.45,0
45,41.71,31.59,0
46,41.79,31.73,0
46,41.88,31.87,0
46,41.96,32.02,0
46,42.04,32.16,0
46,42.12,32.29,0
46,42.20,32.43,0
46,42.27,32.57,0
45,42.33,32.69,0
46,42.40,32.82,0
46,42.47,32.96,0
46,42.54,33.09,0
46,42.61,33.22,0
46,42.68,33.34,0
46,42.75,33.47,0
47,42.83,33.61,0
48,42.93,33.75,0
46,43.00,33.87,0
46,43.06,33.99,0
46,43.12,34.11,0
47,43.19,34.24,0
46,43.25,34.36,0
45,43.28,34.47,0
46,43.34,34.58,0
46,43.39,34.70,0
45,43.42,34.80,0
46,43.48,34.91,0
46,43.53,35.02,0
47,43.60,35.14,0
46,43.64,35.25,0
44,43.65,35.34,0
45,43.68,35.43,0
46,43.72,35.54,0
46,43.77,35.64,0
46,43.81,35.75,0
46,43.86,35.85,0
46,43.90,35.95,0
44,43.90,36.03,0
44,43.90,36.11,0
47,43.97,36.22,0
46,44.01,36.32,0
45,44.03,36.41,0
47,44.09,36.51,0
45,44.10,36.60,0
46,44.14,36.69,0
47,44.20,36.79,0
45,44.22,36.88,0
45,44.23,36.96,0
46,44.27,37.05,0
44,44.26,37.12,0
46,44.30,37.21,0
45,44.31,37.28,0
45,44.32,37.36,0
45,44.34,37.44,0
46,44.37,37.52,0
45,44.38,37.60,0
44,44.38,37.66,0
45,44.39,37.73,0
46,44.42,37.82,0
45,44.43,37.89,0
47,44.48,37.98,0
48,44.55,38.08,0
45,44.56,38.15,0
46,44.59,38.23,0
47,44.64,38.32,0
45,44.65,38.38,0
46,44.67,38.46,0
46,44.70,38.53,0
45,44.71,38.60,0
46,44.73,38.67,0
45,44.74,38.74,0
46,44.76,38.81,0
47,44.81,38.89,0
45,44.81,38.95,0
46,44.84,39.02,0
45,44.84,39.08,0
45,44.84,39.14,0
47,44.88,39.22,0
45,44.89,39.28,0
46,44.91,39.35,0
45,44.91,39.40,0
46,44.93,39.47,0
46,44.95,39.53,0
44,44.94,39.58,0
45,44.94,39.63,0
45,44.94,39.69,0
44,44.92,39.73,0
46,44.94,39.79,0
45,44.94,39.84,0
45,44.94,39.90,0
44,44.92,39.94,0
44,44.91,39.98,0
45,44.91,40.03,0
46,44.93,40.09,0
45,44.93,40.14,0
46,44.95,40.19,0
45,44.95,40.24,0
46,44.97,40.30,0
44,44.95,40.34,0
44,44.94,40.37,0
45,44.94,40.42,0
44,44.92,40.46,0
46,44.94,40.51,0
44,44.92,40.55,0
45,44.92,40.59,0
45,44.92,40.63,0
46,44.95,40.69,0
44,44.93,40.72,0
46,44.95,40.77,0
45,44.95,40.82,0
46,44.97,40.87,0
46,44.99,40.92,0
47,45.03,40.98,0
44,45.01,41.01,0
46,45.03,41.06,0
46,45.05,41.11,0
45,45.05,41.15,0
44,45.03,41.18,0
44,45.01,41.21,0
46,45.03,41.25,0
46,45.05,41.30,0
44,45.03,41.33,0
46,45.04,41.37,0
46,45.06,41.42,0
45,45.06,41.46,0
44,45.04,41.48,0
46,45.06,41.53,0
46,45.08,41.57,0
45,45.08,41.61,0
45,45.08,41.64,0
46,45.09,41.68,0
46,45.11,41.73,0
45,45.11,41.76,0
46,45.13,41.80,0
45,45.13,41.83,0
45,45.12,41.87,0
44,45.10,41.89,0
45,45.10,41.92,0
45,45.10,41.95,0
45,45.09,41.98,0
45,45.09,42.01,0
46,45.11,42.05,0
44,45.09,42.07,0
45,45.09,42.10,0
46,45.11,42.14,0
46,45.12,42.18,0
44,45.10,42.19,0
45,45.10,42.22,0
46,45.12,42.26,0
46,45.13,42.30,0
46,45.15,42.33,0
45,45.15,42.36,0
44,45.13,42.38,0
46,45.14,42.41,0
44,45.12,42.43,0
45,45.12,42.46,0
44,45.10,42.47,0
44,45.07,42.49,0
44,45.05,42.50,0
44,45.03,42.52,0
46,45.05,42.55,0
44,45.03,42.57,0
44,45.01,42.58,0
44,44.99,42.59,0
45,44.99,42.62,0
46,45.01,42.65,0
45,45.01,42.68,0
47,45.05,42.72,0
47,45.09,42.76,0
45,45.09,42.78,0
45,45.08,42.81,0
45,45.08,42.83,0
47,45.12,42.87,0
46,45.14,42.90,0
44,45.12,42.91,0
44,45.09,42.92,0
45,45.09,42.94,0
44,45.07,42.95,0
44,45.05,42.96,0
44,45.03,42.98,0
45,45.03,43.00,0
44,45.01,43.01,0
44,44.99,43.02,0
44,44.97,43.03,0
45,44.97,43.05,0
44,44.95,43.05,0
46,44.97,43.08,0
46,44.99,43.11,0
45,44.99,43.13,0
45,44.99,43.15,0
44,44.97,43.16,0
44,44.95,43.17,0
47,44.99,43.21,0
45,44.99,43.22,0
46,45.01,43.25,0
44,44.99,43.26,0
46,45.01,43.29,0
45,45.01,43.30,0
44,44.99,43.31,0
44,44.97,43.32,0
45,44.97,43.33,0
44,44.95,43.34,0
44,44.93,43.35,0
44,44.92,43.35,0
44,44.90,43.36,0
43,44.86,43.36,0
46,44.88,43.38,0
44,44.86,43.39,0
44,44.85,43.40,0
44,44.83,43.40,0
44,44.81,43.41,0
44,44.80,43.41,0
44,44.78,43.42,0
44,44.77,43.43,0
44,44.75,43.43,0
45,44.76,43.45,0
45,44.76,43.46,0
44,44.74,43.47,0
44,44.73,43.47,0
47,44.78,43.51,0
46,44.80,43.53,0
46,44.82,43.56,0
44,44.81,43.56,0
46,44.83,43.59,0
46,44.85,43.61,0
44,44.84,43.61,0
44,44.82,43.62,0
46,44.84,43.64,0
45,44.85,43.66,0
44,44.83,43.66,0
44,44.81,43.66,0
44,44.80,43.67,0
44,44.78,43.67,0
44,44.77,43.67,0
45,44.77,43.69,0
44,44.76,43.69,0
46,44.78,43.71,0
44,44.76,43.72,0
45,44.77,43.73,0
44,44.75,43.73,0
45,44.76,43.74,0
44,44.74,43.75,0
44,44.73,43.75,0
45,44.73,43.76,0
44,44.72,43.76,0
44,44.71,43.77,0
44,44.69,43.77,0
44,44.68,43.77,0
44,44.66,43.77,0
46,44.69,43.80,0
44,44.68,43.80,0
44,44.66,43.80,0
47,44.71,43.83,0
44,44.70,43.83,0
44,44.68,43.83,0
44,44.67,43.84,0
44,44.65,43.84,0
44,44.64,43.84,0
44,44.63,43.84,0
44,44.62,43.84,0
44,44.60,43.84,0
44,44.59,43.85,0
44,44.58,43.85,0
43,44.55,43.84,0
46,44.58,43.86,0
45,44.59,43.87,0
42,44.53,43.85,0
43,44.50,43.84,0
44,44.49,43.85,0
45,44.50,43.86,0
44,44.49,43.86,0
44,44.48,43.86,0
45,44.49,43.87,0
43,44.46,43.86,0
44,44.45,43.86,0
43,44.43,43.86,0
45,44.44,43.87,0
44,44.43,43.87,0
44,44.42,43.87,0
44,44.41,43.87,0
43,44.38,43.86,0
44,44.38,43.86,0
44,44.37,43.87,0
44,44.36,43.87,0
45,44.37,43.88,0
45,44.39,43.89,0
44,44.38,43.89,0
42,44.33,43.87,0
45,44.34,43.88,0
45,44.36,43.89,0
44,44.35,43.89,0
42,44.30,43.88,0
44,44.30,43.88,0
44,44.29,43.88,0
44,44.29,43.88,0
46,44.32,43.90,0
44,44.31,43.90,0
46,44.35,43.92,0
46,44.38,43.94,0
44,44.37,43.94,0
45,44.38,43.95,0
44,44.38,43.96,0
44,44.37,43.96,0
44,44.36,43.96,0
45,44.38,43.97,0
46,44.41,43.99,0
46,44.44,44.01,0
46,44.47,44.03,0
45,44.48,44.04,0
44,44.47,44.04,0
44,44.46,44.04,0
46,44.49,44.06,0
45,44.50,44.06,0
44,44.49,44.06,0
44,44.48,44.06,0
44,44.47,44.06,0
44,44.46,44.06,0
46,44.49,44.08,0
44,44.48,44.08,0
44,44.48,44.08,0
45,44.49,44.09,0
46,44.52,44.11,0
44,44.51,44.11,0
46,44.54,44.13,0
46,44.56,44.15,0
48,44.63,44.18,0
44,44.62,44.18,0
46,44.65,44.20,0
46,44.68,44.22,0
44,44.66,44.22,0
44,44.65,44.21,0
46,44.68,44.23,0
46,44.70,44.25,0
44,44.69,44.25,0
45,44.69,44.25,0
45,44.70,44.26,0
44,44.69,44.26,0
45,44.69,44.27,0
44,44.68,44.26,0
45,44.69,44.27,0
45,44.69,44.28,0
46,44.72,44.30,0
44,44.70,44.29,0
44,44.69,44.29,0
46,44.72,44.31,0
44,44.70,44.30,0
42,44.65,44.28,0
44,44.63,44.28,0
44,44.62,44.28,0
44,44.61,44.27,0
44,44.60,44.27,0
46,44.63,44.29,0
44,44.61,44.28,0
44,44.60,44.28,0
44,44.59,44.28,0
44,44.58,44.28,0
44,44.57,44.27,0
45,44.57,44.28,0
44,44.56,44.28,0
45,44.57,44.28,0
44,44.56,44.28,0
44,44.55,44.28,0
44,44.54,44.28,0
44,44.53,44.27,0
44,44.52,44.27,0
44,44.51,44.27,0
44,44.50,44.27,0
44,44.49,44.26,0
44,44.48,44.26,0
45,44.49,44.27,0
44,44.48,44.26,0
43,44.45,44.25,0
45,44.46,44.26,0
46,44.49,44.28,0
44,44.48,44.27,0
43,44.45,44.26,0
44,44.44,44.26,0
45,44.45,44.27,0
44,44.44,44.26,0
44,44.43,44.26,0
44,44.43,44.26,0
44,44.42,44.26,0
43,44.39,44.24,0
40,44.30,44.20,0
44,44.29,44.20,0
44,44.29,44.20,0
44,44.28,44.19,0
42,44.24,44.17,0
45,44.25,44.18,0
44,44.25,44.18,0
42,44.20,44.16,0
42,44.16,44.14,0
44,44.16,44.13,0
43,44.13,44.12,0
42,44.09,44.10,0
42,44.05,44.08,0
43,44.03,44.07,0
44,44.03,44.07,0
43,44.01,44.06,0
44,44.01,44.06,0
44,44.01,44.06,0
43,43.99,44.05,0
42,43.95,44.03,0
44,43.95,44.03,0
44,43.95,44.03,0
43,43.93,44.02,0
44,43.93,44.02,0
42,43.89,44.00,0
44,43.89,44.00,0
44,43.90,44.00,0
44,43.90,44.00,0
44,43.90,44.00,0
44,43.90,44.00,0
46,43.94,44.02,0
44,43.95,44.02,0
46,43.99,44.04,0
43,43.97,44.03,0
43,43.95,44.01,0
44,43.95,44.01,0
44,43.95,44.01,0
44,43.95,44.01,0
44,43.95,44.01,0
45,43.97,44.02,0
44,43.97,44.02,0
43,43.95,44.01,0
42,43.91,43.99,0
44,43.92,43.99,0
44,43.92,43.99,0
44,43.92,43.99,0
43,43.90,43.98,0
44,43.90,43.98,0
44,43.91,43.98,0
43,43.89,43.97,0
44,43.89,43.97,0
43,43.87,43.96,0
44,43.87,43.97,0
44,43.88,43.97,0
44,43.88,43.97,0
42,43.84,43.95,0
44,43.84,43.95,0
44,43.85,43.95,0
46,43.89,43.97,0
44,43.89,43.97,0
44,43.90,43.97,0
42,43.86,43.95,0
46,43.90,43.97,0
44,43.90,43.97,0
43,43.88,43.96,0
44,43.89,43.96,0
42,43.85,43.94,0
44,43.85,43.94,0
43,43.83,43.93,0
44,43.84,43.93,0
42,43.80,43.91,0
44,43.81,43.91,0
43,43.79,43.90,0
44,43.79,43.91,0
45,43.82,43.92,0
44,43.82,43.92,0
44,43.82,43.92,0
47,43.89,43.95,0
44,43.89,43.95,0
45,43.91,43.96,0
44,43.91,43.96,0
46,43.96,43.98,0
45,43.98,43.99,0
44,43.98,43.99,0
45,44.00,44.00,0
44,44.00,44.00,0
47,44.06,44.03,0
44,44.06,44.03,0
43,44.04,44.02,0
45,44.05,44.03,0
44,44.05,44.03,0
44,44.05,44.03,0
43,44.03,44.02,0
44,44.03,44.02,0
44,44.03,44.02,0
44,44.03,44.02,0
43,44.01,44.01,0
45,44.03,44.02,0
44,44.03,44.02,0
47,44.09,44.05,0
42,44.05,44.03,0
45,44.07,44.04,0
44,44.06,44.04,0
42,44.02,44.02,0
44,44.02,44.02,0
44,44.02,44.02,0
44,44.02,44.02,0
44,44.02,44.02,0
43,44.00,44.01,0
44,44.00,44.01,0
46,44.04,44.03,0
44,44.04,44.03,0
42,44.00,44.01,0
44,44.00,44.01,0
43,43.98,44.00,0
40,43.90,43.96,0
44,43.90,43.96,0
44,43.90,43.96,0
44,43.91,43.96,0
42,43.87,43.94,0
44,43.87,43.94,0
44,43.87,43.94,0
46,43.91,43.96,0
42,43.88,43.94,0
44,43.88,43.94,0
44,43.88,43.94,0
44,43.88,43.94,0
44,43.89,43.94,0
44,43.89,43.94,0
44,43.89,43.94,0
43,43.87,43.93,0
42,43.84,43.91,0
44,43.84,43.92,0
45,43.86,43.93,0
44,43.86,43.93,0
44,43.87,43.93,0
44,43.87,43.93,0
45,43.89,43.94,0
42,43.85,43.92,0
44,43.86,43.92,0
44,43.86,43.92,0
44,43.86,43.92,0
42,43.83,43.90,0
44,43.83,43.90,0
44,43.83,43.90,0
43,43.82,43.90,0
42,43.78,43.88,0
44,43.78,43.88,0
44,43.79,43.88,0
43,43.77,43.87,0
44,43.78,43.87,0
45,43.80,43.88,0
44,43.81,43.88,0
43,43.79,43.88,0
46,43.83,43.90,0
44,43.84,43.90,0
43,43.82,43.89,0
44,43.82,43.89,0
42,43.79,43.87,0
44,43.79,43.87,0
43,43.78,43.86,0
43,43.76,43.85,0
47,43.83,43.89,0
42,43.79,43.87,0
45,43.81,43.88,0
42,43.78,43.86,0
44,43.78,43.86,0
44,43.79,43.86,0
44,43.79,43.86,0
46,43.83,43.89,0
45,43.86,43.90,0
43,43.84,43.89,0
43,43.82,43.88,0
45,43.85,43.89,0
44,43.85,43.89,0
44,43.85,43.89,0
43,43.84,43.88,0
43,43.82,43.87,0
44,43.82,43.88,0
44,43.83,43.88,0
43,43.81,43.87,0
44,43.81,43.87,0
43,43.80,43.86,0
44,43.80,43.86,0
43,43.79,43.85,0
47,43.85,43.88,0
44,43.85,43.89,0
42,43.82,43.87,0
43,43.80,43.86,0
44,43.80,43.86,0
44,43.81,43.86,0
44,43.81,43.86,0
43,43.80,43.85,0
43,43.78,43.85,0
44,43.78,43.85,0
42,43.75,43.83,0
42,43.71,43.81,0
44,43.72,43.81,0
46,43.76,43.83,0
43,43.75,43.83,0
42,43.71,43.81,0
44,43.72,43.81,0
43,43.71,43.80,0
43,43.69,43.79,0
42,43.66,43.78,0
45,43.68,43.79,0
44,43.69,43.79,0
44,43.70,43.79,0
46,43.74,43.81,0
47,43.81,43.85,0
44,43.81,43.85,0
44,43.82,43.85,0
44,43.82,43.85,0
44,43.82,43.85,0
47,43.89,43.88,0
42,43.85,43.86,0
44,43.85,43.87,0
43,43.83,43.86,0
44,43.84,43.86,0
42,43.80,43.84,0
44,43.81,43.84,0
44,43.81,43.84,0
44,43.81,43.84,0
42,43.78,43.83,0
44,43.78,43.83,0
44,43.79,43.83,0
43,43.77,43.82,0
42,43.73,43.80,0
46,43.78,43.83,0
45,43.80,43.84,0
41,43.75,43.81,0
42,43.71,43.79,0
44,43.72,43.79,0
44,43.72,43.79,0
43,43.71,43.79,0
44,43.72,43.79,0
42,43.68,43.77,0
43,43.67,43.76,0
42,43.63,43.75,0
42,43.60,43.73,0
44,43.61,43.73,0
43,43.60,43.72,0
42,43.57,43.71,0
46,43.61,43.73,0
44,43.62,43.73,0
43,43.61,43.72,0
44,43.62,43.73,0
44,43.63,43.73,0
44,43.63,43.73,0
44,43.64,43.74,0
44,43.65,43.74,0
44,43.65,43.74,0
43,43.64,43.73,0
42,43.61,43.72,0
42,43.58,43.70,0
44,43.58,43.70,0
44,43.59,43.70,0
43,43.58,43.70,0
46,43.63,43.72,0
44,43.64,43.72,0
45,43.66,43.74,0
44,43.67,43.74,0
44,43.68,43.74,0
42,43.64,43.72,0
44,43.65,43.73,0
43,43.64,43.72,0
46,43.69,43.74,0
44,43.69,43.75,0
42,43.66,43.73,0
44,43.66,43.73,0
45,43.69,43.74,0
46,43.74,43.77,0
44,43.74,43.77,0
43,43.73,43.76,0
47,43.79,43.79,0
44,43.80,43.79,0
44,43.80,43.80,0
46,43.85,43.82,0
45,43.87,43.83,0
45,43.89,43.84,0
44,43.89,43.84,0
44,43.90,43.85,0
45,43.92,43.86,0
44,43.92,43.86,0
43,43.90,43.85,0
47,43.96,43.88,0
45,43.98,43.89,0
44,43.98,43.89,0
44,43.98,43.89,0
44,43.98,43.90,0
45,44.00,43.91,0
44,44.00,43.91,0
45,44.02,43.92,0
45,44.04,43.93,0
45,44.06,43.94,0
44,44.06,43.94,0
44,44.06,43.94,0
46,44.10,43.96,0
45,44.12,43.97,0
44,44.12,43.97,0
45,44.13,43.98,0
44,44.13,43.98,0
44,44.13,43.98,0
44,44.13,43.98,0
42,44.08,43.96,0
44,44.08,43.96,0
45,44.10,43.97,0
43,44.08,43.96,0
44,44.08,43.96,0
44,44.07,43.97,0
43,44.05,43.96,0
43,44.03,43.95,0
46,44.07,43.97,0
46,44.11,43.99,0
44,44.11,43.99,0
42,44.07,43.97,0
46,44.10,43.99,0
45,44.12,44.00,0
44,44.12,44.00,0
42,44.08,43.98,0
45,44.10,43.99,0
43,44.07,43.98,0
43,44.05,43.97,0
44,44.05,43.97,0
44,44.05,43.97,0
44,44.05,43.97,0
44,44.05,43.97,0
44,44.05,43.97,0
44,44.05,43.97,0
47,44.11,44.00,0
43,44.08,43.99,0
44,44.08,43.99,0
44,44.08,43.99,0
43,44.06,43.98,0
44,44.06,43.98,0
44,44.06,43.98,0
44,44.05,43.98,0
43,44.03,43.97,0
42,43.99,43.95,0
42,43.95,43.93,0
44,43.95,43.93,0
43,43.94,43.92,0
44,43.94,43.92,0
44,43.94,43.93,0
46,43.98,43.95,0
41,43.92,43.92,0
44,43.92,43.92,0
45,43.94,43.93,0
44,43.94,43.93,0
43,43.92,43.92,0
44,43.93,43.92,0
45,43.95,43.93,0
44,43.95,43.93,0
46,43.99,43.95,0
44,43.99,43.95,0
44,43.99,43.95,0
44,43.99,43.95,0
44,43.99,43.95,0
46,44.03,43.97,0
44,44.03,43.97,0
44,44.03,43.98,0
44,44.03,43.98,0
44,44.03,43.98,0
42,43.99,43.96,0
45,44.01,43.97,0
44,44.01,43.97,0
46,44.05,43.99,0
44,44.05,43.99,0
44,44.05,43.99,0
47,44.11,44.02,0
47,44.16,44.05,0
44,44.16,44.05,0
46,44.20,44.07,0
46,44.23,44.09,0
45,44.25,44.09,0
46,44.28,44.11,0
47,44.34,44.14,0
47,44.39,44.17,0
49,44.48,44.22,0
49,44.57,44.27,0
46,44.60,44.28,0
48,44.67,44.32,0
46,44.70,44.34,0
46,44.72,44.36,0
46,44.75,44.37,0
45,44.75,44.38,0
46,44.78,44.39,0
45,44.78,44.40,0
46,44.81,44.42,0
45,44.81,44.42,0
47,44.85,44.45,0
46,44.88,44.46,0
46,44.90,44.48,0
45,44.90,44.48,0
46,44.92,44.50,0
46,44.95,44.51,0
46,44.97,44.53,0
47,45.01,44.55,0
47,45.05,44.58,0
47,45.09,44.60,0
46,45.10,44.62,0
47,45.14,44.64,0
46,45.16,44.65,0
46,45.18,44.67,0
46,45.19,44.68,0
46,45.21,44.69,0
46,45.22,44.71,0
46,45.24,44.72,0
46,45.26,44.73,0
47,45.29,44.76,0
46,45.30,44.77,0
46,45.32,44.78,0
46,45.33,44.79,0
47,45.37,44.81,0
46,45.38,44.83,0
46,45.39,44.84,0
46,45.40,44.85,0
46,45.41,44.86,0
46,45.43,44.87,0
46,45.44,44.88,0
46,45.45,44.89,0
46,45.46,44.91,0
46,45.47,44.92,0
46,45.48,44.93,0
46,45.49,44.94,0
46,45.50,44.95,0
46,45.51,44.96,0
46,45.52,44.97,0
46,45.53,44.98,0
46,45.54,44.99,0
46,45.55,45.00,0
46,45.56,45.01,0
44,45.53,45.00,0
46,45.54,45.01,0
46,45.55,45.02,0
46,45.56,45.03,0
46,45.56,45.04,0
45,45.55,45.04,0
44,45.52,45.03,0
44,45.49,45.02,0
47,45.52,45.04,0
47,45.55,45.06,0
46,45.56,45.07,0
46,45.57,45.08,0
51,45.68,45.14,0
46,45.68,45.14,0
44,45.65,45.13,0
46,45.66,45.14,0
46,45.66,45.15,0
47,45.69,45.17,0
46,45.70,45.18,0
46,45.70,45.19,0
46,45.71,45.19,0
46,45.71,45.20,0
47,45.74,45.22,0
46,45.75,45.23,0
45,45.73,45.23,0
46,45.74,45.23,0
46,45.74,45.24,0
46,45.75,45.25,0
44,45.71,45.24,0
46,45.72,45.24,0
45,45.70,45.24,0
45,45.69,45.24,0
45,45.68,45.24,0
44,45.64,45.22,0
45,45.63,45.22,0
46,45.64,45.23,0
45,45.62,45.23,0
45,45.61,45.22,0
45,45.60,45.22,0
44,45.57,45.21,0
44,45.54,45.20,0
46,45.54,45.21,0
45,45.53,45.20,0
45,45.52,45.20,0
45,45.51,45.20,0
45,45.50,45.20,0
45,45.49,45.20,0
44,45.46,45.18,0
45,45.45,45.18,0
46,45.46,45.19,0
46,45.48,45.20,0
45,45.47,45.20,0
45,45.46,45.19,0
45,45.45,45.19,0
44,45.42,45.18,0
44,45.39,45.17,0
44,45.36,45.16,0
45,45.35,45.16,0
46,45.37,45.16,0
46,45.38,45.17,0
46,45.39,45.18,0
45,45.38,45.18,0
49,45.46,45.22,0
47,45.49,45.24,0
46,45.50,45.24,0
47,45.53,45.26,0
44,45.50,45.25,0
46,45.51,45.26,0
46,45.52,45.26,0
46,45.53,45.27,0
45,45.52,45.27,0
46,45.53,45.27,0
46,45.54,45.28,0
47,45.57,45.30,0
45,45.55,45.30,0
44,45.52,45.28,0
46,45.53,45.29,0
45,45.52,45.29,0
45,45.51,45.28,0
44,45.48,45.27,0
44,45.45,45.26,0
46,45.46,45.27,0
46,45.47,45.27,0
46,45.48,45.28,0
44,45.45,45.27,0
45,45.44,45.27,0
44,45.42,45.25,0
44,45.39,45.24,0
45,45.38,45.24,0
45,45.37,45.24,0
44,45.34,45.22,0
44,45.32,45.21,0
46,45.33,45.22,0
44,45.31,45.21,0
45,45.30,45.20,0
45,45.29,45.20,0
44,45.27,45.19,0
46,45.28,45.20,0
46,45.30,45.21,0
44,45.27,45.19,0
44,45.24,45.18,0
46,45.26,45.19,0
46,45.27,45.20,0
46,45.29,45.21,0
47,45.32,45.22,0
47,45.36,45.24,0
46,45.37,45.25,0
44,45.34,45.24,0
46,45.36,45.25,0
44,45.33,45.23,0
44,45.30,45.22,0
46,45.32,45.23,0
46,45.33,45.24,0
45,45.32,45.23,0
46,45.34,45.24,0
46,45.35,45.25,0
45,45.34,45.25,0
45,45.34,45.24,0
44,45.31,45.23,0
45,45.30,45.23,0
45,45.30,45.23,0
45,45.29,45.22,0
44,45.27,45.21,0
46,45.28,45.22,0
45,45.27,45.22,0
46,45.29,45.23,0
46,45.30,45.23,0
50,45.40,45.28,0
45,45.39,45.28,0
46,45.40,45.29,0
45,45.39,45.28,0
46,45.41,45.29,0
45,45.40,45.29,0
46,45.41,45.29,0
49,45.48,45.33,0
46,45.49,45.34,0
45,45.48,45.33,0
48,45.53,45.36,0
47,45.56,45.38,0
46,45.57,45.38,0
46,45.58,45.39,0
47,45.61,45.41,0
45,45.60,45.40,0
43,45.54,45.38,0
45,45.53,45.37,0
48,45.58,45.40,0
45,45.57,45.40,0
45,45.56,45.39,0
46,45.57,45.40,0
46,45.58,45.40,0
47,45.60,45.42,0
46,45.61,45.43,0
46,45.62,45.43,0
47,45.65,45.45,0
47,45.67,45.46,0
47,45.70,45.48,0
46,45.71,45.48,0
45,45.69,45.48,0
46,45.70,45.48,0
46,45.71,45.49,0
46,45.71,45.49,0
47,45.74,45.51,0
46,45.74,45.51,0
46,45.75,45.52,0
46,45.75,45.52,0
45,45.74,45.52,0
46,45.74,45.52,0
46,45.75,45.53,0
46,45.75,45.53,0
45,45.74,45.53,0
46,45.74,45.53,0
46,45.75,45.54,0
46,45.75,45.54,0
45,45.74,45.54,0
46,45.74,45.54,0
46,45.75,45.55,0
46,45.75,45.55,0
45,45.74,45.54,0
46,45.74,45.55,0
46,45.75,45.55,0
46,45.75,45.56,0
46,45.76,45.56,0
46,45.76,45.57,0
46,45.77,45.57,0
47,45.79,45.59,0
46,45.80,45.59,0
46,45.80,45.59,0
46,45.81,45.60,0
46,45.81,45.60,0
45,45.79,45.60,0
46,45.80,45.60,0
46,45.80,45.60,0
46,45.81,45.61,0
47,45.83,45.62,0
46,45.83,45.63,0
46,45.84,45.63,0
46,45.84,45.63,0
46,45.84,45.64,0
46,45.85,45.64,0
46,45.85,45.64,0
46,45.85,45.65,0
48,45.89,45.67,0
45,45.88,45.66,0
46,45.88,45.67,0
45,45.86,45.66,0
48,45.90,45.68,0
46,45.91,45.69,0
46,45.91,45.69,0
46,45.91,45.69,0
46,45.91,45.70,0
45,45.89,45.69,0
45,45.88,45.68,0
46,45.88,45.69,0
46,45.88,45.69,0
46,45.88,45.69,0
48,45.93,45.72,0
45,45.91,45.71,0
48,45.95,45.73,0
47,45.97,45.74,0
46,45.97,45.75,0
45,45.95,45.74,0
46,45.95,45.74,0
46,45.95,45.74,0
46,45.95,45.75,0
45,45.93,45.74,0
46,45.94,45.74,0
45,45.92,45.73,0
46,45.92,45.74,0
45,45.90,45.73,0
45,45.88,45.72,0
46,45.88,45.73,0
46,45.89,45.73,0
45,45.87,45.72,0
46,45.87,45.72,0
50,45.95,45.77,0
46,45.96,45.77,0
45,45.94,45.76,0
46,45.94,45.76,0
45,45.92,45.76,0
46,45.92,45.76,0
47,45.94,45.77,0
46,45.94,45.77,0
54,46.10,45.86,0
48,46.14,45.88,0
46,46.14,45.88,0
47,46.16,45.89,0
47,46.17,45.90,0
46,46.17,45.90,0
47,46.19,45.91,0
45,46.16,45.90,0
46,46.16,45.90,0
46,46.16,45.90,0
46,46.15,45.91,0
46,46.15,45.91,0
46,46.15,45.91,0
46,46.14,45.91,0
47,46.16,45.92,0
45,46.14,45.91,0
43,46.08,45.88,0
47,46.09,45.89,0
46,46.09,45.89,0
46,46.09,45.89,0
46,46.09,45.90,0
46,46.09,45.90,0
46,46.08,45.90,0
47,46.10,45.91,0
47,46.12,45.92,0
46,46.12,45.92,0
46,46.12,45.92,0
46,46.11,45.92,0
46,46.11,45.92,0
46,46.11,45.92,0
46,46.11,45.92,0
46,46.11,45.93,0
45,46.08,45.92,0
46,46.08,45.92,0
46,46.08,45.92,0
46,46.08,45.92,0
46,46.08,45.92,0
46,46.08,45.92,0
46,46.07,45.92,0
46,46.07,45.92,0
46,46.07,45.92,0
46,46.07,45.92,0
46,46.07,45.92,0
45,46.05,45.91,0
46,46.05,45.92,0
45,46.02,45.91,0
47,46.04,45.92,0
47,46.06,45.93,0
46,46.06,45.93,0
50,46.14,45.97,0
47,46.16,45.98,0
45,46.13,45.97,0
46,46.13,45.97,0
46,46.13,45.97,0
47,46.15,45.98,0
48,46.18,46.00,0
46,46.18,46.00,0
46,46.18,46.00,0
47,46.19,46.01,0
48,46.23,46.03,0
48,46.26,46.05,0
46,46.26,46.05,0
47,46.27,46.06,0
47,46.29,46.07,0
46,46.28,46.07,0
46,46.28,46.07,0
47,46.29,46.08,0
48,46.33,46.10,0
48,46.36,46.12,0
46,46.35,46.11,0
47,46.37,46.12,0
46,46.36,46.12,0
46,46.35,46.12,0
47,46.36,46.13,0
47,46.38,46.14,0
46,46.37,46.14,0
48,46.40,46.16,0
47,46.41,46.16,0
46,46.41,46.16,0
46,46.40,46.16,0
48,46.43,46.18,0
46,46.42,46.18,0
47,46.43,46.19,0
46,46.42,46.18,0
46,46.42,46.18,0
46,46.41,46.18,0
47,46.42,46.19,0
46,46.41,46.19,0
50,46.48,46.22,0
50,46.55,46.26,0
47,46.56,46.27,0
47,46.57,46.28,0
49,46.62,46.30,0
47,46.63,46.31,0
47,46.63,46.32,0
47,46.64,46.32,0
47,46.65,46.33,0
46,46.64,46.33,0
47,46.64,46.33,0
47,46.65,46.34,0
47,46.66,46.35,0
47,46.66,46.35,0
47,46.67,46.36,0
47,46.68,46.37,0
47,46.68,46.37,0
47,46.69,46.38,0
47,46.70,46.39,0
48,46.72,46.40,0
48,46.75,46.42,0
48,46.77,46.43,0
47,46.78,46.44,0
47,46.78,46.45,0
48,46.81,46.46,0
47,46.81,46.47,0
47,46.81,46.47,0
49,46.86,46.50,0
47,46.86,46.50,0
46,46.84,46.50,0
46,46.83,46.49,0
45,46.79,46.48,0
47,46.79,46.48,0
46,46.78,46.48,0
46,46.76,46.47,0
47,46.77,46.48,0
47,46.77,46.48,0
46,46.76,46.48,0
46,46.74,46.47,0
47,46.75,46.48,0
46,46.73,46.47,0
47,46.74,46.48,0
45,46.70,46.46,0
46,46.69,46.46,0
50,46.75,46.50,0
46,46.74,46.49,0
47,46.74,46.50,0
48,46.77,46.51,0
47,46.77,46.52,0
46,46.76,46.51,0
46,46.74,46.51,0
47,46.75,46.51,0
46,46.73,46.51,0
46,46.72,46.50,0
47,46.72,46.50,0
47,46.73,46.51,0
48,46.76,46.52,0
46,46.74,46.52,0
47,46.75,46.52,0
48,46.77,46.54,0
48,46.80,46.55,0
46,46.78,46.55,0
48,46.80,46.56,0
48,46.83,46.58,0
48,46.85,46.59,0
50,46.91,46.63,0
47,46.92,46.63,0
48,46.94,46.64,0
46,46.92,46.64,0
46,46.90,46.63,0
49,46.94,46.65,0
47,46.94,46.66,0
48,46.96,46.67,0
48,46.99,46.68,0
47,46.99,46.69,0
47,46.99,46.69,0
46,46.97,46.68,0
46,46.95,46.68,0
46,46.93,46.67,0
48,46.95,46.68,0
46,46.93,46.68,0
47,46.93,46.68,0
47,46.93,46.68,0
47,46.93,46.69,0
46,46.92,46.68,0
46,46.90,46.67,0
48,46.92,46.69,0
47,46.92,46.69,0
46,46.90,46.68,0
47,46.90,46.68,0
46,46.89,46.68,0
47,46.89,46.68,0
47,46.89,46.68,0
46,46.87,46.68,0
47,46.88,46.68,0
48,46.90,46.69,0
49,46.94,46.72,0
48,46.96,46.73,0
47,46.96,46.73,0
47,46.96,46.74,0
47,46.96,46.74,0
46,46.94,46.73,0
48,46.97,46.74,0
48,46.99,46.76,0
47,46.99,46.76,0
48,47.01,46.77,0
47,47.01,46.77,0
50,47.07,46.81,0
49,47.11,46.83,0
49,47.14,46.85,0
49,47.18,46.87,0
48,47.20,46.88,0
48,47.21,46.89,0
48,47.23,46.90,0
48,47.24,46.91,0
49,47.28,46.94,0
48,47.29,46.95,0
47,47.29,46.95,0
47,47.28,46.95,0
50,47.34,46.98,0
50,47.39,47.01,0
47,47.38,47.01,0
47,47.37,47.01,0
47,47.37,47.01,0
48,47.38,47.02,0
48,47.39,47.03,0
48,47.40,47.04,0
47,47.40,47.04,0
47,47.39,47.04,0
48,47.40,47.05,0
46,47.37,47.04,0
47,47.36,47.04,0
48,47.38,47.05,0
47,47.37,47.04,0
47,47.36,47.04,0
48,47.38,47.05,0
48,47.39,47.06,0
47,47.38,47.06,0
46,47.35,47.05,0
48,47.37,47.06,0
49,47.40,47.08,0
48,47.41,47.09,0
49,47.44,47.11,0
47,47.43,47.11,0
47,47.42,47.11,0
46,47.40,47.10,0
46,47.37,47.09,0
48,47.38,47.09,0
48,47.39,47.10,0
46,47.37,47.09,0
47,47.36,47.09,0
47,47.35,47.09,0
47,47.34,47.09,0
48,47.36,47.10,0
46,47.33,47.09,0
47,47.32,47.09,0
46,47.30,47.08,0
46,47.27,47.07,0
44,47.21,47.03,0
47,47.20,47.03,0
46,47.18,47.02,0
46,47.15,47.01,0
46,47.13,47.00,0
46,47.11,46.99,0
46,47.09,46.98,0
46,47.06,46.97,0
46,47.04,46.96,0
46,47.02,46.95,0
46,47.00,46.94,0
46,46.98,46.94,0
46,46.96,46.93,0
46,46.94,46.92,0
46,46.92,46.91,0
48,46.95,46.92,0
47,46.95,46.92,0
46,46.93,46.91,0
46,46.91,46.90,0
46,46.89,46.89,0
46,46.87,46.88,0
46,46.86,46.87,0
46,46.84,46.87,0
46,46.82,46.86,0
46,46.81,46.85,0
46,46.79,46.84,0
46,46.77,46.83,0
47,46.78,46.83,0
47,46.78,46.83,0
47,46.79,46.84,0
46,46.77,46.83,0
47,46.78,46.83,0
46,46.76,46.82,0
48,46.78,46.83,0
46,46.77,46.82,0
46,46.75,46.82,0
45,46.72,46.80,0
46,46.70,46.79,0
46,46.69,46.78,0
46,46.68,46.77,0
46,46.66,46.77,0
46,46.65,46.76,0
49,46.70,46.78,0
46,46.68,46.77,0
47,46.69,46.78,0
46,46.68,46.77,0
46,46.66,46.76,0
45,46.63,46.74,0
49,46.68,46.77,0
50,46.74,46.80,0
47,46.75,46.80,0
47,46.75,46.80,0
47,46.76,46.80,0
46,46.74,46.80,0
46,46.73,46.79,0
46,46.71,46.78,0
46,46.70,46.77,0
46,46.68,46.76,0
47,46.69,46.77,0
46,46.68,46.76,0
46,46.66,46.75,0
47,46.67,46.75,0
48,46.70,46.77,0
46,46.68,46.76,0
46,46.67,46.75,0
47,46.68,46.75,0
46,46.66,46.75,0
47,46.67,46.75,0
46,46.66,46.74,0
47,46.66,46.74,0
46,46.65,46.74,0
46,46.64,46.73,0
44,46.58,46.70,0
46,46.57,46.69,0
46,46.56,46.69,0
46,46.55,46.68,0
46,46.54,46.67,0
45,46.51,46.66,0
45,46.48,46.64,0
46,46.47,46.63,0
46,46.46,46.63,0
46,46.45,46.62,0
46,46.44,46.62,0
46,46.43,46.61,0
46,46.42,46.60,0
45,46.39,46.59,0
46,46.39,46.58,0
46,46.38,46.58,0
46,46.37,46.57,0
49,46.42,46.59,0
47,46.44,46.60,0
46,46.43,46.59,0
47,46.44,46.60,0
49,46.49,46.62,0
46,46.48,46.61,0
46,46.47,46.61,0
47,46.48,46.61,0
47,46.49,46.62,0
46,46.48,46.61,0
49,46.53,46.63,0
47,46.54,46.64,0
47,46.55,46.64,0
46,46.54,46.63,0
46,46.53,46.63,0
46,46.52,46.62,0
47,46.53,46.63,0
46,46.52,46.62,0
46,46.51,46.61,0
46,46.50,46.61,0
46,46.49,46.60,0
45,46.46,46.58,0
46,46.45,46.58,0
46,46.44,46.57,0
46,46.43,46.57,0
44,46.38,46.54,0
42,46.29,46.50,0
46,46.29,46.49,0
45,46.26,46.48,0
46,46.26,46.47,0
44,46.21,46.45,0
46,46.21,46.44,0
47,46.22,46.45,0
46,46.22,46.44,0
44,46.17,46.42,0
47,46.19,46.43,0
46,46.19,46.42,0
46,46.18,46.42,0
45,46.16,46.40,0
46,46.16,46.40,0
47,46.17,46.40,0
48,46.21,46.42,0
46,46.21,46.42,0
45,46.18,46.40,0
46,46.18,46.40,0
46,46.17,46.39,0
46,46.17,46.39,0
45,46.15,46.38,0
46,46.14,46.37,0
46,46.14,46.37,0
46,46.14,46.37,0
45,46.12,46.35,0
46,46.11,46.35,0
45,46.09,46.33,0
45,46.07,46.32,0
45,46.05,46.31,0
47,46.07,46.31,0
47,46.09,46.32,0
45,46.06,46.31,0
46,46.06,46.31,0
45,46.04,46.29,0
46,46.04,46.29,0
45,46.02,46.28,0
45,46.00,46.26,0
45,45.98,46.25,0
46,45.98,46.25,0
44,45.94,46.23,0
45,45.92,46.21,0
47,45.94,46.22,0
45,45.92,46.21,0
44,45.89,46.19,0
45,45.87,46.18,0
45,45.85,46.16,0
46,45.85,46.16,0
44,45.82,46.14,0
44,45.78,46.12,0
45,45.76,46.11,0
46,45.77,46.11,0
44,45.73,46.09,0
44,45.70,46.06,0
44,45.67,46.04,0
44,45.63,46.02,0
44,45.60,46.00,0
44,45.57,45.98,0
44,45.54,45.96,0
44,45.51,45.94,0
44,45.48,45.92,0
44,45.45,45.91,0
44,45.42,45.89,0
45,45.41,45.88,0
44,45.38,45.86,0
44,45.35,45.84,0
45,45.35,45.83,0
44,45.32,45.81,0
46,45.33,45.82,0
44,45.31,45.80,0
45,45.30,45.79,0
46,45.31,45.79,0
43,45.27,45.76,0
44,45.24,45.75,0
44,45.22,45.73,0
45,45.21,45.72,0
44,45.19,45.70,0
44,45.16,45.69,0
44,45.14,45.67,0
44,45.12,45.65,0
44,45.10,45.64,0
45,45.09,45.63,0
44,45.07,45.61,0
44,45.05,45.60,0
44,45.03,45.58,0
46,45.05,45.59,0
45,45.05,45.58,0
46,45.07,45.58,0
44,45.05,45.57,0
46,45.07,45.57,0
45,45.06,45.57,0
46,45.08,45.57,0
44,45.06,45.56,0
44,45.04,45.54,0
44,45.02,45.52,0
46,45.04,45.53,0
44,45.02,45.51,0
46,45.04,45.52,0
44,45.02,45.50,0
44,45.00,45.49,0
44,44.98,45.47,0
44,44.96,45.46,0
44,44.94,45.44,0
44,44.92,45.43,0
46,44.94,45.44,0
44,44.92,45.42,0
44,44.90,45.41,0
44,44.89,45.39,0
44,44.87,45.38,0
45,44.87,45.38,0
44,44.85,45.36,0
44,44.84,45.35,0
44,44.82,45.33,0
43,44.78,45.31,0
44,44.77,45.30,0
39,44.65,45.24,0
44,44.64,45.22,0
44,44.63,45.21,0
44,44.61,45.20,0
44,44.60,45.19,0
44,44.59,45.17,0
44,44.58,45.16,0
44,44.57,45.15,0
44,44.55,45.14,0
44,44.54,45.13,0
43,44.51,45.11,0
43,44.48,45.09,0
44,44.47,45.08,0
44,44.46,45.06,0
44,44.45,45.05,0
46,44.48,45.06,0
44,44.48,45.05,0
44,44.47,45.04,0
43,44.44,45.02,0
45,44.45,45.02,0
44,44.44,45.01,0
44,44.43,45.00,0
43,44.40,44.98,0
44,44.39,44.97,0
44,44.39,44.96,0
44,44.38,44.95,0
44,44.37,44.94,0
46,44.40,44.95,0
46,44.43,44.96,0
44,44.43,44.95,0
44,44.42,44.94,0
44,44.41,44.93,0
44,44.40,44.93,0
44,44.39,44.92,0
43,44.37,44.90,0
45,44.38,44.90,0
44,44.37,44.89,0
43,44.34,44.87,0
46,44.38,44.88,0
45,44.39,44.88,0
44,44.38,44.87,0
44,44.37,44.87,0
44,44.37,44.86,0
45,44.38,44.86,0
44,44.37,44.85,0
44,44.36,44.84,0
42,44.32,44.81,0
45,44.33,44.81,0
44,44.32,44.81,0
43,44.30,44.79,0
44,44.29,44.78,0
44,44.28,44.77,0
44,44.28,44.76,0
43,44.25,44.75,0
44,44.25,44.74,0
45,44.26,44.74,0
46,44.30,44.75,0
44,44.29,44.75,0
44,44.29,44.74,0
44,44.28,44.73,0
44,44.28,44.73,0
44,44.27,44.72,0
44,44.26,44.71,0
44,44.26,44.70,0
43,44.23,44.69,0
46,44.27,44.70,0
44,44.26,44.69,0
44,44.26,44.69,0
43,44.23,44.67,0
44,44.23,44.66,0
44,44.22,44.66,0
44,44.22,44.65,0
44,44.22,44.64,0
42,44.17,44.62,0
44,44.17,44.61,0
44,44.16,44.60,0
43,44.14,44.59,0
44,44.14,44.58,0
44,44.14,44.58,0
43,44.11,44.56,0
44,44.11,44.55,0
44,44.11,44.55,0
44,44.11,44.54,0
43,44.08,44.53,0
44,44.08,44.52,0
44,44.08,44.52,0
44,44.08,44.51,0
45,44.10,44.52,0
44,44.10,44.51,0
45,44.11,44.52,0
44,44.11,44.51,0
44,44.11,44.51,0
44,44.11,44.50,0
44,44.10,44.50,0
45,44.12,44.50,0
45,44.14,44.51,0
44,44.14,44.50,0
46,44.17,44.52,0
44,44.17,44.51,0
44,44.17,44.51,0
44,44.16,44.50,0
44,44.16,44.50,0
44,44.16,44.49,0
44,44.15,44.49,0
45,44.17,44.49,0
46,44.21,44.51,0
47,44.26,44.53,0
45,44.28,44.54,0
45,44.29,44.54,0
46,44.33,44.56,0
46,44.36,44.57,0
46,44.39,44.58,0
45,44.41,44.59,0
44,44.40,44.58,0
45,44.41,44.59,0
45,44.42,44.59,0
45,44.43,44.59,0
44,44.42,44.59,0
44,44.42,44.58,0
44,44.41,44.58,0
44,44.40,44.57,0
44,44.39,44.57,0
46,44.42,44.58,0
46,44.46,44.59,0
44,44.45,44.59,0
44,44.44,44.58,0
44,44.43,44.58,0
44,44.42,44.57,0
45,44.43,44.58,0
44,44.42,44.57,0
45,44.43,44.57,0
46,44.47,44.59,0
46,44.50,44.60,0
46,44.53,44.62,0
44,44.52,44.61,0
44,44.51,44.60,0
44,44.50,44.60,0
44,44.49,44.59,0
46,44.52,44.61,0
47,44.57,44.63,0
46,44.59,44.64,0
46,44.62,44.66,0
51,44.75,44.72,0
47,44.79,44.74,0
47,44.84,44.77,0
46,44.86,44.78,0
46,44.88,44.79,0
47,44.93,44.81,0
48,44.99,44.84,0
46,45.01,44.86,0
44,44.99,44.85,0
46,45.01,44.86,0
46,45.03,44.87,0
46,45.05,44.88,0
46,45.07,44.89,0
46,45.09,44.90,0
46,45.10,44.91,0
46,45.12,44.93,0
46,45.14,44.94,0
47,45.18,44.96,0
46,45.19,44.97,0
44,45.17,44.96,0
46,45.19,44.97,0
46,45.20,44.98,0
46,45.22,44.99,0
46,45.23,45.00,0
46,45.25,45.01,0
45,45.24,45.01,0
48,45.30,45.04,0
46,45.31,45.05,0
46,45.33,45.06,0
46,45.34,45.07,0
46,45.35,45.08,0
46,45.37,45.09,0
46,45.38,45.09,0
45,45.37,45.09,0
44,45.34,45.08,0
46,45.36,45.09,0
47,45.39,45.11,0
45,45.38,45.11,0
44,45.35,45.10,0
44,45.33,45.09,0
46,45.34,45.10,0
47,45.37,45.12,0
44,45.35,45.11,0
44,45.32,45.09,0
46,45.33,45.10,0
45,45.33,45.10,0
44,45.30,45.09,0
45,45.29,45.09,0
46,45.31,45.10,0
47,45.34,45.12,0
46,45.36,45.13,0
45,45.35,45.13,0
47,45.38,45.14,0
46,45.39,45.15,0
46,45.41,45.16,0
46,45.42,45.17,0
46,45.43,45.18,0
46,45.44,45.19,0
46,45.45,45.19,0
46,45.46,45.20,0
45,45.45,45.20,0
46,45.46,45.21,0
46,45.48,45.22,0
46,45.49,45.22,0
46,45.50,45.23,0
46,45.51,45.24,0
47,45.54,45.26,0
46,45.55,45.26,0
47,45.57,45.28,0
48,45.62,45.31,0
45,45.61,45.31,0
45,45.60,45.30,0
50,45.69,45.35,0
46,45.69,45.36,0
47,45.72,45.37,0
44,45.68,45.36,0
46,45.69,45.37,0
48,45.74,45.39,0
45,45.72,45.39,0
45,45.71,45.38,0
45,45.69,45.38,0
45,45.68,45.38,0
46,45.69,45.38,0
45,45.67,45.38,0
45,45.66,45.38,0
48,45.71,45.40,0
47,45.73,45.42,0
44,45.70,45.40,0
43,45.64,45.38,0
45,45.63,45.38,0
46,45.64,45.38,0
44,45.60,45.37,0
45,45.59,45.36,0
45,45.58,45.36,0
46,45.59,45.37,0
44,45.56,45.35,0
46,45.57,45.36,0
45,45.56,45.36,0
46,45.56,45.36,0
46,45.57,45.37,0
44,45.54,45.36,0
45,45.53,45.35,0
45,45.52,45.35,0
44,45.49,45.33,0
44,45.46,45.32,0
45,45.45,45.32,0
45,45.44,45.32,0
45,45.43,45.31,0
44,45.40,45.30,0
44,45.38,45.29,0
44,45.35,45.27,0
45,45.34,45.27,0
44,45.31,45.26,0
45,45.31,45.25,0
43,45.26,45.23,0
44,45.24,45.22,0
44,45.21,45.21,0
45,45.21,45.21,0
44,45.18,45.19,0
44,45.16,45.18,0
44,45.14,45.17,0
44,45.11,45.16,0
46,45.13,45.17,0
44,45.11,45.16,0
46,45.13,45.16,0
45,45.12,45.16,0
45,45.12,45.16,0
44,45.10,45.15,0
44,45.08,45.14,0
45,45.08,45.14,0
43,45.03,45.11,0
45,45.03,45.11,0
45,45.03,45.11,0
47,45.07,45.13,0
44,45.05,45.12,0
46,45.07,45.13,0
44,45.05,45.12,0
44,45.03,45.11,0
44,45.01,45.09,0
44,44.99,45.08,0
46,45.01,45.09,0
45,45.01,45.09,0
44,44.99,45.08,0
44,44.97,45.07,0
45,44.97,45.07,0
44,44.95,45.06,0
46,44.97,45.07,0
44,44.95,45.06,0
45,44.95,45.06,0
44,44.93,45.05,0
45,44.93,45.05,0
44,44.91,45.04,0
45,44.92,45.04,0
43,44.88,45.02,0
44,44.86,45.00,0
44,44.84,44.99,0
44,44.83,44.98,0
44,44.81,44.98,0
46,44.83,44.99,0
46,44.86,45.00,0
45,44.86,45.00,0
46,44.88,45.01,0
48,44.95,45.04,0
46,44.97,45.05,0
46,44.99,45.05,0
47,45.03,45.07,0
45,45.03,45.07,0
46,45.05,45.08,0
45,45.05,45.08,0
45,45.04,45.08,0
45,45.04,45.08,0
45,45.04,45.08,0
46,45.06,45.09,0
46,45.08,45.10,0
46,45.10,45.11,0
44,45.08,45.10,0
46,45.10,45.10,0
48,45.15,45.13,0
45,45.15,45.13,0
46,45.17,45.14,0
45,45.16,45.14,0
44,45.14,45.13,0
46,45.16,45.14,0
45,45.15,45.14,0
44,45.13,45.12,0
45,45.13,45.12,0
45,45.13,45.12,0
46,45.14,45.13,0
44,45.12,45.12,0
45,45.12,45.12,0
45,45.12,45.12,0
44,45.09,45.11,0
46,45.11,45.11,0
45,45.11,45.11,0
45,45.11,45.11,0
47,45.15,45.13,0
45,45.14,45.13,0
45,45.14,45.13,0
45,45.14,45.13,0
44,45.11,45.12,0
44,45.09,45.10,0
44,45.07,45.09,0
44,45.05,45.08,0
43,45.01,45.06,0
44,44.99,45.05,0
45,44.99,45.05,0
46,45.01,45.06,0
44,44.99,45.05,0
44,44.97,45.04,0
45,44.97,45.04,0
46,44.99,45.05,0
44,44.97,45.04,0
46,44.99,45.05,0
47,45.03,45.07,0
46,45.05,45.08,0
44,45.03,45.07,0
46,45.05,45.08,0
46,45.07,45.08,0
46,45.09,45.09,0
44,45.06,45.08,0
46,45.08,45.09,0
45,45.08,45.09,0
48,45.14,45.12,0
46,45.16,45.13,0
47,45.19,45.15,0
47,45.23,45.17,0
46,45.25,45.17,0
46,45.26,45.18,0
45,45.26,45.18,0
46,45.27,45.19,0
46,45.28,45.20,0
44,45.26,45.19,0
46,45.27,45.19,0
46,45.29,45.20,0
46,45.30,45.21,0
46,45.32,45.22,0
46,45.33,45.22,0
47,45.36,45.24,0
46,45.38,45.25,0
44,45.35,45.24,0
46,45.36,45.25,0
44,45.33,45.23,0
46,45.35,45.24,0
46,45.36,45.25,0
46,45.37,45.26,0
45,45.37,45.25,0
44,45.34,45.24,0
45,45.33,45.24,0
46,45.35,45.25,0
46,45.36,45.25,0
44,45.33,45.24,0
45,45.32,45.24,0
45,45.32,45.24,0
44,45.29,45.22,0
44,45.27,45.21,0
46,45.28,45.22,0
47,45.32,45.24,0
46,45.33,45.24,0
47,45.36,45.26,0
46,45.37,45.27,0
46,45.39,45.28,0
46,45.40,45.28,0
46,45.41,45.29,0
46,45.42,45.30,0
45,45.42,45.30,0
45,45.41,45.29,0
45,45.40,45.29,0
46,45.41,45.30,0
45,45.40,45.29,0
46,45.41,45.30,0
45,45.41,45.30,0
44,45.38,45.28,0
45,45.37,45.28,0
45,45.36,45.28,0
45,45.36,45.28,0
46,45.37,45.28,0
45,45.36,45.28,0
44,45.33,45.27,0
44,45.31,45.26,0
45,45.30,45.25,0
44,45.28,45.24,0
47,45.31,45.26,0
45,45.30,45.26,0
45,45.30,45.25,0
43,45.25,45.23,0
47,45.29,45.25,0
45,45.28,45.25,0
44,45.26,45.23,0
46,45.27,45.24,0
48,45.32,45.27,0
46,45.34,45.28,0
45,45.33,45.27,0
44,45.30,45.26,0
47,45.34,45.28,0
47,45.37,45.29,0
44,45.34,45.28,0
44,45.32,45.27,0
44,45.29,45.26,0
44,45.27,45.24,0
44,45.24,45.23,0
44,45.22,45.22,0
45,45.21,45.22,0
46,45.23,45.22,0
46,45.24,45.23,0
44,45.22,45.22,0
44,45.19,45.21,0
44,45.17,45.20,0
44,45.15,45.18,0
44,45.12,45.17,0
47,45.16,45.19,0
48,45.22,45.22,0
50,45.31,45.27,0
46,45.33,45.27,0
45,45.32,45.27,0
46,45.33,45.28,0
46,45.35,45.29,0
46,45.36,45.29,0
46,45.37,45.30,0
43,45.33,45.28,0
46,45.34,45.28,0
46,45.35,45.29,0
46,45.37,45.30,0
46,45.38,45.30,0
46,45.39,45.31,0
46,45.40,45.32,0
45,45.39,45.32,0
43,45.35,45.29,0
46,45.36,45.30,0
46,45.37,45.31,0
47,45.40,45.32,0
44,45.38,45.31,0
44,45.35,45.30,0
46,45.36,45.30,0
46,45.38,45.31,0
46,45.39,45.32,0
46,45.40,45.32,0
46,45.41,45.33,0
45,45.40,45.33,0
46,45.42,45.33,0
46,45.43,45.34,0
46,45.44,45.35,0
45,45.43,45.34,0
44,45.40,45.33,0
44,45.37,45.32,0
45,45.37,45.31,0
48,45.42,45.34,0
46,45.43,45.35,0
45,45.42,45.34,0
47,45.45,45.36,0
46,45.46,45.37,0
44,45.43,45.35,0
45,45.43,45.35,0
45,45.42,45.35,0
45,45.41,45.34,0
46,45.42,45.35,0
46,45.43,45.36,0
45,45.42,45.35,0
46,45.44,45.36,0
45,45.43,45.36,0
44,45.40,45.34,0
45,45.39,45.34,0
45,45.38,45.34,0
44,45.35,45.32,0
44,45.33,45.31,0
45,45.32,45.31,0
47,45.35,45.32,0
47,45.39,45.34,0
46,45.40,45.35,0
44,45.37,45.33,0
45,45.36,45.33,0
47,45.40,45.35,0
44,45.37,45.33,0
45,45.36,45.33,0
45,45.35,45.33,0
44,45.33,45.31,0
44,45.30,45.30,0
44,45.27,45.29,0
44,45.25,45.27,0
45,45.24,45.27,0
45,45.24,45.27,0
44,45.21,45.26,0
44,45.19,45.24,0
45,45.19,45.24,0
44,45.16,45.23,0
43,45.12,45.21,0
46,45.14,45.21,0
46,45.15,45.22,0
44,45.13,45.21,0
43,45.09,45.19,0
44,45.07,45.18,0
45,45.07,45.17,0
44,45.04,45.16,0
42,44.98,45.13,0
44,44.96,45.12,0
44,44.94,45.11,0
43,44.91,45.09,0
43,44.87,45.07,0
45,44.87,45.07,0
44,44.85,45.05,0
44,44.84,45.04,0
44,44.82,45.03,0
44,44.80,45.02,0
44,44.79,45.01,0
43,44.75,44.99,0
44,44.74,44.98,0
44,44.72,44.97,0
45,44.73,44.97,0
46,44.75,44.98,0
44,44.74,44.97,0
44,44.72,44.96,0
43,44.69,44.94,0
44,44.67,44.94,0
46,44.70,44.95,0
44,44.69,44.94,0
46,44.71,44.95,0
44,44.70,44.94,0
46,44.72,44.95,0
46,44.75,44.96,0
44,44.74,44.95,0
46,44.76,44.96,0
45,44.77,44.96,0
45,44.77,44.96,0
46,44.79,44.97,0
44,44.78,44.96,0
44,44.76,44.95,0
47,44.81,44.97,0
44,44.79,44.96,0
44,44.78,44.95,0
45,44.78,44.95,0
43,44.74,44.93,0
46,44.77,44.94,0
44,44.75,44.93,0
46,44.78,44.95,0
43,44.74,44.93,0
44,44.73,44.92,0
44,44.71,44.91,0
43,44.68,44.89,0
43,44.65,44.87,0
44,44.63,44.86,0
44,44.62,44.85,0
44,44.61,44.84,0
41,44.54,44.81,0
44,44.53,44.80,0
44,44.52,44.79,0
44,44.50,44.78,0
43,44.47,44.76,0
43,44.45,44.75,0
44,44.44,44.74,0
44,44.43,44.73,0
44,44.42,44.72,0
44,44.41,44.72,0
43,44.38,44.70,0
44,44.37,44.69,0
44,44.37,44.69,0
44,44.36,44.68,0
46,44.39,44.69,0
44,44.38,44.68,0
44,44.38,44.68,0
46,44.41,44.69,0
46,44.44,44.70,0
46,44.47,44.72,0
46,44.50,44.73,0
45,44.51,44.73,0
44,44.50,44.73,0
44,44.49,44.72,0
46,44.52,44.73,0
44,44.51,44.72,0
44,44.50,44.72,0
44,44.49,44.71,0
44,44.48,44.70,0
44,44.47,44.70,0
44,44.46,44.69,0
45,44.47,44.69,0
47,44.52,44.71,0
44,44.51,44.71,0
45,44.52,44.71,0
46,44.55,44.72,0
44,44.54,44.72,0
45,44.55,44.72,0
44,44.54,44.71,0
45,44.55,44.71,0
45,44.56,44.72,0
45,44.57,44.72,0
45,44.58,44.72,0
44,44.56,44.72,0
44,44.55,44.71,0
44,44.54,44.70,0
44,44.53,44.69,0
43,44.50,44.68,0
44,44.49,44.67,0
44,44.48,44.66,0
44,44.47,44.66,0
44,44.46,44.65,0
47,44.51,44.67,0
44,44.50,44.67,0
44,44.49,44.66,0
42,44.44,44.63,0
45,44.45,44.64,0
44,44.44,44.63,0
43,44.42,44.62,0
44,44.41,44.61,0
44,44.40,44.60,0
44,44.39,44.60,0
43,44.36,44.58,0
44,44.36,44.58,0
44,44.35,44.57,0
45,44.36,44.57,0
43,44.33,44.56,0
44,44.33,44.55,0
44,44.32,44.55,0
43,44.30,44.53,0
42,44.25,44.51,0
43,44.22,44.49,0
44,44.22,44.49,0
43,44.20,44.47,0
42,44.15,44.45,0
44,44.15,44.44,0
44,44.15,44.44,0
43,44.12,44.42,0
46,44.16,44.44,0
44,44.16,44.43,0
43,44.13,44.42,0
42,44.09,44.40,0
42,44.05,44.37,0
43,44.03,44.36,0
43,44.01,44.34,0
43,43.99,44.33,0
42,43.95,44.31,0
42,43.91,44.28,0
42,43.87,44.26,0
42,43.83,44.24,0
42,43.80,44.22,0
47,43.86,44.24,0
42,43.82,44.22,0
42,43.79,44.20,0
42,43.75,44.18,0
44,43.76,44.18,0
42,43.72,44.15,0
41,43.67,44.12,0
44,43.67,44.12,0
46,43.72,44.14,0
42,43.69,44.12,0
42,43.65,44.10,0
42,43.62,44.08,0
42,43.59,44.06,0
43,43.57,44.05,0
42,43.54,44.03,0
42,43.51,44.01,0
41,43.46,43.98,0
43,43.45,43.97,0
42,43.42,43.95,0
42,43.40,43.93,0
45,43.43,43.94,0
42,43.40,43.92,0
42,43.37,43.90,0
44,43.38,43.90,0
40,43.32,43.86,0
42,43.29,43.84,0
43,43.28,43.83,0
44,43.30,43.84,0
42,43.27,43.82,0
44,43.29,43.82,0
45,43.32,43.83,0
42,43.29,43.81,0
43,43.29,43.80,0
44,43.30,43.81,0
44,43.32,43.81,0
42,43.29,43.79,0
43,43.28,43.78,0
44,43.30,43.78,0
42,43.27,43.77,0
42,43.25,43.75,0
43,43.24,43.74,0
44,43.26,43.74,0
42,43.23,43.73,0
42,43.21,43.71,0
42,43.18,43.69,0
41,43.14,43.66,0
42,43.12,43.65,0
42,43.09,43.63,0
42,43.07,43.62,0
41,43.03,43.59,0
42,43.01,43.57,0
42,42.99,43.56,0
42,42.97,43.54,0
44,42.99,43.55,0
43,42.99,43.54,0
42,42.97,43.53,0
43,42.97,43.52,0
45,43.01,43.54,0
44,43.03,43.54,0
42,43.01,43.52,0
46,43.07,43.55,0
47,43.15,43.58,0
44,43.17,43.59,0
43,43.16,43.58,0
42,43.14,43.57,0
44,43.16,43.57,0
44,43.17,43.57,0
44,43.19,43.58,0
42,43.17,43.56,0
43,43.16,43.56,0
43,43.16,43.55,0
42,43.14,43.54,0
42,43.11,43.52,0
43,43.11,43.52,0
42,43.09,43.50,0
42,43.07,43.49,0
43,43.07,43.48,0
44,43.09,43.49,0
43,43.08,43.48,0
42,43.06,43.47,0
42,43.04,43.45,0
44,43.06,43.46,0
43,43.06,43.45,0
42,43.04,43.44,0
42,43.02,43.42,0
42,43.00,43.41,0
42,42.98,43.40,0
42,42.96,43.38,0
42,42.94,43.37,0
43,42.94,43.36,0
42,42.92,43.35,0
42,42.90,43.34,0
43,42.90,43.33,0
42,42.89,43.32,0
42,42.87,43.31,0
42,42.85,43.29,0
44,42.87,43.30,0
43,42.88,43.30,0
42,42.86,43.29,0
42,42.84,43.27,0
42,42.82,43.26,0
43,42.83,43.26,0
42,42.81,43.24,0
42,42.80,43.23,0
42,42.78,43.22,0
43,42.78,43.22,0
44,42.81,43.23,0
41,42.77,43.20,0
44,42.80,43.21,0
43,42.80,43.21,0
42,42.78,43.20,0
43,42.79,43.19,0
42,42.77,43.18,0
42,42.76,43.17,0
44,42.78,43.18,0
42,42.77,43.17,0
44,42.79,43.18,0
42,42.78,43.16,0
42,42.76,43.15,0
42,42.75,43.14,0
43,42.75,43.14,0
44,42.78,43.15,0
42,42.76,43.14,0
44,42.78,43.15,0
44,42.81,43.15,0
44,42.83,43.16,0
42,42.82,43.15,0
42,42.80,43.14,0
43,42.80,43.14,0
43,42.81,43.14,0
44,42.83,43.14,0
42,42.81,43.13,0
42,42.80,43.12,0
43,42.80,43.12,0
42,42.79,43.11,0
42,42.77,43.10,0
42,42.76,43.09,0
44,42.78,43.10,0
45,42.82,43.12,0
40,42.77,43.08,0
42,42.75,43.07,0
46,42.82,43.10,0
43,42.82,43.10,0
42,42.81,43.09,0
43,42.81,43.09,0
43,42.81,43.09,0
43,42.82,43.09,0
42,42.80,43.08,0
43,42.80,43.08,0
44,42.83,43.09,0
42,42.81,43.07,0
42,42.80,43.06,0
42,42.78,43.05,0
43,42.78,43.05,0
42,42.77,43.04,0
42,42.75,43.03,0
42,42.74,43.02,0
41,42.70,43.00,0
43,42.71,43.00,0
42,42.69,42.99,0
42,42.68,42.98,0
43,42.69,42.98,0
42,42.67,42.97,0
42,42.66,42.96,0
42,42.65,42.95,0
43,42.65,42.95,0
42,42.64,42.94,0
42,42.63,42.93,0
42,42.62,42.92,0
41,42.58,42.91,0
42,42.57,42.90,0
42,42.56,42.89,0
42,42.55,42.88,0
43,42.56,42.88,0
42,42.55,42.87,0
42,42.54,42.86,0
41,42.51,42.84,0
41,42.47,42.83,0
42,42.47,42.82,0
42,42.46,42.81,0
42,42.45,42.80,0
42,42.44,42.79,0
42,42.43,42.78,0
42,42.42,42.78,0
42,42.41,42.77,0
41,42.38,42.75,0
41,42.36,42.73,0
42,42.35,42.73,0
42,42.34,42.72,0
43,42.36,42.72,0
42,42.35,42.71,0
42,42.34,42.71,0
42,42.33,42.70,0
42,42.33,42.69,0
42,42.32,42.69,0
42,42.31,42.68,0
42,42.31,42.67,0
42,42.30,42.67,0
42,42.30,42.66,0
42,42.29,42.65,0
42,42.28,42.65,0
42,42.28,42.64,0
42,42.27,42.63,0
42,42.27,42.63,0
44,42.30,42.64,0
43,42.32,42.64,0
42,42.31,42.64,0
42,42.30,42.63,0
42,42.30,42.63,0
42,42.29,42.62,0
42,42.29,42.61,0
42,42.28,42.61,0
41,42.25,42.59,0
42,42.25,42.58,0
44,42.28,42.60,0
42,42.28,42.59,0
42,42.27,42.59,0
42,42.27,42.58,0
44,42.30,42.60,0
42,42.30,42.59,0
42,42.29,42.58,0
40,42.24,42.56,0
42,42.24,42.55,0
42,42.24,42.55,0
41,42.21,42.53,0
42,42.21,42.53,0
42,42.20,42.52,0
43,42.22,42.53,0
43,42.23,42.53,0
42,42.23,42.52,0
42,42.22,42.52,0
44,42.26,42.53,0
43,42.27,42.54,0
43,42.29,42.54,0
44,42.32,42.56,0
42,42.32,42.55,0
42,42.31,42.55,0
45,42.36,42.57,0
46,42.44,42.61,0
41,42.41,42.59,0
42,42.40,42.58,0
41,42.37,42.57,0
42,42.36,42.56,0
42,42.36,42.56,0
42,42.35,42.55,0
43,42.36,42.56,0
43,42.38,42.56,0
42,42.37,42.55,0
43,42.38,42.56,0
43,42.39,42.56,0
43,42.41,42.57,0
42,42.40,42.56,0
42,42.39,42.56,0
43,42.40,42.56,0
40,42.35,42.54,0
42,42.35,42.53,0
42,42.34,42.52,0
42,42.33,42.52,0
42,42.33,42.51,0
42,42.32,42.51,0
42,42.31,42.50,0
43,42.33,42.51,0
44,42.36,42.52,0
42,42.35,42.52,0
42,42.35,42.51,0
44,42.38,42.53,0
44,42.41,42.54,0
42,42.40,42.54,0
42,42.40,42.53,0
45,42.45,42.56,0
43,42.46,42.56,0
42,42.45,42.56,0
44,42.48,42.57,0
43,42.49,42.57,0
43,42.50,42.58,0
42,42.49,42.57,0
44,42.52,42.59,0
44,42.55,42.60,0
43,42.56,42.61,0
42,42.55,42.60,0
44,42.58,42.61,0
44,42.61,42.63,0
43,42.61,42.63,0
42,42.60,42.62,0
44,42.63,42.64,0
44,42.66,42.65,0
43,42.66,42.66,0
44,42.69,42.67,0
44,42.72,42.68,0
43,42.72,42.69,0
43,42.73,42.69,0
44,42.75,42.70,0
42,42.74,42.69,0
43,42.74,42.70,0
42,42.73,42.69,0
42,42.71,42.68,0
44,42.74,42.70,0
45,42.79,42.72,0
44,42.81,42.73,0
42,42.79,42.73,0
44,42.82,42.74,0
45,42.86,42.76,0
44,42.88,42.77,0
44,42.91,42.79,0
44,42.93,42.80,0
44,42.95,42.81,0
44,42.97,42.82,0
42,42.95,42.81,0
44,42.97,42.83,0
44,42.99,42.84,0
44,43.01,42.85,0
42,42.99,42.84,0
44,43.01,42.85,0
44,43.03,42.86,0
44,43.05,42.87,0
42,43.03,42.87,0
44,43.05,42.88,0
44,43.07,42.89,0
44,43.09,42.90,0
42,43.07,42.89,0
44,43.08,42.90,0
43,43.08,42.90,0
46,43.14,42.93,0
44,43.16,42.94,0
43,43.16,42.94,0
44,43.17,42.96,0
43,43.17,42.96,0
42,43.15,42.95,0
42,43.12,42.94,0
42,43.10,42.93,0
43,43.10,42.93,0
42,43.08,42.92,0
43,43.07,42.92,0
44,43.09,42.93,0
43,43.09,42.93,0
42,43.07,42.92,0
44,43.09,42.93,0
44,43.11,42.94,0
45,43.14,42.96,0
42,43.12,42.95,0
43,43.12,42.95,0
44,43.14,42.97,0
42,43.11,42.96,0
42,43.09,42.95,0
43,43.09,42.95,0
43,43.09,42.95,0
43,43.09,42.95,0
42,43.06,42.94,0
43,43.06,42.94,0
44,43.08,42.95,0
44,43.10,42.96,0
42,43.08,42.95,0
42,43.06,42.94,0
46,43.12,42.97,0
42,43.09,42.96,0
42,43.07,42.95,0
41,43.03,42.93,0
41,42.99,42.91,0
44,43.01,42.92,0
42,42.99,42.91,0
42,42.97,42.91,0
44,42.99,42.92,0
42,42.97,42.91,0
42,42.95,42.90,0
42,42.93,42.89,0
44,42.95,42.90,0
41,42.91,42.88,0
44,42.94,42.89,0
42,42.92,42.88,0
39,42.84,42.84,0
42,42.82,42.84,0
42,42.81,42.83,0
42,42.79,42.82,0
41,42.75,42.80,0
42,42.74,42.79,0
42,42.72,42.79,0
42,42.71,42.78,0
42,42.70,42.77,0
42,42.68,42.76,0
42,42.67,42.75,0
41,42.63,42.74,0
41,42.60,42.72,0
42,42.59,42.71,0
42,42.58,42.71,0
42,42.57,42.70,0
41,42.53,42.68,0
42,42.52,42.67,0
40,42.47,42.65,0
42,42.46,42.64,0
42,42.46,42.63,0
42,42.45,42.63,0
42,42.44,42.62,0
42,42.43,42.62,0
42,42.42,42.61,0
42,42.41,42.60,0
40,42.36,42.58,0
42,42.36,42.57,0
42,42.35,42.57,0
42,42.34,42.56,0
42,42.33,42.55,0
42,42.33,42.55,0
41,42.30,42.53,0
42,42.30,42.53,0
42,42.29,42.52,0
42,42.28,42.52,0
41,42.26,42.50,0
42,42.25,42.50,0
42,42.25,42.49,0
42,42.24,42.49,0
42,42.24,42.48,0
42,42.23,42.48,0
41,42.21,42.46,0
42,42.20,42.46,0
42,42.20,42.45,0
42,42.20,42.45,0
42,42.19,42.45,0
41,42.17,42.43,0
42,42.17,42.43,0
42,42.16,42.42,0
42,42.16,42.42,0
40,42.12,42.39,0
40,42.07,42.37,0
42,42.07,42.37,0
42,42.07,42.36,0
41,42.05,42.35,0
42,42.05,42.35,0
44,42.09,42.36,0
42,42.09,42.36,0
42,42.08,42.35,0
41,42.06,42.34,0
47,42.16,42.39,0
44,42.20,42.40,0
44,42.23,42.42,0
42,42.23,42.42,0
44,42.26,42.43,0
44,42.30,42.45,0
43,42.31,42.45,0
45,42.37,42.48,0
44,42.40,42.49,0
42,42.39,42.49,0
43,42.40,42.49,0
44,42.44,42.51,0
42,42.43,42.50,0
42,42.42,42.50,0
42,42.41,42.49,0
43,42.42,42.50,0
42,42.41,42.49,0
42,42.41,42.49,0
42,42.40,42.48,0
43,42.41,42.49,0
42,42.40,42.48,0
42,42.39,42.48,0
42,42.38,42.47,0
43,42.40,42.48,0
42,42.39,42.47,0
42,42.38,42.47,0
42,42.37,42.47,0
44,42.41,42.48,0
42,42.40,42.48,0
42,42.39,42.47,0
42,42.38,42.47,0
41,42.35,42.45,0
41,42.33,42.44,0
42,42.32,42.43,0
42,42.31,42.43,0
41,42.29,42.41,0
42,42.28,42.41,0
40,42.24,42.39,0
46,42.31,42.42,0
44,42.35,42.44,0
42,42.34,42.43,0
42,42.33,42.43,0
42,42.33,42.42,0
42,42.32,42.42,0
44,42.35,42.44,0
44,42.39,42.45,0
45,42.44,42.48,0
43,42.45,42.48,0
47,42.54,42.53,0
48,42.65,42.58,0
50,42.80,42.66,0
49,42.92,42.72,0
44,42.94,42.73,0
46,43.00,42.77,0
44,43.02,42.78,0
46,43.08,42.81,0
44,43.10,42.82,0
46,43.16,42.85,0
46,43.22,42.89,0
46,43.27,42.92,0
44,43.29,42.93,0
46,43.34,42.96,0
44,43.35,42.97,0
44,43.37,42.98,0
46,43.42,43.01,0
46,43.47,43.04,0
46,43.52,43.07,0
45,43.55,43.09,0
44,43.56,43.10,0
44,43.57,43.11,0
44,43.58,43.12,0
45,43.61,43.13,0
46,43.65,43.16,0
46,43.70,43.19,0
46,43.75,43.22,0
46,43.79,43.25,0
46,43.84,43.27,0
47,43.90,43.31,0
46,43.94,43.34,0
46,43.98,43.37,0
46,44.02,43.39,0
46,44.06,43.42,0
45,44.08,43.43,0
46,44.12,43.46,0
44,44.12,43.46,0
46,44.15,43.49,0
45,44.17,43.50,0
44,44.17,43.51,0
48,44.24,43.55,0
46,44.28,43.58,0
49,44.37,43.63,0
48,44.45,43.68,0
46,44.48,43.70,0
50,44.59,43.76,0
49,44.68,43.82,0
47,44.72,43.85,0
49,44.81,43.90,0
46,44.83,43.92,0
47,44.88,43.95,0
47,44.92,43.98,0
47,44.96,44.01,0
48,45.02,44.05,0
48,45.08,44.09,0
47,45.12,44.12,0
49,45.20,44.17,0
46,45.21,44.19,0
48,45.27,44.23,0
48,45.32,44.26,0
50,45.42,44.32,0
48,45.47,44.36,0
47,45.50,44.38,0
47,45.53,44.41,0
47,45.56,44.44,0
47,45.59,44.46,0
47,45.62,44.49,0
49,45.68,44.53,0
48,45.73,44.57,0
47,45.75,44.59,0
47,45.78,44.61,0
49,45.84,44.66,0
48,45.89,44.69,0
45,45.87,44.70,0
48,45.91,44.73,0
47,45.93,44.75,0
48,45.98,44.78,0
48,46.02,44.82,0
50,46.10,44.87,0
49,46.15,44.91,0
49,46.21,44.95,0
47,46.23,44.97,0
48,46.26,45.00,0
50,46.34,45.05,0
50,46.41,45.10,0
50,46.48,45.15,0
48,46.51,45.18,0
48,46.54,45.21,0
51,46.63,45.26,0
52,46.74,45.33,0
48,46.76,45.36,0
50,46.83,45.40,0
49,46.87,45.44,0
50,46.93,45.49,0
50,47.00,45.53,0
50,47.06,45.58,0
49,47.09,45.61,0
50,47.15,45.65,0
50,47.21,45.70,0
52,47.31,45.76,0
53,47.42,45.83,0
50,47.47,45.87,0
50,47.52,45.92,0
50,47.57,45.96,0
50,47.62,46.00,0
54,47.75,46.08,0
52,47.83,46.14,0
50,47.88,46.17,0
50,47.92,46.21,0
50,47.96,46.25,0
52,48.04,46.31,0
51,48.10,46.36,0
50,48.14,46.39,0
50,48.17,46.43,0
52,48.25,46.48,0
50,48.29,46.52,0
51,48.34,46.56,0
52,48.41,46.62,0
52,48.49,46.67,0
51,48.54,46.71,0
50,48.57,46.75,0
48,48.55,46.76,0
52,48.62,46.81,0
50,48.65,46.84,0
54,48.76,46.92,0
57,48.92,47.02,0
54,49.02,47.09,0
52,49.08,47.14,0
58,49.26,47.24,0
57,49.42,47.34,0
56,49.55,47.43,0
54,49.64,47.49,0
54,49.72,47.56,0
53,49.79,47.61,0
54,49.87,47.68,0
54,49.96,47.74,0
54,50.04,47.80,0
54,50.12,47.87,0
54,50.19,47.93,0
52,50.23,47.97,0
52,50.27,48.01,0
54,50.34,48.07,0
53,50.39,48.12,0
54,50.47,48.18,0
54,50.54,48.23,0
54,50.61,48.29,0
54,50.67,48.35,0
54,50.74,48.41,0
54,50.81,48.46,0
58,50.95,48.56,0
54,51.01,48.61,0
62,51.23,48.75,0
59,51.39,48.85,0
58,51.52,48.94,0
59,51.67,49.04,0
55,51.73,49.10,0
56,51.82,49.17,0
57,51.92,49.25,0
58,52.04,49.33,0
59,52.18,49.43,0
57,52.28,49.51,0
59,52.41,49.60,0
63,52.63,49.74,0
64,52.85,49.88,0
63,53.06,50.01,0
62,53.24,50.13,0
60,53.37,50.23,0
62,53.54,50.35,0
60,53.67,50.44,0
62,53.84,50.56,0
60,53.96,50.65,0
61,54.10,50.76,0
59,54.20,50.84,0
62,54.36,50.95,0
60,54.47,51.04,0
60,54.58,51.13,0
66,54.81,51.28,0
62,54.95,51.39,0
62,55.09,51.49,0
61,55.21,51.59,0
62,55.35,51.69,0
64,55.52,51.81,0
64,55.69,51.94,0
63,55.84,52.05,0
64,56.00,52.17,0
62,56.12,52.26,0
62,56.24,52.36,0
62,56.35,52.46,0
62,56.47,52.55,0
62,56.58,52.65,0
66,56.76,52.78,0
63,56.89,52.88,0
64,57.03,53.00,0
64,57.17,53.11,0
64,57.31,53.21,0
70,57.56,53.38,0
68,57.77,53.53,0
66,57.93,53.65,0
66,58.10,53.78,0
67,58.27,53.91,0
66,58.43,54.03,0
66,58.58,54.15,0
64,58.69,54.25,0
65,58.81,54.36,0
64,58.92,54.45,0
64,59.02,54.55,0
64,59.12,54.64,0
65,59.24,54.75,0
64,59.33,54.84,0
66,59.47,54.95,0
66,59.60,55.06,0
65,59.70,55.16,0
71,59.93,55.32,0
64,60.01,55.40,0
68,60.17,55.53,0
67,60.31,55.65,0
70,60.50,55.79,0
70,60.69,55.93,0
70,60.88,56.07,0
67,61.00,56.18,0
76,61.30,56.38,0
68,61.43,56.50,0
70,61.61,56.63,0
72,61.81,56.78,0
74,62.06,56.96,0
68,62.18,57.07,0
74,62.41,57.24,0
71,62.58,57.37,0
76,62.85,57.56,0
78,63.16,57.76,0
72,63.33,57.91,0
73,63.53,58.06,0
74,63.74,58.22,0
76,63.98,58.39,0
72,64.14,58.53,0
76,64.38,58.71,0
76,64.61,58.88,0
78,64.88,59.07,0
75,65.08,59.23,0
76,65.30,59.40,0
78,65.55,59.58,0
79,65.82,59.78,0
81,66.13,59.99,0
80,66.40,60.19,0
76,66.60,60.35,0
78,66.82,60.52,0
83,67.15,60.75,0
84,67.48,60.98,0
85,67.83,61.22,0
82,68.12,61.43,0
79,68.34,61.60,0
84,68.65,61.83,0
87,69.02,62.08,0
84,69.32,62.30,0
83,69.59,62.51,0
83,69.86,62.71,0
88,70.22,62.96,0
84,70.50,63.17,0
83,70.75,63.37,0
84,71.01,63.58,0
85,71.29,63.79,0
82,71.50,63.98,0
86,71.79,64.20,0
86,72.08,64.41,0
88,72.40,64.65,0
84,72.63,64.84,0
83,72.84,65.02,0
85,73.08,65.22,0
88,73.38,65.45,0
86,73.63,65.66,0
86,73.88,65.86,0
85,74.10,66.05,0
86,74.34,66.25,0
86,74.57,66.45,0
88,74.84,66.67,0
85,75.04,66.85,0
84,75.22,67.02,0
84,75.40,67.19,0
84,75.57,67.36,0
85,75.76,67.53,0
84,75.92,67.70,0
84,76.09,67.86,0
86,76.28,68.04,0
84,76.44,68.20,0
84,76.59,68.36,0
86,76.78,68.54,0
82,76.88,68.67,0
86,77.06,68.85,0
84,77.20,69.00,0
84,77.34,69.15,0
85,77.49,69.31,0
84,77.62,69.45,0
87,77.81,69.63,0
86,77.97,69.79,0
84,78.09,69.93,0
90,78.33,70.13,0
88,78.53,70.31,0
88,78.72,70.49,0
86,78.86,70.64,0
89,79.06,70.83,0
86,79.20,70.98,0
86,79.34,71.13,0
86,79.47,71.28,0
88,79.64,71.45,0
85,79.75,71.58,0
86,79.87,71.73,0
87,80.02,71.88,0
87,80.16,72.03,0
86,80.27,72.17,0
86,80.39,72.31,0
86,80.50,72.44,0
88,80.65,72.60,0
86,80.76,72.73,0
88,80.90,72.89,0
87,81.02,73.03,0
87,81.14,73.17,0
86,81.24,73.30,0
88,81.38,73.44,0
88,81.51,73.59,0
87,81.62,73.72,0
86,81.71,73.85,0
88,81.83,73.99,0
86,81.91,74.11,0
86,82.00,74.23,0
88,82.12,74.36,0
85,82.17,74.47,0
87,82.27,74.60,0
87,82.37,74.72,0
86,82.44,74.83,0
86,82.51,74.94,0
86,82.58,75.05,0
86,82.65,75.16,0
86,82.71,75.27,0
85,82.76,75.37,0
88,82.87,75.50,0
90,83.01,75.64,0
86,83.07,75.74,0
86,83.13,75.85,0
86,83.18,75.95,0
86,83.24,76.05,0
86,83.30,76.15,0
86,83.35,76.25,0
87,83.42,76.35,0
86,83.47,76.45,0
87,83.54,76.56,0
85,83.57,76.64,0
84,83.58,76.71,0
86,83.63,76.81,0
85,83.66,76.89,0
86,83.70,76.98,0
86,83.75,77.07,0
83,83.74,77.13,0
87,83.80,77.23,0
87,83.86,77.33,0
86,83.91,77.41,0
86,83.95,77.50,0
85,83.97,77.57,0
85,83.99,77.65,0
85,84.01,77.72,0
84,84.01,77.78,0
86,84.05,77.87,0
85,84.07,77.94,0
86,84.11,78.02,0
86,84.15,78.10,0
85,84.16,78.17,0
84,84.16,78.23,0
84,84.16,78.28,0
84,84.15,78.34,0
84,84.15,78.40,0
84,84.15,78.45,0
84,84.14,78.51,0
84,84.14,78.56,0
84,84.14,78.62,0
83,84.12,78.66,0
83,84.09,78.71,0
83,84.07,78.75,0
84,84.07,78.80,0
82,84.03,78.83,0
83,84.01,78.87,0
84,84.01,78.93,0
83,83.99,78.97,0
82,83.95,79.00,0
84,83.95,79.05,0
84,83.95,79.10,0
84,83.95,79.15,0
82,83.91,79.17,0
82,83.87,79.20,0
82,83.84,79.23,0
82,83.80,79.26,0
82,83.76,79.29,0
82,83.73,79.31,0
81,83.67,79.33,0
82,83.64,79.36,0
82,83.61,79.38,0
82,83.58,79.41,0
82,83.54,79.43,0
82,83.51,79.46,0
82,83.48,79.49,0
82,83.45,79.51,0
82,83.42,79.54,0
82,83.40,79.56,0
82,83.37,79.58,0
82,83.34,79.61,0
82,83.31,79.63,0
81,83.27,79.65,0
82,83.24,79.67,0
82,83.22,79.69,0
80,83.15,79.70,0
80,83.09,79.70,0
80,83.03,79.70,0
79,82.95,79.70,0
80,82.89,79.70,0
80,82.83,79.70,0
78,82.73,79.68,0
79,82.66,79.68,0
80,82.61,79.68,0
80,82.55,79.68,0
80,82.50,79.69,0
79,82.43,79.68,0
79,82.36,79.67,0
78,82.28,79.66,0
80,82.23,79.66,0
78,82.15,79.64,0
79,82.08,79.64,0
84,82.12,79.68,0
78,82.04,79.66,0
78,81.96,79.65,0
79,81.90,79.64,0
78,81.82,79.62,0
78,81.75,79.61,0
78,81.67,79.59,0
78,81.60,79.58,0
78,81.53,79.56,0
78,81.45,79.54,0
78,81.39,79.53,0
78,81.32,79.51,0
78,81.25,79.50,0
78,81.19,79.48,0
77,81.10,79.46,0
77,81.02,79.43,0
78,80.96,79.42,0
76,80.86,79.39,0
77,80.78,79.36,0
76,80.69,79.33,0
77,80.61,79.31,0
76,80.52,79.27,0
76,80.43,79.24,0
78,80.38,79.23,0
77,80.32,79.20,0
76,80.23,79.17,0
81,80.24,79.19,0
78,80.20,79.18,0
77,80.14,79.16,0
76,80.05,79.13,0
76,79.97,79.09,0
78,79.93,79.08,0
76,79.85,79.05,0
76,79.78,79.02,0
76,79.70,78.99,0
76,79.63,78.96,0
76,79.55,78.93,0
74,79.44,78.88,0
75,79.35,78.84,0
76,79.29,78.82,0
75,79.20,78.78,0
74,79.10,78.73,0
75,79.02,78.69,0
77,78.98,78.68,0
74,78.88,78.63,0
74,78.78,78.58,0
74,78.68,78.54,0
76,78.63,78.51,0
74,78.54,78.47,0
74,78.45,78.42,0
74,78.36,78.38,0
76,78.31,78.35,0
73,78.20,78.30,0
74,78.12,78.26,0
74,78.04,78.21,0
74,77.96,78.17,0
73,77.86,78.12,0
72,77.74,78.06,0
74,77.67,78.02,0
73,77.57,77.97,0
73,77.48,77.92,0
72,77.37,77.86,0
72,77.26,77.80,0
73,77.18,77.75,0
74,77.11,77.72,0
72,77.01,77.66,0
72,76.91,77.60,0
73,76.83,77.56,0
72,76.74,77.50,0
72,76.64,77.45,0
70,76.51,77.37,0
72,76.42,77.32,0
72,76.33,77.26,0
72,76.24,77.21,0
71,76.14,77.15,0
72,76.06,77.10,0
71,75.96,77.04,0
72,75.88,76.99,0
72,75.80,76.94,0
72,75.72,76.89,0
72,75.65,76.84,0
70,75.54,76.77,0
72,75.46,76.72,0
72,75.40,76.68,0
70,75.29,76.61,0
70,75.18,76.54,0
72,75.12,76.50,0
71,75.04,76.44,0
73,75.00,76.41,0
72,74.94,76.36,0
70,74.84,76.30,0
70,74.74,76.24,0
70,74.65,76.17,0
70,74.55,76.11,0
71,74.48,76.06,0
70,74.39,76.00,0
70,74.30,75.94,0
70,74.22,75.88,0
70,74.13,75.82,0
70,74.05,75.76,0
70,73.97,75.71,0
68,73.85,75.63,0
70,73.77,75.57,0
70,73.70,75.52,0
68,73.58,75.44,0
69,73.49,75.38,0
69,73.40,75.31,0
68,73.29,75.24,0
72,73.27,75.21,0
68,73.16,75.14,0
69,73.08,75.08,0
70,73.02,75.02,0
70,72.96,74.97,0
68,72.86,74.90,0
69,72.78,74.85,0
70,72.73,74.80,0
70,72.67,74.75,0
68,72.58,74.68,0
68,72.49,74.61,0
68,72.40,74.55,0
68,72.31,74.48,0
68,72.22,74.42,0
68,72.14,74.35,0
68,72.06,74.29,0
69,71.99,74.24,0
68,71.91,74.18,0
68,71.84,74.11,0
68,71.76,74.05,0
69,71.70,74.00,0
68,71.63,73.94,0
69,71.58,73.89,0
68,71.51,73.83,0
68,71.44,73.78,0
68,71.37,73.72,0
67,71.28,73.65,0
69,71.23,73.60,0
68,71.17,73.55,0
68,71.11,73.49,0
67,71.02,73.43,0
67,70.94,73.36,0
68,70.88,73.31,0
68,70.83,73.26,0
67,70.75,73.19,0
68,70.70,73.14,0
68,70.64,73.09,0
66,70.55,73.02,0
67,70.48,72.96,0
67,70.41,72.90,0
68,70.36,72.85,0
63,70.21,72.75,0
68,70.17,72.70,0
69,70.15,72.67,0
66,70.06,72.60,0
68,70.02,72.55,0
68,69.98,72.51,0
68,69.94,72.46,0
66,69.86,72.40,0
67,69.80,72.35,0
68,69.77,72.30,0
68,69.73,72.26,0
66,69.66,72.20,0
66,69.59,72.13,0
66,69.51,72.07,0
68,69.48,72.03,0
66,69.41,71.97,0
66,69.35,71.91,0
66,69.28,71.85,0
67,69.23,71.80,0
68,69.21,71.77,0
68,69.18,71.73,0
68,69.16,71.69,0
68,69.14,71.65,0
67,69.09,71.61,0
67,69.05,71.56,0
66,68.99,71.51,0
67,68.95,71.46,0
68,68.93,71.43,0
66,68.87,71.37,0
66,68.82,71.32,0
67,68.78,71.28,0
66,68.72,71.22,0
66,68.67,71.17,0
66,68.62,71.12,0
67,68.58,71.08,0
66,68.53,71.03,0
66,68.48,70.98,0
66,68.43,70.93,0
67,68.40,70.89,0
66,68.36,70.84,0
66,68.31,70.79,0
66,68.26,70.74,0
66,68.22,70.70,0
66,68.17,70.65,0
66,68.13,70.60,0
66,68.09,70.56,0
65,68.03,70.50,0
66,67.98,70.46,0
64,67.90,70.39,0
66,67.87,70.35,0
66,67.83,70.30,0
68,67.83,70.28,0
65,67.78,70.23,0
65,67.72,70.18,0
67,67.71,70.14,0
66,67.67,70.10,0
66,67.64,70.06,0
65,67.59,70.01,0
66,67.55,69.97,0
66,67.52,69.93,0
64,67.45,69.87,0
65,67.40,69.82,0
63,67.32,69.75,0
64,67.25,69.70,0
64,67.18,69.64,0
64,67.12,69.58,0
64,67.06,69.53,0
65,67.02,69.48,0
64,66.96,69.43,0
64,66.90,69.37,0
63,66.82,69.31,0
65,66.78,69.27,0
66,66.77,69.23,0
65,66.73,69.19,0
68,66.76,69.18,0
71,66.84,69.20,0
66,66.83,69.17,0
66,66.81,69.13,0
65,66.77,69.09,0
65,66.74,69.05,0
66,66.72,69.02,0
66,66.71,68.99,0
66,66.69,68.96,0
66,66.68,68.93,0
65,66.65,68.89,0
66,66.63,68.86,0
67,66.64,68.84,0
66,66.63,68.82,0
66,66.62,68.79,0
67,66.62,68.77,0
67,66.63,68.75,0
66,66.62,68.73,0
66,66.61,68.70,0
71,66.69,68.72,0
69,66.74,68.72,0
68,66.77,68.72,0
67,66.77,68.70,0
67,66.77,68.68,0
67,66.78,68.67,0
68,66.80,68.66,0
66,66.79,68.63,0
66,66.77,68.61,0
67,66.78,68.59,0
68,66.80,68.58,0
66,66.78,68.56,0
66,66.77,68.53,0
68,66.79,68.53,0
63,66.72,68.47,0
66,66.70,68.45,0
66,66.69,68.42,0
69,66.74,68.43,0
66,66.72,68.40,0
66,66.71,68.38,0
66,66.69,68.36,0
66,66.68,68.33,0
63,66.60,68.28,0
66,66.59,68.26,0
66,66.58,68.23,0
67,66.59,68.22,0
66,66.58,68.20,0
66,66.57,68.18,0
66,66.55,68.16,0
65,66.52,68.12,0
65,66.49,68.09,0
66,66.48,68.07,0
64,66.43,68.03,0
66,66.42,68.01,0
66,66.42,67.99,0
64,66.37,67.95,0
64,66.32,67.91,0
65,66.29,67.88,0
64,66.25,67.84,0
64,66.20,67.81,0
64,66.16,67.77,0
66,66.16,67.75,0
64,66.11,67.71,0
64,66.07,67.67,0
64,66.03,67.64,0
64,65.99,67.60,0
64,65.95,67.57,0
64,65.91,67.53,0
64,65.87,67.49,0
68,65.91,67.50,0
64,65.88,67.46,0
64,65.84,67.43,0
66,65.84,67.42,0
65,65.82,67.39,0
64,65.79,67.36,0
64,65.75,67.32,0
64,65.72,67.29,0
63,65.66,67.25,0
64,65.63,67.22,0
64,65.60,67.18,0
64,65.57,67.15,0
63,65.51,67.11,0
63,65.46,67.07,0
64,65.43,67.04,0
65,65.43,67.02,0
65,65.42,67.00,0
62,65.35,66.95,0
64,65.32,66.92,0
63,65.28,66.88,0
62,65.21,66.83,0
63,65.17,66.79,0
64,65.14,66.76,0
63,65.10,66.73,0
64,65.08,66.70,0
63,65.04,66.66,0
62,64.98,66.62,0
63,64.94,66.58,0
64,64.92,66.55,0
63,64.88,66.52,0
62,64.82,66.47,0
63,64.78,66.44,0
63,64.75,66.40,0
64,64.73,66.38,0
64,64.72,66.36,0
62,64.67,66.31,0
62,64.61,66.27,0
62,64.56,66.23,0
61,64.49,66.17,0
63,64.46,66.14,0
62,64.41,66.10,0
61,64.34,66.05,0
62,64.29,66.01,0
62,64.25,65.97,0
61,64.18,65.92,0
64,64.18,65.90,0
62,64.14,65.86,0
62,64.09,65.82,0
64,64.09,65.80,0
64,64.09,65.79,0
62,64.05,65.75,0
62,64.01,65.71,0
63,63.99,65.68,0
64,63.99,65.67,0
62,63.95,65.63,0
62,63.91,65.59,0
63,63.89,65.57,0
63,63.87,65.54,0
61,63.82,65.50,0
62,63.78,65.46,0
63,63.76,65.44,0
62,63.73,65.40,0
60,63.65,65.35,0
62,63.62,65.32,0
61,63.57,65.27,0
61,63.52,65.23,0
62,63.49,65.20,0
60,63.42,65.15,0
61,63.37,65.10,0
61,63.32,65.06,0
60,63.25,65.01,0
60,63.19,64.96,0
61,63.15,64.92,0
61,63.10,64.88,0
62,63.08,64.85,0
61,63.04,64.82,0
63,63.04,64.80,0
62,63.02,64.77,0
62,63.00,64.74,0
62,62.98,64.71,0
63,62.98,64.70,0
61,62.94,64.66,0
60,62.88,64.61,0
60,62.82,64.57,0
61,62.79,64.53,0
60,62.73,64.49,0
60,62.68,64.44,0
60,62.62,64.40,0
65,62.67,64.40,0
60,62.62,64.36,0
62,62.60,64.34,0
60,62.55,64.29,0
60,62.50,64.25,0
60,62.45,64.21,0
61,62.42,64.18,0
62,62.41,64.15,0
59,62.34,64.10,0
60,62.30,64.06,0
60,62.25,64.02,0
60,62.21,63.98,0
60,62.16,63.94,0
60,62.12,63.90,0
61,62.10,63.87,0
60,62.06,63.83,0
57,61.95,63.76,0
58,61.87,63.71,0
62,61.88,63.69,0
60,61.84,63.65,0
59,61.78,63.61,0
58,61.71,63.55,0
60,61.67,63.52,0
60,61.64,63.48,0
60,61.61,63.45,0
60,61.57,63.41,0
60,61.54,63.38,0
59,61.49,63.33,0
59,61.44,63.29,0
60,61.41,63.26,0
60,61.39,63.22,0
60,61.36,63.19,0
58,61.29,63.14,0
60,61.26,63.11,0
60,61.24,63.08,0
59,61.19,63.04,0
60,61.17,63.01,0
60,61.15,62.98,0
60,61.12,62.95,0
59,61.08,62.91,0
58,61.02,62.86,0
60,61.00,62.83,0
58,60.94,62.78,0
62,60.96,62.77,0
59,60.92,62.74,0
60,60.90,62.71,0
58,60.85,62.66,0
60,60.83,62.63,0
60,60.81,62.61,0
60,60.80,62.58,0
59,60.76,62.55,0
58,60.70,62.50,0
61,60.71,62.49,0
59,60.68,62.45,0
59,60.64,62.42,0
58,60.59,62.37,0
60,60.58,62.35,0
59,60.55,62.32,0
58,60.50,62.27,0
58,60.45,62.23,0
60,60.44,62.21,0
58,60.39,62.16,0
58,60.34,62.12,0
58,60.29,62.08,0
57,60.23,62.03,0
58,60.18,61.99,0
58,60.14,61.95,0
58,60.10,61.91,0
60,60.09,61.89,0
60,60.09,61.87,0
58,60.05,61.83,0
58,60.01,61.80,0
61,60.03,61.79,0
60,60.03,61.77,0
58,59.99,61.73,0
59,59.97,61.71,0
59,59.95,61.68,0
58,59.91,61.64,0
58,59.87,61.61,0
58,59.83,61.57,0
59,59.82,61.54,0
58,59.78,61.51,0
58,59.75,61.47,0
58,59.71,61.44,0
58,59.68,61.40,0
58,59.64,61.37,0
58,59.61,61.34,0
58,59.58,61.30,0
57,59.53,61.26,0
58,59.50,61.23,0
58,59.47,61.19,0
59,59.46,61.17,0
58,59.43,61.14,0
58,59.40,61.11,0
58,59.37,61.08,0
60,59.38,61.07,0
59,59.38,61.05,0
58,59.35,61.02,0
58,59.32,60.99,0
59,59.32,60.97,0
59,59.31,60.95,0
59,59.30,60.93,0
58,59.28,60.90,0
58,59.25,60.87,0
59,59.25,60.85,0
58,59.22,60.82,0
58,59.20,60.79,0
60,59.21,60.79,0
58,59.19,60.76,0
58,59.16,60.73,0
57,59.12,60.69,0
58,59.10,60.67,0
58,59.08,60.64,0
58,59.06,60.61,0
56,58.99,60.57,0
61,59.03,60.57,0
58,59.01,60.55,0
56,58.95,60.50,0
57,58.91,60.47,0
57,58.88,60.43,0
57,58.84,60.40,0
58,58.82,60.37,0
56,58.77,60.33,0
57,58.73,60.30,0
58,58.72,60.27,0
56,58.66,60.23,0
56,58.61,60.19,0
57,58.58,60.16,0
56,58.52,60.11,0
56,58.47,60.07,0
56,58.42,60.03,0
56,58.38,59.99,0
56,58.33,59.95,0
56,58.28,59.91,0
56,58.24,59.87,0
57,58.21,59.84,0
56,58.17,59.81,0
56,58.12,59.77,0
56,58.08,59.73,0
57,58.06,59.70,0
57,58.04,59.68,0
56,58.00,59.64,0
56,57.96,59.60,0
56,57.92,59.57,0
57,57.90,59.54,0
57,57.88,59.52,0
56,57.84,59.48,0
56,57.81,59.45,0
58,57.81,59.43,0
57,57.80,59.41,0
56,57.76,59.37,0
56,57.72,59.34,0
57,57.71,59.32,0
57,57.70,59.29,0
56,57.66,59.26,0
56,57.63,59.23,0
57,57.62,59.20,0
55,57.56,59.16,0
58,57.57,59.15,0
56,57.54,59.12,0
56,57.51,59.09,0
56,57.48,59.06,0
56,57.45,59.03,0
56,57.42,59.00,0
57,57.41,58.98,0
56,57.38,58.95,0
55,57.34,58.91,0
54,57.27,58.86,0
57,57.26,58.84,0
56,57.24,58.81,0
56,57.21,58.78,0
58,57.23,58.78,0
57,57.23,58.76,0
56,57.20,58.73,0
56,57.18,58.70,0
54,57.11,58.66,0
56,57.09,58.63,0
56,57.07,58.60,0
56,57.05,58.58,0
55,57.01,58.54,0
57,57.01,58.53,0
55,56.97,58.49,0
55,56.93,58.46,0
54,56.87,58.41,0
55,56.83,58.38,0
55,56.80,58.34,0
54,56.74,58.30,0
54,56.68,58.26,0
55,56.65,58.22,0
54,56.60,58.18,0
54,56.55,58.14,0
56,56.53,58.12,0
54,56.48,58.08,0
54,56.43,58.04,0
54,56.39,58.00,0
56,56.38,57.98,0
55,56.35,57.95,0
54,56.30,57.91,0
54,56.26,57.87,0
55,56.23,57.84,0
53,56.17,57.79,0
54,56.12,57.75,0
54,56.08,57.72,0
54,56.04,57.68,0
53,55.98,57.63,0
54,55.94,57.60,0
54,55.90,57.56,0
54,55.86,57.52,0
54,55.83,57.49,0
54,55.79,57.45,0
54,55.75,57.42,0
54,55.72,57.39,0
54,55.68,57.35,0
54,55.65,57.32,0
54,55.62,57.28,0
54,55.58,57.25,0
54,55.55,57.22,0
54,55.52,57.19,0
53,55.47,57.15,0
54,55.44,57.11,0
54,55.41,57.08,0
54,55.39,57.05,0
57,55.42,57.05,0
55,55.41,57.03,0
55,55.40,57.01,0
54,55.37,56.98,0
54,55.35,56.95,0
53,55.30,56.91,0
54,55.27,56.88,0
54,55.25,56.85,0
58,55.30,56.86,0
53,55.26,56.83,0
52,55.19,56.78,0
54,55.17,56.75,0
54,55.14,56.72,0
53,55.10,56.69,0
54,55.08,56.66,0
53,55.04,56.62,0
51,54.96,56.57,0
52,54.90,56.52,0
54,54.88,56.49,0
52,54.82,56.45,0
52,54.77,56.41,0
52,54.71,56.36,0
54,54.70,56.34,0
53,54.66,56.30,0
52,54.61,56.26,0
53,54.58,56.23,0
55,54.59,56.22,0
52,54.53,56.17,0
52,54.48,56.13,0
52,54.43,56.09,0
55,54.44,56.08,0
53,54.42,56.05,0
52,54.37,56.01,0
52,54.32,55.97,0
52,54.27,55.93,0
52,54.23,55.89,0
52,54.18,55.85,0
52,54.14,55.81,0
52,54.10,55.77,0
53,54.08,55.75,0
52,54.03,55.71,0
54,54.03,55.69,0
53,54.01,55.66,0
54,54.01,55.65,0
54,54.01,55.63,0
54,54.01,55.62,0
52,53.97,55.58,0
52,53.93,55.54,0
52,53.89,55.51,0
52,53.86,55.47,0
52,53.82,55.44,0
53,53.80,55.41,0
51,53.75,55.37,0
52,53.71,55.34,0
53,53.70,55.31,0
52,53.66,55.28,0
51,53.61,55.24,0
50,53.54,55.18,0
52,53.51,55.15,0
52,53.48,55.12,0
51,53.43,55.08,0
52,53.40,55.05,0
52,53.37,55.02,0
51,53.32,54.98,0
52,53.30,54.95,0
52,53.27,54.92,0
52,53.25,54.89,0
52,53.22,54.86,0
50,53.16,54.81,0
52,53.13,54.78,0
51,53.09,54.75,0
51,53.05,54.71,0
50,52.99,54.66,0
52,52.97,54.64,0
52,52.95,54.61,0
52,52.93,54.58,0
50,52.87,54.54,0
50,52.81,54.49,0
51,52.78,54.46,0
50,52.72,54.41,0
50,52.67,54.37,0
50,52.61,54.32,0
51,52.58,54.29,0
50,52.53,54.25,0
52,52.52,54.23,0
52,52.51,54.20,0
51,52.48,54.17,0
50,52.43,54.13,0
50,52.38,54.09,0
50,52.33,54.05,0
51,52.31,54.02,0
50,52.26,53.98,0
52,52.25,53.96,0
50,52.21,53.92,0
52,52.21,53.90,0
50,52.16,53.86,0
52,52.16,53.84,0
50,52.12,53.80,0
50,52.07,53.76,0
50,52.03,53.73,0
50,51.99,53.69,0
51,51.97,53.66,0
51,51.95,53.64,0
50,51.91,53.60,0
50,51.87,53.56,0
49,51.82,53.52,0
50,51.78,53.48,0
50,51.74,53.45,0
50,51.71,53.41,0
49,51.66,53.37,0
50,51.62,53.34,0
50,51.59,53.30,0
51,51.58,53.28,0
49,51.53,53.24,0
50,51.50,53.20,0
52,51.51,53.19,0
50,51.48,53.16,0
50,51.45,53.13,0
52,51.46,53.12,0
52,51.47,53.11,0
50,51.44,53.08,0
50,51.41,53.04,0
50,51.38,53.01,0
54,51.43,53.02,0
51,51.43,53.00,0
50,51.40,52.97,0
51,51.39,52.95,0
49,51.34,52.91,0
52,51.35,52.91,0
51,51.35,52.89,0
52,51.36,52.88,0
47,51.27,52.82,0
50,51.25,52.79,0
50,51.22,52.76,0
49,51.18,52.72,0
50,51.16,52.70,0
52,51.17,52.69,0
50,51.15,52.66,0
52,51.17,52.66,0
48,51.10,52.61,0
50,51.08,52.58,0
51,51.08,52.57,0
52,51.10,52.56,0
51,51.10,52.55,0
52,51.11,52.54,0
50,51.09,52.52,0
49,51.05,52.48,0
50,51.03,52.46,0
52,51.05,52.45,0
50,51.03,52.43,0
51,51.03,52.41,0
53,51.07,52.42,0
51,51.06,52.40,0
52,51.08,52.40,0
52,51.10,52.40,0
50,51.08,52.37,0
51,51.08,52.36,0
50,51.06,52.34,0
50,51.04,52.31,0
50,51.01,52.29,0
50,50.99,52.27,0
50,50.97,52.24,0
51,50.97,52.23,0
51,50.98,52.22,0
52,51.00,52.22,0
50,50.98,52.19,0
50,50.96,52.17,0
50,50.94,52.15,0
50,50.92,52.13,0
52,50.94,52.13,0
50,50.92,52.11,0
50,50.90,52.09,0
50,50.88,52.06,0
52,50.91,52.06,0
50,50.89,52.04,0
50,50.87,52.02,0
50,50.85,52.00,0
50,50.84,51.98,0
51,50.84,51.97,0
50,50.82,51.95,0
50,50.81,51.93,0
50,50.79,51.91,0
50,50.77,51.89,0
50,50.76,51.88,0
50,50.74,51.86,0
49,50.71,51.83,0
50,50.69,51.81,0
49,50.66,51.78,0
50,50.65,51.76,0
47,50.57,51.72,0
50,50.56,51.70,0
50,50.55,51.68,0
50,50.54,51.67,0
49,50.51,51.64,0
49,50.48,51.61,0
48,50.43,51.58,0
49,50.40,51.55,0
49,50.37,51.53,0
50,50.37,51.51,0
48,50.32,51.48,0
49,50.29,51.45,0
49,50.27,51.43,0
48,50.22,51.39,0
48,50.18,51.36,0
48,50.13,51.32,0
49,50.11,51.30,0
48,50.07,51.27,0
52,50.11,51.28,0
48,50.07,51.24,0
49,50.04,51.22,0
48,50.00,51.19,0
49,49.98,51.17,0
48,49.94,51.13,0
49,49.92,51.11,0
48,49.89,51.08,0
49,49.87,51.06,0
47,49.81,51.02,0
47,49.75,50.98,0
50,49.76,50.97,0
47,49.70,50.93,0
48,49.67,50.90,0
47,49.62,50.86,0
47,49.56,50.82,0
47,49.51,50.79,0
47,49.46,50.75,0
47,49.41,50.71,0
48,49.39,50.68,0
49,49.38,50.67,0
48,49.35,50.64,0
47,49.30,50.60,0
49,49.30,50.59,0
49,49.29,50.57,0
48,49.27,50.55,0
47,49.22,50.51,0
48,49.20,50.48,0
50,49.21,50.48,0
48,49.19,50.46,0
46,49.12,50.41,0
50,49.14,50.41,0
47,49.10,50.37,0
46,49.04,50.33,0
47,49.00,50.30,0
47,48.96,50.26,0
46,48.90,50.22,0
46,48.84,50.18,0
46,48.78,50.14,0
47,48.75,50.10,0
47,48.71,50.07,0
46,48.66,50.03,0
47,48.62,50.00,0
47,48.59,49.97,0
47,48.56,49.94,0
46,48.51,49.90,0
46,48.46,49.86,0
48,48.45,49.85,0
46,48.40,49.81,0
46,48.35,49.77,0
46,48.31,49.73,0
46,48.26,49.69,0
46,48.21,49.66,0
46,48.17,49.62,0
46,48.13,49.58,0
45,48.06,49.54,0
46,48.02,49.50,0
46,47.98,49.47,0
45,47.92,49.42,0
46,47.88,49.39,0
47,47.87,49.37,0
46,47.83,49.33,0
46,47.79,49.30,0
46,47.76,49.27,0
46,47.72,49.23,0
46,47.69,49.20,0
46,47.65,49.17,0
46,47.62,49.14,0
46,47.59,49.11,0
46,47.56,49.07,0
46,47.52,49.04,0
47,47.51,49.02,0
47,47.50,49.00,0
46,47.47,48.97,0
46,47.44,48.94,0
46,47.42,48.91,0
46,47.39,48.88,0
46,47.36,48.86,0
47,47.35,48.84,0
48,47.37,48.83,0
48,47.38,48.82,0
46,47.35,48.79,0
46,47.32,48.76,0
46,47.30,48.74,0
46,47.27,48.71,0
46,47.25,48.68,0
46,47.22,48.66,0
46,47.20,48.63,0
46,47.17,48.60,0
46,47.15,48.58,0
46,47.13,48.55,0
46,47.10,48.53,0
46,47.08,48.50,0
46,47.06,48.48,0
45,47.02,48.44,0
46,47.00,48.42,0
48,47.02,48.41,0
45,46.98,48.38,0
45,46.94,48.34,0
46,46.92,48.32,0
45,46.88,48.29,0
46,46.86,48.26,0
45,46.83,48.23,0
44,46.77,48.19,0
47,46.77,48.18,0
46,46.76,48.16,0
46,46.74,48.13,0
45,46.71,48.10,0
45,46.67,48.07,0
44,46.62,48.03,0
45,46.59,48.00,0
46,46.58,47.98,0
46,46.57,47.96,0
47,46.57,47.95,0
46,46.56,47.93,0
47,46.57,47.92,0
45,46.54,47.89,0
46,46.53,47.87,0
45,46.50,47.85,0
46,46.49,47.83,0
45,46.46,47.80,0
45,46.43,47.77,0
46,46.42,47.75,0
48,46.45,47.76,0
46,46.44,47.74,0
45,46.41,47.71,0
46,46.41,47.69,0
46,46.40,47.68,0
46,46.39,47.66,0
45,46.36,47.63,0
46,46.36,47.62,0
47,46.37,47.61,0
47,46.38,47.60,0
46,46.37,47.59,0
46,46.37,47.57,0
45,46.34,47.55,0
45,46.31,47.52,0
46,46.31,47.51,0
46,46.30,47.49,0
45,46.27,47.47,0
46,46.27,47.45,0
45,46.24,47.43,0
44,46.20,47.39,0
45,46.17,47.37,0
44,46.13,47.34,0
44,46.09,47.30,0
46,46.09,47.29,0
45,46.06,47.27,0
44,46.02,47.23,0
46,46.02,47.22,0
44,45.98,47.19,0
45,45.96,47.17,0
44,45.92,47.14,0
46,45.92,47.12,0
46,45.93,47.11,0
44,45.89,47.08,0
44,45.85,47.05,0
44,45.81,47.02,0
44,45.78,46.99,0
46,45.78,46.98,0
43,45.73,46.94,0
44,45.69,46.91,0
46,45.70,46.90,0
46,45.70,46.89,0
46,45.71,46.88,0
46,45.71,46.88,0
46,45.72,46.87,0
46,45.73,46.86,0
46,45.73,46.85,0
48,45.78,46.86,0
47,45.80,46.86,0
47,45.83,46.86,0
49,45.89,46.88,0
46,45.89,46.88,0
45,45.87,46.86,0
46,45.88,46.85,0
46,45.88,46.84,0
46,45.88,46.83,0
46,45.88,46.82,0
49,45.95,46.85,0
46,45.95,46.84,0
46,45.95,46.83,0
47,45.97,46.83,0
47,45.99,46.83,0
48,46.03,46.84,0
47,46.05,46.84,0
49,46.11,46.87,0
54,46.27,46.94,0
48,46.30,46.95,0
50,46.37,46.98,0
50,46.45,47.01,0
48,46.48,47.02,0
48,46.51,47.03,0
48,46.54,47.04,0
47,46.55,47.04,0
49,46.60,47.06,0
48,46.62,47.07,0
48,46.65,47.08,0
48,46.68,47.09,0
47,46.69,47.08,0
47,46.69,47.08,0
48,46.72,47.09,0
48,46.74,47.10,0
48,46.77,47.11,0
50,46.83,47.14,0
47,46.84,47.14,0
48,46.86,47.15,0
47,46.86,47.15,0
48,46.89,47.15,0
47,46.89,47.15,0
49,46.93,47.17,0
48,46.95,47.18,0
49,46.99,47.20,0
50,47.05,47.23,0
50,47.11,47.25,0
49,47.15,47.27,0
49,47.19,47.29,0
48,47.20,47.30,0
48,47.22,47.30,0
49,47.25,47.32,0
52,47.35,47.37,0
49,47.38,47.38,0
47,47.37,47.38,0
48,47.39,47.39,0
49,47.42,47.40,0
48,47.43,47.41,0
48,47.44,47.41,0
51,47.51,47.45,0
49,47.54,47.46,0
47,47.53,47.46,0
49,47.56,47.48,0
52,47.65,47.52,0
49,47.68,47.54,0
50,47.72,47.56,0
48,47.73,47.56,0
49,47.75,47.58,0
49,47.78,47.59,0
50,47.82,47.62,0
50,47.87,47.64,0
49,47.89,47.65,0
51,47.95,47.69,0
48,47.95,47.69,0
48,47.95,47.69,0
52,48.04,47.74,0
49,48.05,47.75,0
52,48.13,47.79,0
50,48.17,47.81,0
51,48.23,47.85,0
50,48.26,47.87,0
50,48.30,47.89,0
50,48.33,47.91,0
50,48.36,47.93,0
50,48.40,47.95,0
52,48.47,47.99,0
48,48.46,47.99,0
50,48.49,48.01,0
50,48.52,48.03,0
52,48.59,48.07,0
50,48.62,48.09,0
52,48.69,48.13,0
51,48.73,48.16,0
55,48.86,48.23,0
52,48.92,48.27,0
52,48.98,48.30,0
53,49.06,48.35,0
54,49.16,48.41,0
50,49.18,48.42,0
51,49.21,48.45,0
51,49.25,48.47,0
52,49.31,48.51,0
55,49.42,48.57,0
51,49.45,48.60,0
51,49.48,48.62,0
50,49.49,48.64,0
52,49.54,48.67,0
53,49.61,48.71,0
54,49.70,48.77,0
48,49.67,48.76,0
52,49.71,48.79,0
53,49.78,48.83,0
58,49.94,48.92,0
56,50.06,48.99,0
54,50.14,49.04,0
55,50.24,49.10,0
54,50.31,49.15,0
54,50.39,49.20,0
53,50.44,49.24,0
54,50.51,49.29,0
55,50.60,49.34,0
54,50.67,49.39,0
53,50.72,49.43,0
53,50.76,49.46,0
54,50.83,49.51,0
54,50.89,49.55,0
53,50.93,49.59,0
54,50.99,49.63,0
54,51.05,49.68,0
54,51.11,49.72,0
53,51.15,49.75,0
54,51.21,49.79,0
54,51.26,49.84,0
54,51.32,49.88,0
54,51.37,49.92,0
54,51.42,49.96,0
54,51.48,50.00,0
54,51.53,50.04,0
53,51.56,50.07,0
55,51.62,50.12,0
56,51.71,50.18,0
54,51.76,50.22,0
53,51.78,50.24,0
53,51.81,50.27,0
54,51.85,50.31,0
56,51.93,50.37,0
53,51.96,50.39,0
55,52.02,50.44,0
56,52.10,50.49,0
56,52.17,50.55,0
55,52.23,50.59,0
53,52.25,50.62,0
56,52.32,50.67,0
58,52.43,50.74,0
58,52.55,50.82,0
57,52.63,50.88,0
56,52.70,50.93,0
56,52.77,50.98,0
58,52.87,51.05,0
56,52.94,51.10,0
55,52.98,51.14,0
56,53.04,51.19,0
55,53.08,51.23,0
55,53.11,51.26,0
57,53.19,51.32,0
58,53.29,51.39,0
58,53.38,51.45,0
60,53.52,51.54,0
58,53.60,51.60,0
56,53.65,51.65,0
60,53.78,51.73,0
63,53.96,51.84,0
57,54.02,51.90,0
58,54.10,51.96,0
57,54.16,52.01,0
59,54.26,52.08,0
59,54.35,52.15,0
59,54.45,52.22,0
58,54.52,52.27,0
60,54.63,52.35,0
58,54.69,52.41,0
62,54.84,52.50,0
60,54.94,52.58,0
60,55.05,52.65,0
62,55.18,52.75,0
58,55.24,52.80,0
62,55.38,52.89,0
60,55.47,52.96,0
60,55.56,53.03,0
58,55.61,53.08,0
58,55.66,53.13,0
58,55.70,53.18,0
58,55.75,53.23,0
58,55.79,53.27,0
62,55.92,53.36,0
63,56.06,53.46,0
60,56.14,53.52,0
62,56.26,53.61,0
62,56.37,53.69,0
59,56.42,53.75,0
66,56.61,53.87,0
68,56.84,54.01,0
64,56.99,54.11,0
64,57.13,54.21,0
64,57.26,54.31,0
64,57.40,54.40,0
64,57.53,54.50,0
64,57.66,54.59,0
68,57.87,54.73,0
64,57.99,54.82,0
64,58.11,54.91,0
63,58.21,54.99,0
64,58.32,55.08,0
64,58.44,55.17,0
64,58.55,55.26,0
65,58.68,55.36,0
63,58.76,55.43,0
68,58.95,55.56,0
66,59.09,55.66,0
63,59.17,55.74,0
64,59.26,55.82,0
68,59.44,55.94,0
65,59.55,56.03,0
66,59.68,56.13,0
65,59.79,56.22,0
70,59.99,56.36,0
71,60.21,56.51,0
71,60.43,56.65,0
72,60.66,56.80,0
68,60.80,56.92,0
68,60.95,57.03,0
66,61.05,57.12,0
66,61.15,57.21,0
68,61.28,57.31,0
71,61.48,57.45,0
69,61.63,57.57,0
69,61.78,57.68,0
74,62.02,57.84,0
69,62.16,57.96,0
72,62.36,58.10,0
72,62.55,58.23,0
70,62.70,58.35,0
69,62.83,58.46,0
72,63.01,58.59,0
69,63.13,58.70,0
71,63.29,58.82,0
70,63.42,58.93,0
69,63.53,59.03,0
69,63.64,59.13,0
69,63.75,59.23,0
72,63.91,59.36,0
70,64.04,59.47,0
71,64.17,59.58,0
70,64.29,59.69,0
71,64.43,59.80,0
76,64.66,59.96,0
79,64.94,60.15,0
78,65.20,60.33,0
73,65.36,60.46,0
72,65.49,60.57,0
72,65.62,60.69,0
76,65.83,60.84,0
84,66.19,61.07,0
87,66.61,61.33,0
79,66.86,61.51,0
78,67.08,61.67,0
74,67.22,61.79,0
79,67.46,61.97,0
79,67.69,62.14,0
78,67.89,62.30,0
78,68.09,62.45,0
79,68.31,62.62,0
80,68.55,62.79,0
77,68.72,62.93,0
78,68.90,63.09,0
79,69.10,63.24,0
79,69.30,63.40,0
78,69.48,63.55,0
78,69.65,63.69,0
77,69.79,63.83,0
77,69.94,63.96,0
76,70.06,64.08,0
78,70.22,64.22,0
80,70.41,64.37,0
80,70.60,64.53,0
80,70.79,64.69,0
79,70.96,64.83,0
79,71.12,64.97,0
82,71.34,65.14,0
82,71.55,65.31,0
80,71.72,65.46,0
80,71.88,65.60,0
80,72.05,65.75,0
78,72.16,65.87,0
79,72.30,66.00,0
81,72.48,66.15,0
80,72.63,66.29,0
80,72.77,66.43,0
82,72.96,66.58,0
83,73.16,66.75,0
80,73.30,66.88,0
86,73.55,67.07,0
86,73.80,67.26,0
89,74.10,67.48,0
88,74.38,67.68,0
84,74.57,67.84,0
88,74.84,68.05,0
89,75.12,68.26,0
88,75.38,68.45,0
86,75.59,68.63,0
87,75.82,68.81,0
86,76.03,68.98,0
86,76.23,69.15,0
86,76.42,69.32,0
86,76.61,69.49,0
85,76.78,69.64,0
86,76.96,69.81,0
84,77.11,69.95,0
84,77.24,70.09,0
86,77.42,70.25,0
86,77.59,70.41,0
84,77.72,70.54,0
85,77.86,70.69,0
88,78.07,70.86,0
87,78.25,71.02,0
86,78.40,71.17,0
85,78.53,71.31,0
86,78.68,71.46,0
84,78.79,71.58,0
84,78.89,71.71,0
84,78.99,71.83,0
86,79.13,71.97,0
88,79.31,72.13,0
84,79.41,72.25,0
83,79.48,72.36,0
85,79.59,72.48,0
84,79.68,72.60,0
84,79.76,72.71,0
84,79.85,72.83,0
83,79.91,72.93,0
85,80.01,73.05,0
84,80.09,73.16,0
84,80.17,73.27,0
84,80.25,73.37,0
84,80.32,73.48,0
83,80.38,73.58,0
82,80.41,73.66,0
82,80.44,73.74,0
83,80.49,73.84,0
84,80.56,73.94,0
84,80.63,74.04,0
84,80.70,74.14,0
86,80.80,74.26,0
84,80.87,74.35,0
82,80.89,74.43,0
84,80.95,74.53,0
83,80.99,74.61,0
82,81.01,74.68,0
84,81.07,74.78,0
85,81.15,74.88,0
82,81.17,74.95,0
82,81.19,75.02,0
82,81.20,75.09,0
81,81.20,75.15,0
82,81.21,75.22,0
82,81.23,75.29,0
82,81.24,75.35,0
83,81.28,75.43,0
82,81.29,75.50,0
82,81.31,75.56,0
82,81.32,75.63,0
81,81.32,75.68,0
82,81.33,75.74,0
82,81.34,75.80,0
82,81.36,75.87,0
81,81.35,75.92,0
82,81.36,75.98,0
80,81.33,76.02,0
82,81.35,76.08,0
81,81.34,76.13,0
81,81.33,76.18,0
80,81.31,76.21,0
82,81.32,76.27,0
81,81.31,76.32,0
82,81.33,76.38,0
82,81.34,76.43,0
82,81.36,76.49,0
82,81.37,76.54,0
80,81.34,76.58,0
82,81.35,76.63,0
81,81.35,76.68,0
81,81.34,76.72,0
80,81.31,76.75,0
80,81.29,76.78,0
79,81.24,76.81,0
80,81.22,76.84,0
80,81.19,76.87,0
80,81.17,76.90,0
80,81.14,76.93,0
80,81.12,76.96,0
80,81.10,76.99,0
80,81.08,77.02,0
82,81.10,77.07,0
81,81.09,77.11,0
80,81.07,77.14,0
82,81.09,77.19,0
80,81.07,77.22,0
82,81.09,77.27,0
80,81.07,77.29,0
78,81.00,77.30,0
79,80.96,77.32,0
80,80.95,77.34,0
82,80.97,77.39,0
81,80.97,77.43,0
81,80.97,77.46,0
80,80.95,77.49,0
80,80.93,77.51,0
80,80.91,77.54,0
79,80.87,77.55,0
80,80.85,77.58,0
79,80.82,77.59,0
78,80.76,77.60,0
79,80.73,77.61,0
78,80.67,77.61,0
78,80.62,77.62,0
79,80.59,77.63,0
79,80.55,77.65,0
78,80.50,77.65,0
78,80.45,77.65,0
78,80.40,77.66,0
78,80.36,77.66,0
78,80.31,77.66,0
78,80.26,77.67,0
77,80.20,77.66,0
77,80.13,77.65,0
79,80.11,77.67,0
77,80.05,77.66,0
77,79.99,77.65,0
82,80.03,77.70,0
79,80.01,77.71,0
77,79.95,77.70,0
78,79.91,77.71,0
77,79.85,77.70,0
79,79.83,77.71,0
77,79.78,77.70,0
77,79.72,77.70,0
75,79.63,77.67,0
78,79.59,77.67,0
77,79.54,77.67,0
76,79.47,77.65,0
76,79.40,77.63,0
79,79.39,77.65,0
76,79.33,77.63,0
76,79.26,77.61,0
74,79.15,77.58,0
77,79.11,77.57,0
76,79.05,77.56,0
76,78.99,77.54,0
76,78.93,77.53,0
76,78.87,77.51,0
76,78.81,77.50,0
75,78.74,77.47,0
74,78.64,77.44,0
76,78.59,77.42,0
76,78.54,77.41,0
74,78.45,77.37,0
74,78.36,77.34,0
77,78.33,77.34,0
75,78.26,77.31,0
74,78.18,77.28,0
74,78.09,77.25,0
75,78.03,77.22,0
74,77.95,77.19,0
74,77.87,77.16,0
74,77.80,77.13,0
76,77.76,77.12,0
74,77.68,77.09,0
74,77.61,77.06,0
74,77.54,77.02,0
74,77.47,76.99,0
74,77.40,76.96,0
74,77.33,76.93,0
74,77.26,76.91,0
73,77.18,76.87,0
74,77.11,76.84,0
74,77.05,76.81,0
72,76.95,76.76,0
74,76.89,76.73,0
73,76.81,76.70,0
74,76.76,76.67,0
73,76.68,76.63,0
75,76.65,76.62,0
73,76.58,76.58,0
74,76.53,76.55,0
74,76.47,76.53,0
73,76.41,76.49,0
74,76.36,76.47,0
72,76.27,76.42,0
72,76.18,76.38,0
73,76.12,76.35,0
72,76.04,76.30,0
70,75.92,76.24,0
72,75.84,76.20,0
72,75.76,76.15,0
72,75.69,76.11,0
73,75.63,76.08,0
74,75.60,76.06,0
72,75.53,76.02,0
75,75.52,76.01,0
72,75.45,75.97,0
72,75.38,75.93,0
72,75.31,75.89,0
72,75.25,75.85,0
70,75.14,75.79,0
72,75.08,75.76,0
72,75.02,75.72,0
72,74.96,75.68,0
72,74.90,75.64,0
72,74.84,75.61,0
71,74.76,75.56,0
70,74.67,75.51,0
70,74.57,75.45,0
72,74.52,75.42,0
71,74.45,75.37,0
70,74.36,75.32,0
72,74.32,75.29,0
70,74.23,75.23,0
70,74.14,75.18,0
70,74.06,75.13,0
70,73.98,75.08,0
70,73.90,75.03,0
70,73.82,74.98,0
69,73.73,74.92,0
70,73.65,74.87,0
70,73.58,74.82,0
70,73.51,74.77,0
71,73.46,74.73,0
70,73.39,74.69,0
70,73.32,74.64,0
71,73.27,74.60,0
70,73.21,74.56,0
69,73.12,74.50,0
70,73.06,74.46,0
70,73.00,74.41,0
69,72.92,74.36,0
68,72.82,74.29,0
69,72.75,74.24,0
71,72.71,74.21,0
69,72.64,74.16,0
69,72.56,74.10,0
70,72.51,74.06,0
71,72.48,74.03,0
70,72.43,73.99,0
72,72.42,73.97,0
69,72.36,73.92,0
69,72.29,73.87,0
69,72.22,73.82,0
69,72.16,73.78,0
68,72.07,73.72,0
71,72.05,73.69,0
69,71.99,73.64,0
70,71.95,73.61,0
68,71.87,73.55,0
69,71.82,73.51,0
71,71.80,73.48,0
68,71.72,73.43,0
68,71.65,73.37,0
69,71.60,73.33,0
68,71.52,73.28,0
66,71.41,73.20,0
70,71.39,73.17,0
68,71.32,73.12,0
69,71.27,73.08,0
68,71.21,73.03,0
68,71.14,72.98,0
68,71.08,72.93,0
68,71.02,72.88,0
68,70.96,72.83,0
68,70.90,72.78,0
68,70.84,72.73,0
67,70.76,72.68,0
66,70.67,72.61,0
68,70.61,72.56,0
67,70.54,72.51,0
67,70.47,72.45,0
68,70.42,72.41,0
68,70.37,72.36,0
67,70.31,72.31,0
67,70.24,72.26,0
66,70.16,72.19,0
67,70.09,72.14,0
66,70.01,72.08,0
66,69.93,72.02,0
66,69.85,71.96,0
66,69.77,71.90,0
68,69.74,71.86,0
68,69.70,71.82,0
66,69.63,71.76,0
66,69.56,71.71,0
67,69.51,71.66,0
67,69.46,71.61,0
68,69.43,71.58,0
68,69.40,71.54,0
66,69.33,71.49,0
68,69.30,71.45,0
68,69.28,71.42,0
68,69.25,71.38,0
68,69.23,71.35,0
66,69.16,71.29,0
68,69.14,71.26,0
67,69.10,71.22,0
66,69.03,71.17,0
66,68.97,71.12,0
66,68.91,71.06,0
66,68.86,71.01,0
66,68.80,70.96,0
66,68.74,70.91,0
65,68.67,70.85,0
65,68.59,70.80,0
67,68.56,70.76,0
66,68.51,70.71,0
66,68.46,70.66,0
66,68.41,70.62,0
66,68.36,70.57,0
66,68.32,70.53,0
66,68.27,70.48,0
65,68.21,70.43,0
66,68.16,70.38,0
65,68.10,70.33,0
66,68.06,70.28,0
65,67.99,70.23,0
66,67.95,70.19,0
67,67.94,70.16,0
66,67.90,70.12,0
66,67.86,70.07,0
66,67.82,70.03,0
65,67.77,69.98,0
64,67.69,69.92,0
65,67.64,69.87,0
65,67.58,69.83,0
65,67.53,69.78,0
66,67.50,69.74,0
66,67.47,69.70,0
68,67.48,69.68,0
65,67.43,69.64,0
64,67.36,69.58,0
65,67.32,69.54,0
66,67.29,69.50,0
68,67.30,69.49,0
66,67.28,69.45,0
65,67.23,69.41,0
69,67.27,69.40,0
68,67.28,69.39,0
66,67.26,69.35,0
66,67.23,69.32,0
67,67.23,69.30,0
68,67.24,69.28,0
66,67.22,69.25,0
66,67.19,69.22,0
68,67.21,69.21,0
66,67.19,69.17,0
66,67.16,69.14,0
66,67.14,69.11,0
67,67.14,69.09,0
68,67.15,69.08,0
66,67.13,69.05,0
66,67.11,69.02,0
67,67.11,69.00,0
66,67.08,68.97,0
66,67.06,68.94,0
66,67.04,68.91,0
65,67.00,68.87,0
66,66.98,68.84,0
64,66.92,68.79,0
68,66.94,68.78,0
66,66.92,68.76,0
65,66.88,68.72,0
64,66.83,68.67,0
66,66.81,68.65,0
66,66.79,68.62,0
66,66.78,68.59,0
66,66.76,68.57,0
64,66.71,68.52,0
66,66.69,68.50,0
64,66.64,68.45,0
64,66.59,68.41,0
65,66.55,68.37,0
67,66.56,68.36,0
65,66.53,68.33,0
64,66.48,68.28,0
65,66.45,68.25,0
65,66.42,68.22,0
65,66.39,68.18,0
64,66.35,68.14,0
64,66.30,68.10,0
65,66.27,68.07,0
66,66.27,68.05,0
64,66.22,68.01,0
66,66.22,67.99,0
65,66.19,67.96,0
64,66.15,67.92,0
64,66.11,67.88,0
64,66.06,67.84,0
68,66.10,67.84,0
64,66.06,67.80,0
64,66.02,67.77,0
65,66.00,67.74,0
64,65.96,67.70,0
63,65.90,67.65,0
64,65.86,67.62,0
66,65.87,67.60,0
64,65.83,67.57,0
63,65.77,67.52,0
64,65.74,67.48,0
65,65.72,67.46,0
64,65.69,67.43,0
64,65.65,67.39,0
65,65.64,67.37,0
64,65.61,67.33,0
65,65.60,67.31,0
64,65.56,67.28,0
64,65.53,67.24,0
64,65.50,67.21,0
64,65.47,67.18,0
63,65.42,67.14,0
64,65.39,67.11,0
63,65.35,67.07,0
65,65.34,67.05,0
62,65.27,66.99,0
64,65.25,66.96,0
64,65.22,66.93,0
63,65.18,66.90,0
63,65.13,66.86,0
64,65.11,66.83,0
62,65.05,66.78,0
64,65.03,66.75,0
64,65.01,66.72,0
63,64.97,66.69,0
63,64.93,66.65,0
64,64.91,66.62,0
61,64.83,66.57,0
63,64.79,66.53,0
63,64.76,66.50,0
63,64.72,66.46,0
64,64.71,66.44,0
63,64.67,66.40,0
62,64.62,66.36,0
63,64.59,66.33,0
64,64.58,66.30,0
63,64.55,66.27,0
62,64.49,66.23,0
63,64.46,66.19,0
65,64.48,66.18,0
62,64.43,66.14,0
62,64.38,66.10,0
61,64.31,66.05,0
62,64.26,66.01,0
62,64.22,65.97,0
62,64.17,65.93,0
62,64.13,65.89,0
61,64.07,65.84,0
62,64.03,65.80,0
62,63.99,65.76,0
61,63.93,65.72,0
61,63.87,65.67,0
62,63.83,65.63,0
60,63.75,65.58,0
61,63.70,65.53,0
62,63.66,65.49,0
62,63.63,65.46,0
62,63.60,65.42,0
61,63.55,65.38,0
62,63.52,65.35,0
61,63.47,65.30,0
60,63.40,65.25,0
61,63.35,65.21,0
60,63.28,65.16,0
60,63.22,65.10,0
60,63.15,65.05,0
60,63.09,65.00,0
60,63.03,64.95,0
60,62.97,64.90,0
60,62.91,64.85,0
62,62.89,64.83,0
60,62.83,64.78,0
60,62.77,64.73,0
61,62.74,64.69,0
60,62.68,64.65,0
60,62.63,64.60,0
60,62.58,64.55,0
61,62.55,64.52,0
60,62.50,64.47,0
59,62.43,64.42,0
60,62.38,64.37,0
60,62.33,64.33,0
59,62.26,64.28,0
60,62.22,64.23,0
58,62.13,64.17,0
58,62.05,64.11,0
57,61.95,64.04,0
58,61.87,63.98,0
58,61.79,63.92,0
60,61.76,63.88,0
59,61.70,63.83,0
58,61.63,63.77,0
60,61.60,63.73,0
60,61.56,63.70,0
58,61.49,63.64,0
58,61.42,63.58,0
60,61.39,63.55,0
60,61.37,63.51,0
59,61.32,63.47,0
58,61.25,63.41,0
58,61.19,63.36,0
60,61.16,63.32,0
59,61.12,63.28,0
58,61.06,63.23,0
58,61.00,63.18,0
58,60.94,63.12,0
58,60.88,63.07,0
58,60.82,63.02,0
58,60.76,62.97,0
57,60.69,62.91,0
59,60.66,62.87,0
57,60.58,62.81,0
58,60.53,62.77,0
58,60.48,62.72,0
58,60.43,62.67,0
60,60.42,62.64,0
58,60.37,62.60,0
58,60.33,62.55,0
58,60.28,62.51,0
58,60.23,62.46,0
58,60.19,62.42,0
57,60.13,62.36,0
60,60.12,62.34,0
60,60.12,62.32,0
58,60.08,62.27,0
58,60.04,62.23,0
58,60.00,62.19,0
57,59.94,62.14,0
57,59.88,62.08,0
58,59.84,62.04,0
61,59.86,62.03,0
58,59.83,61.99,0
58,59.79,61.95,0
59,59.77,61.92,0
57,59.72,61.87,0
58,59.68,61.84,0
58,59.65,61.80,0
58,59.62,61.76,0
57,59.56,61.71,0
58,59.53,61.67,0
58,59.50,61.64,0
58,59.47,61.60,0
57,59.42,61.56,0
57,59.37,61.51,0
56,59.31,61.45,0
57,59.26,61.41,0
57,59.22,61.37,0
57,59.17,61.32,0
56,59.11,61.27,0
56,59.05,61.22,0
57,59.00,61.17,0
56,58.94,61.12,0
56,58.89,61.07,0
57,58.85,61.03,0
56,58.79,60.98,0
56,58.74,60.93,0
56,58.68,60.88,0
56,58.63,60.83,0
57,58.59,60.79,0
56,58.54,60.75,0
56,58.49,60.70,0
57,58.46,60.66,0
57,58.43,60.63,0
55,58.36,60.57,0
56,58.32,60.52,0
56,58.27,60.48,0
57,58.24,60.44,0
55,58.18,60.39,0
56,58.14,60.34,0
56,58.09,60.30,0
56,58.05,60.26,0
57,58.03,60.23,0
56,57.99,60.18,0
56,57.95,60.14,0
56,57.91,60.10,0
57,57.89,60.07,0
54,57.82,60.01,0
56,57.78,59.97,0
57,57.76,59.94,0
56,57.73,59.90,0
54,57.65,59.84,0
56,57.62,59.80,0
56,57.59,59.76,0
56,57.56,59.73,0
56,57.53,59.69,0
60,57.57,59.69,0
56,57.54,59.66,0
54,57.47,59.60,0
54,57.40,59.54,0
56,57.37,59.51,0
56,57.35,59.47,0
54,57.28,59.42,0
56,57.25,59.38,0
55,57.21,59.34,0
55,57.17,59.30,0
56,57.14,59.26,0
54,57.08,59.21,0
55,57.04,59.17,0
55,57.00,59.13,0
54,56.94,59.08,0
56,56.92,59.04,0
53,56.84,58.98,0
57,56.84,58.96,0
56,56.83,58.93,0
56,56.81,58.91,0
56,56.79,58.88,0
55,56.76,58.84,0
56,56.74,58.81,0
56,56.73,58.78,0
55,56.69,58.74,0
54,56.64,58.70,0
55,56.61,58.66,0
56,56.59,58.63,0
56,56.58,58.61,0
55,56.55,58.57,0
56,56.54,58.54,0
56,56.53,58.52,0
55,56.50,58.48,0
54,56.45,58.44,0
55,56.42,58.40,0
54,56.37,58.36,0
56,56.36,58.34,0
55,56.34,58.30,0
56,56.33,58.28,0
56,56.32,58.26,0
55,56.30,58.23,0
54,56.25,58.18,0
54,56.21,58.14,0
54,56.16,58.10,0
54,56.12,58.06,0
55,56.10,58.03,0
54,56.05,57.99,0
55,56.03,57.96,0
54,55.99,57.92,0
55,55.97,57.89,0
54,55.93,57.85,0
54,55.89,57.81,0
54,55.86,57.77,0
53,55.80,57.73,0
54,55.76,57.69,0
54,55.73,57.65,0
54,55.69,57.62,0
53,55.64,57.57,0
54,55.61,57.53,0
54,55.57,57.50,0
54,55.54,57.46,0
53,55.49,57.42,0
54,55.46,57.38,0
54,55.43,57.35,0
54,55.40,57.32,0
55,55.40,57.29,0
53,55.35,57.25,0
52,55.28,57.20,0
52,55.22,57.15,0
53,55.17,57.10,0
54,55.15,57.07,0
52,55.09,57.02,0
54,55.06,56.99,0
53,55.02,56.95,0
53,54.98,56.91,0
53,54.94,56.87,0
54,54.92,56.85,0
54,54.90,56.82,0
54,54.89,56.79,0
52,54.83,56.74,0
52,54.77,56.69,0
54,54.76,56.67,0
54,54.74,56.64,0
52,54.69,56.59,0
52,54.63,56.55,0
53,54.60,56.51,0
52,54.55,56.47,0
52,54.50,56.42,0
52,54.45,56.38,0
52,54.40,56.33,0
52,54.35,56.29,0
52,54.30,56.25,0
54,54.30,56.23,0
53,54.27,56.19,0
52,54.23,56.15,0
52,54.18,56.11,0
52,54.14,56.07,0
52,54.10,56.03,0
51,54.03,55.98,0
52,53.99,55.94,0
52,53.95,55.90,0
51,53.89,55.85,0
50,53.82,55.79,0
50,53.74,55.73,0
52,53.70,55.70,0
53,53.69,55.67,0
52,53.66,55.63,0
52,53.62,55.60,0
52,53.59,55.56,0
52,53.56,55.52,0
52,53.53,55.49,0
52,53.50,55.45,0
52,53.47,55.42,0
51,53.42,55.38,0
54,53.43,55.36,0
57,53.50,55.38,0
52,53.47,55.34,0
51,53.42,55.30,0
53,53.41,55.28,0
52,53.39,55.25,0
53,53.38,55.22,0
51,53.33,55.18,0
52,53.30,55.15,0
58,53.40,55.18,0
52,53.37,55.15,0
51,53.32,55.10,0
52,53.30,55.07,0
52,53.27,55.04,0
52,53.24,55.01,0
52,53.22,54.98,0
53,53.22,54.96,0
50,53.15,54.91,0
53,53.15,54.89,0
52,53.12,54.86,0
52,53.10,54.84,0
52,53.08,54.81,0
52,53.06,54.78,0
52,53.04,54.75,0
52,53.02,54.72,0
52,53.00,54.70,0
52,52.98,54.67,0
51,52.94,54.63,0
52,52.92,54.61,0
50,52.86,54.56,0
50,52.80,54.51,0
50,52.75,54.47,0
52,52.73,54.45,0
51,52.70,54.41,0
50,52.64,54.37,0
51,52.61,54.33,0
50,52.56,54.29,0
52,52.55,54.27,0
51,52.52,54.23,0
52,52.51,54.21,0
50,52.46,54.17,0
50,52.41,54.13,0
50,52.36,54.09,0
51,52.33,54.06,0
50,52.28,54.02,0
50,52.24,53.97,0
50,52.19,53.94,0
52,52.19,53.92,0
50,52.15,53.88,0
50,52.10,53.84,0
50,52.06,53.80,0
52,52.06,53.78,0
50,52.02,53.74,0
50,51.98,53.71,0
50,51.94,53.67,0
49,51.88,53.62,0
50,51.84,53.59,0
50,51.81,53.55,0
50,51.77,53.51,0
50,51.73,53.48,0
50,51.70,53.45,0
48,51.63,53.39,0
48,51.55,53.34,0
50,51.52,53.30,0
48,51.45,53.25,0
48,51.38,53.20,0
48,51.31,53.15,0
49,51.27,53.10,0
49,51.22,53.06,0
50,51.20,53.03,0
48,51.13,52.98,0
49,51.09,52.94,0
50,51.07,52.91,0
50,51.05,52.88,0
48,50.99,52.84,0
50,50.97,52.81,0
48,50.91,52.76,0
48,50.85,52.71,0
52,50.87,52.70,0
49,50.84,52.67,0
49,50.80,52.63,0
48,50.74,52.58,0
47,50.67,52.53,0
49,50.64,52.49,0
48,50.58,52.45,0
48,50.53,52.40,0
47,50.46,52.35,0
48,50.41,52.31,0
48,50.36,52.26,0
47,50.30,52.21,0
47,50.23,52.16,0
48,50.19,52.12,0
48,50.14,52.08,0
47,50.08,52.02,0
47,50.02,51.97,0
48,49.98,51.93,0
47,49.92,51.89,0
49,49.90,51.86,0
47,49.84,51.81,0
48,49.80,51.77,0
51,49.83,51.76,0
47,49.77,51.71,0
47,49.72,51.67,0
47,49.66,51.62,0
48,49.63,51.58,0
47,49.58,51.54,0
47,49.52,51.49,0
47,49.47,51.45,0
47,49.42,51.40,0
46,49.36,51.35,0
48,49.33,51.32,0
47,49.28,51.27,0
47,49.24,51.23,0
48,49.21,51.20,0
49,49.21,51.18,0
50,49.22,51.16,0
48,49.20,51.13,0
50,49.21,51.12,0
50,49.23,51.11,0
49,49.23,51.09,0
49,49.22,51.07,0
49,49.22,51.05,0
49,49.21,51.03,0
50,49.23,51.02,0
54,49.32,51.05,0
48,49.30,51.02,0
49,49.29,51.00,0
48,49.27,50.97,0
49,49.26,50.95,0
48,49.24,50.92,0
48,49.21,50.89,0
49,49.21,50.87,0
47,49.16,50.83,0
48,49.14,50.80,0
48,49.12,50.77,0
50,49.13,50.77,0
48,49.11,50.74,0
48,49.09,50.71,0
47,49.05,50.67,0
49,49.05,50.66,0
48,49.03,50.63,0
48,49.00,50.60,0
48,48.98,50.58,0
48,48.96,50.55,0
48,48.95,50.53,0
47,48.91,50.49,0
46,48.85,50.45,0
47,48.81,50.41,0
47,48.78,50.38,0
47,48.74,50.34,0
46,48.69,50.30,0
48,48.67,50.28,0
48,48.66,50.26,0
47,48.62,50.22,0
46,48.57,50.18,0
47,48.54,50.15,0
47,48.51,50.12,0
48,48.50,50.10,0
47,48.47,50.07,0
47,48.44,50.03,0
46,48.39,49.99,0
46,48.34,49.95,0
46,48.30,49.91,0
46,48.25,49.88,0
47,48.23,49.85,0
46,48.18,49.81,0
46,48.14,49.77,0
45,48.08,49.72,0
46,48.03,49.69,0
46,47.99,49.65,0
47,47.97,49.62,0
47,47.95,49.60,0
46,47.91,49.56,0
46,47.88,49.52,0
46,47.84,49.49,0
45,47.78,49.44,0
46,47.75,49.41,0
46,47.71,49.38,0
47,47.70,49.35,0
46,47.66,49.32,0
46,47.63,49.28,0
46,47.60,49.25,0
46,47.57,49.22,0
46,47.53,49.19,0
46,47.50,49.16,0
46,47.47,49.12,0
46,47.44,49.09,0
46,47.41,49.06,0
47,47.41,49.04,0
46,47.38,49.01,0
46,47.35,48.98,0
47,47.34,48.96,0
46,47.32,48.93,0
47,47.31,48.91,0
46,47.28,48.88,0
46,47.26,48.85,0
46,47.23,48.83,0
45,47.19,48.79,0
45,47.15,48.75,0
45,47.10,48.71,0
45,47.06,48.67,0
45,47.02,48.64,0
46,47.00,48.61,0
46,46.98,48.59,0
45,46.94,48.55,0
44,46.88,48.50,0
47,46.88,48.49,0
47,46.89,48.47,0
46,46.87,48.45,0
46,46.85,48.42,0
45,46.81,48.39,0
46,46.80,48.37,0
44,46.74,48.32,0
46,46.73,48.30,0
45,46.69,48.27,0
46,46.68,48.24,0
45,46.64,48.21,0
46,46.63,48.19,0
45,46.60,48.16,0
47,46.61,48.15,0
45,46.57,48.11,0
45,46.54,48.08,0
45,46.51,48.05,0
46,46.50,48.03,0
45,46.47,48.00,0
46,46.46,47.98,0
47,46.47,47.97,0
47,46.48,47.96,0
45,46.45,47.93,0
45,46.42,47.90,0
45,46.40,47.87,0
48,46.43,47.88,0
45,46.40,47.85,0
46,46.39,47.83,0
46,46.38,47.81,0
45,46.36,47.78,0
46,46.35,47.76,0
44,46.30,47.73,0
44,46.26,47.69,0
50,46.33,47.71,0
44,46.28,47.68,0
44,46.24,47.64,0
46,46.23,47.62,0
45,46.21,47.60,0
45,46.19,47.57,0
44,46.14,47.53,0
44,46.10,47.50,0
43,46.04,47.45,0
45,46.02,47.43,0
44,45.98,47.40,0
45,45.96,47.37,0
44,45.92,47.34,0
44,45.88,47.30,0
43,45.82,47.26,0
44,45.78,47.23,0
44,45.75,47.20,0
46,45.75,47.18,0
44,45.72,47.15,0
46,45.72,47.14,0
45,45.71,47.12,0
45,45.70,47.10,0
44,45.66,47.07,0
44,45.63,47.04,0
46,45.64,47.03,0
47,45.66,47.03,0
46,45.67,47.02,0
46,45.68,47.01,0
46,45.68,47.00,0
47,45.71,47.00,0
46,45.72,46.99,0
47,45.74,46.99,0
46,45.75,46.98,0
45,45.73,46.96,0
45,45.72,46.94,0
46,45.72,46.93,0
46,45.73,46.92,0
46,45.73,46.91,0
45,45.72,46.89,0
46,45.72,46.88,0
46,45.73,46.87,0
46,45.74,46.86,0
46,45.74,46.85,0
46,45.75,46.85,0
45,45.73,46.83,0
46,45.74,46.82,0
46,45.74,46.81,0
46,45.75,46.80,0
45,45.73,46.78,0
44,45.70,46.76,0
46,45.70,46.75,0
46,45.71,46.74,0
45,45.69,46.72,0
46,45.70,46.72,0
46,45.71,46.71,0
46,45.71,46.70,0
46,45.72,46.70,0
46,45.72,46.69,0
45,45.71,46.67,0
45,45.70,46.66,0
45,45.68,46.64,0
44,45.65,46.61,0
44,45.62,46.59,0
45,45.60,46.57,0
46,45.61,46.56,0
44,45.58,46.54,0
44,45.55,46.51,0
46,45.56,46.51,0
44,45.52,46.48,0
48,45.57,46.50,0
46,45.58,46.49,0
46,45.59,46.49,0
44,45.56,46.46,0
45,45.55,46.45,0
44,45.52,46.42,0
44,45.49,46.40,0
44,45.46,46.38,0
45,45.45,46.36,0
46,45.46,46.36,0
44,45.43,46.34,0
44,45.40,46.31,0
45,45.39,46.30,0
44,45.37,46.28,0
44,45.34,46.25,0
46,45.35,46.25,0
45,45.34,46.24,0
44,45.32,46.22,0
44,45.29,46.19,0
44,45.27,46.17,0
44,45.24,46.15,0
44,45.22,46.13,0
44,45.19,46.11,0
45,45.19,46.10,0
44,45.16,46.08,0
44,45.14,46.05,0
44,45.12,46.03,0
45,45.11,46.02,0
44,45.09,46.00,0
45,45.09,45.99,0
44,45.07,45.97,0
45,45.07,45.96,0
46,45.09,45.96,0
44,45.06,45.94,0
43,45.02,45.91,0
44,45.00,45.90,0
45,45.00,45.89,0
44,44.98,45.87,0
44,44.96,45.85,0
44,44.94,45.83,0
44,44.92,45.81,0
43,44.89,45.78,0
42,44.83,45.75,0
44,44.81,45.73,0
43,44.78,45.70,0
43,44.74,45.67,0
42,44.69,45.64,0
44,44.67,45.62,0
43,44.64,45.60,0
44,44.63,45.58,0
45,44.63,45.57,0
44,44.62,45.56,0
44,44.61,45.54,0
42,44.56,45.51,0
40,44.46,45.45,0
44,44.46,45.44,0
43,44.43,45.41,0
44,44.42,45.40,0
44,44.41,45.38,0
44,44.40,45.37,0
43,44.37,45.35,0
46,44.41,45.35,0
44,44.40,45.34,0
44,44.39,45.33,0
43,44.36,45.30,0
44,44.35,45.29,0
45,44.37,45.29,0
45,44.38,45.28,0
43,44.35,45.26,0
44,44.35,45.25,0
44,44.34,45.24,0
43,44.31,45.21,0
42,44.27,45.18,0
44,44.26,45.17,0
44,44.26,45.16,0
43,44.23,45.14,0
45,44.25,45.14,0
46,44.28,45.14,0
47,44.33,45.16,0
45,44.35,45.16,0
43,44.32,45.14,0
52,44.47,45.21,0
50,44.59,45.26,0
47,44.63,45.27,0
50,44.74,45.32,0
50,44.85,45.37,0
47,44.89,45.38,0
47,44.93,45.40,0
50,45.03,45.45,0
50,45.13,45.49,0
49,45.21,45.53,0
48,45.27,45.55,0
48,45.32,45.58,0
47,45.35,45.59,0
48,45.41,45.61,0
48,45.46,45.64,0
48,45.51,45.66,0
48,45.56,45.69,0
48,45.61,45.71,0
48,45.66,45.73,0
48,45.70,45.75,0
47,45.73,45.77,0
47,45.75,45.78,0
47,45.78,45.79,0
49,45.84,45.82,0
46,45.85,45.82,0
49,45.91,45.86,0
48,45.95,45.88,0
48,45.99,45.90,0
48,46.03,45.92,0
47,46.05,45.93,0
47,46.07,45.94,0
49,46.13,45.97,0
48,46.17,45.99,0
49,46.22,46.02,0
48,46.26,46.04,0
48,46.29,46.06,0
49,46.35,46.09,0
48,46.38,46.11,0
48,46.41,46.13,0
53,46.55,46.20,0
50,46.61,46.24,0
51,46.70,46.28,0
53,46.83,46.35,0
49,46.87,46.38,0
52,46.97,46.43,0
51,47.05,46.48,0
56,47.23,46.57,0
60,47.49,46.71,0
52,47.58,46.76,0
54,47.71,46.83,0
56,47.87,46.93,0
56,48.04,47.02,0
54,48.15,47.09,0
52,48.23,47.14,0
52,48.31,47.18,0
52,48.38,47.23,0
53,48.47,47.29,0
52,48.54,47.34,0
53,48.63,47.39,0
54,48.74,47.46,0
52,48.81,47.51,0
54,48.91,47.57,0
53,48.99,47.62,0
52,49.05,47.67,0
52,49.11,47.71,0
54,49.21,47.77,0
55,49.32,47.85,0
54,49.42,47.91,0
54,49.51,47.97,0
52,49.56,48.01,0
53,49.63,48.06,0
54,49.72,48.12,0
54,49.80,48.18,0
52,49.85,48.22,0
55,49.95,48.28,0
57,50.09,48.37,0
54,50.17,48.43,0
54,50.24,48.48,0
53,50.30,48.53,0
55,50.39,48.59,0
54,50.47,48.65,0
55,50.56,48.71,0
54,50.62,48.76,0
54,50.69,48.82,0
54,50.76,48.87,0
54,50.82,48.92,0
54,50.89,48.97,0
54,50.95,49.02,0
54,51.01,49.07,0
54,51.07,49.12,0
55,51.15,49.18,0
53,51.19,49.22,0
58,51.32,49.30,0
58,51.46,49.39,0
58,51.59,49.48,0
56,51.67,49.54,0
54,51.72,49.59,0
58,51.85,49.67,0
59,51.99,49.76,0
58,52.11,49.85,0
54,52.15,49.89,0
56,52.22,49.95,0
57,52.32,50.02,0
55,52.37,50.07,0
56,52.45,50.13,0
56,52.52,50.19,0
56,52.59,50.25,0
56,52.66,50.30,0
56,52.72,50.36,0
56,52.79,50.42,0
56,52.85,50.47,0
58,52.96,50.55,0
60,53.10,50.64,0
57,53.17,50.71,0
56,53.23,50.76,0
56,53.29,50.81,0
56,53.34,50.86,0
58,53.43,50.93,0
56,53.48,50.99,0
58,53.58,51.06,0
56,53.62,51.10,0
56,53.67,51.15,0
56,53.72,51.20,0
56,53.76,51.25,0
56,53.81,51.30,0
56,53.85,51.34,0
55,53.87,51.38,0
56,53.92,51.43,0
56,53.96,51.47,0
59,54.06,51.55,0
55,54.08,51.58,0
58,54.16,51.65,0
57,54.21,51.70,0
58,54.29,51.76,0
59,54.38,51.84,0
57,54.44,51.89,0
56,54.47,51.93,0
57,54.52,51.98,0
61,54.65,52.07,0
59,54.73,52.14,0
57,54.78,52.19,0
58,54.84,52.25,0
57,54.89,52.29,0
58,54.95,52.35,0
58,55.01,52.41,0
61,55.13,52.49,0
61,55.25,52.58,0
59,55.32,52.64,0
58,55.38,52.70,0
58,55.43,52.75,0
60,55.52,52.82,0
64,55.69,52.93,0
64,55.86,53.04,0
62,55.98,53.13,0
61,56.08,53.21,0
62,56.20,53.30,0
66,56.39,53.43,0
64,56.55,53.53,0
68,56.78,53.68,0
65,56.94,53.79,0
62,57.04,53.87,0
62,57.14,53.95,0
64,57.28,54.05,0
64,57.41,54.15,0
66,57.58,54.27,0
66,57.75,54.39,0
63,57.86,54.48,0
62,57.94,54.55,0
62,58.02,54.63,0
64,58.14,54.72,0
65,58.28,54.82,0
63,58.37,54.90,0
62,58.44,54.97,0
64,58.56,55.06,0
64,58.66,55.15,0
64,58.77,55.24,0
62,58.84,55.31,0
64,58.94,55.40,0
64,59.04,55.48,0
64,59.14,55.57,0
62,59.20,55.63,0
64,59.29,55.72,0
64,59.39,55.80,0
62,59.44,55.86,0
62,59.49,55.92,0
62,59.54,55.98,0
66,59.67,56.08,0
65,59.78,56.17,0
66,59.90,56.27,0
64,59.98,56.35,0
64,60.06,56.42,0
68,60.22,56.54,0
66,60.34,56.64,0
67,60.47,56.74,0
65,60.56,56.82,0
64,60.63,56.89,0
68,60.78,57.00,0
70,60.96,57.13,0
67,61.08,57.23,0
74,61.34,57.40,0
74,61.59,57.57,0
72,61.80,57.71,0
69,61.95,57.82,0
71,62.13,57.96,0
72,62.32,58.10,0
72,62.52,58.23,0
73,62.73,58.38,0
72,62.91,58.52,0
70,63.06,58.63,0
69,63.17,58.74,0
72,63.35,58.87,0
74,63.56,59.02,0
70,63.69,59.13,0
70,63.82,59.24,0
70,63.94,59.35,0
71,64.08,59.46,0
72,64.24,59.59,0
71,64.38,59.70,0
72,64.53,59.83,0
76,64.76,59.99,0
72,64.90,60.11,0
70,65.01,60.21,0
72,65.15,60.32,0
72,65.28,60.44,0
73,65.44,60.57,0
74,65.61,60.70,0
75,65.80,60.84,0
76,66.00,61.00,0
74,66.16,61.13,0
73,66.30,61.24,0
73,66.43,61.36,0
76,66.62,61.51,0
76,66.81,61.65,0
77,67.01,61.81,0
80,67.27,61.99,0
76,67.45,62.13,0
76,67.62,62.27,0
75,67.77,62.40,0
79,67.99,62.56,0
76,68.15,62.70,0
76,68.31,62.83,0
79,68.52,62.99,0
81,68.77,63.17,0
76,68.92,63.30,0
76,69.06,63.43,0
83,69.34,63.62,0
83,69.61,63.82,0
84,69.90,64.02,0
80,70.10,64.18,0
80,70.30,64.34,0
79,70.47,64.48,0
80,70.66,64.64,0
78,70.81,64.77,0
78,70.95,64.90,0
78,71.09,65.03,0
79,71.25,65.17,0
80,71.43,65.32,0
79,71.58,65.46,0
80,71.75,65.60,0
78,71.87,65.73,0
79,72.01,65.86,0
84,72.25,66.04,0
82,72.45,66.20,0
81,72.62,66.35,0
86,72.89,66.55,0
80,73.03,66.68,0
81,73.19,66.82,0
83,73.39,66.99,0
84,73.60,67.16,0
86,73.85,67.34,0
86,74.09,67.53,0
83,74.27,67.69,0
82,74.42,67.83,0
84,74.61,67.99,0
94,75.00,68.25,0
96,75.42,68.53,0
86,75.63,68.70,0
86,75.84,68.88,0
91,76.14,69.10,0
91,76.44,69.32,0
90,76.71,69.52,0
90,76.98,69.73,0
89,77.22,69.92,0
92,77.51,70.14,0
88,77.72,70.32,0
94,78.05,70.56,0
94,78.37,70.79,0
88,78.56,70.96,0
90,78.79,71.15,0
89,78.99,71.33,0
90,79.21,71.52,0
91,79.45,71.71,0
92,79.70,71.92,0
94,79.99,72.14,0
92,80.23,72.34,0
90,80.42,72.51,0
92,80.65,72.71,0
90,80.84,72.88,0
91,81.04,73.06,0
90,81.22,73.23,0
90,81.40,73.40,0
90,81.57,73.56,0
90,81.74,73.73,0
90,81.90,73.89,0
92,82.11,74.07,0
95,82.36,74.28,0
95,82.62,74.49,0
94,82.84,74.68,0
96,83.11,74.90,0
94,83.33,75.09,0
98,83.62,75.32,0
108,84.11,75.64,0
106,84.54,75.95,0
99,84.83,76.18,0
98,85.10,76.40,0
96,85.31,76.59,0
96,85.53,76.79,0
98,85.78,77.00,0
96,85.98,77.19,0
96,86.18,77.38,0
98,86.42,77.58,0
97,86.63,77.78,0
100,86.90,78.00,0
97,87.10,78.19,0
98,87.32,78.39,0
99,87.55,78.59,0
101,87.82,78.82,0
99,88.04,79.02,0
98,88.24,79.21,0
100,88.48,79.42,0
100,88.71,79.62,0
100,88.93,79.83,0
98,89.12,80.01,0
100,89.33,80.21,0
101,89.57,80.42,0
101,89.80,80.62,0
97,89.94,80.79,0
102,90.18,81.00,0
99,90.36,81.18,0
98,90.51,81.35,0
102,90.74,81.55,0
101,90.95,81.75,0
100,91.13,81.93,0
103,91.36,82.14,0
103,91.60,82.35,0
102,91.80,82.55,0
100,91.97,82.72,0
101,92.15,82.90,0
101,92.33,83.08,0
100,92.48,83.25,0
99,92.61,83.41,0
99,92.74,83.57,0
98,92.84,83.71,0
100,92.99,83.87,0
102,93.17,84.06,0
99,93.28,84.20,0
99,93.40,84.35,0
100,93.53,84.51,0
99,93.64,84.65,0
99,93.75,84.80,0
99,93.85,84.94,0
98,93.93,85.07,0
98,94.02,85.20,0
97,94.08,85.32,0
98,94.15,85.44,0
98,94.23,85.57,0
99,94.33,85.70,0
100,94.44,85.85,0
98,94.51,85.97,0
99,94.60,86.10,0
99,94.69,86.23,0
99,94.77,86.36,0
102,94.92,86.51,0
98,94.98,86.63,0
100,95.08,86.76,0
100,95.18,86.89,0
99,95.26,87.01,0
100,95.35,87.14,0
101,95.46,87.28,0
100,95.55,87.41,0
98,95.60,87.52,0
99,95.67,87.63,0
98,95.72,87.73,0
98,95.76,87.84,0
97,95.79,87.93,0
97,95.81,88.02,0
97,95.84,88.11,0
98,95.88,88.21,0
98,95.92,88.31,0
98,95.96,88.40,0
96,95.96,88.48,0
98,96.01,88.57,0
95,95.99,88.64,0
96,95.99,88.71,0
96,95.99,88.78,0
97,96.01,88.87,0
95,95.99,88.93,0
95,95.97,88.99,0
96,95.97,89.06,0
96,95.97,89.13,0
97,95.99,89.21,0
96,95.99,89.28,0
95,95.97,89.33,0
96,95.97,89.40,0
95,95.95,89.46,0
96,95.95,89.52,0
94,95.91,89.57,0
95,95.89,89.62,0
94,95.86,89.66,0
95,95.84,89.72,0
94,95.80,89.76,0
94,95.77,89.80,0
94,95.73,89.84,0
94,95.70,89.89,0
94,95.66,89.93,0
94,95.63,89.97,0
94,95.60,90.01,0
95,95.58,90.06,0
92,95.51,90.08,0
94,95.48,90.12,0
96,95.49,90.18,0
97,95.52,90.24,0
94,95.49,90.28,0
93,95.44,90.31,0
96,95.45,90.37,0
96,95.46,90.42,0
96,95.48,90.48,0
94,95.45,90.51,0
93,95.40,90.54,0
93,95.35,90.56,0
92,95.28,90.58,0
94,95.26,90.61,0
94,95.23,90.64,0
93,95.19,90.67,0
94,95.16,90.70,0
93,95.12,90.72,0
92,95.06,90.74,0
96,95.08,90.79,0
92,95.01,90.80,0
92,94.95,90.81,0
93,94.92,90.84,0
93,94.88,90.86,0
96,94.90,90.91,0
92,94.84,90.92,0
92,94.78,90.93,0
96,94.81,90.98,0
94,94.79,91.01,0
92,94.74,91.02,0
93,94.70,91.04,0
92,94.65,91.05,0
91,94.58,91.05,0
90,94.48,91.04,0
92,94.43,91.05,0
92,94.39,91.06,0
93,94.36,91.08,0
92,94.31,91.09,0
92,94.26,91.10,0
93,94.24,91.12,0
88,94.11,91.08,0
90,94.03,91.07,0
91,93.97,91.07,0
90,93.89,91.06,0
90,93.81,91.05,0
90,93.74,91.04,0
91,93.68,91.04,0
91,93.63,91.04,0
90,93.56,91.03,0
90,93.49,91.02,0
91,93.44,91.02,0
90,93.37,91.01,0
90,93.30,91.00,0
90,93.23,90.99,0
90,93.17,90.98,0
90,93.11,90.97,0
90,93.04,90.96,0
90,92.98,90.95,0
89,92.90,90.93,0
89,92.83,90.91,0
88,92.73,90.88,0
90,92.67,90.87,0
89,92.60,90.85,0
89,92.53,90.84,0
88,92.44,90.81,0
88,92.35,90.78,0
88,92.26,90.75,0
88,92.18,90.72,0
88,92.09,90.70,0
88,92.01,90.67,0
88,91.93,90.64,0
88,91.85,90.62,0
90,91.82,90.61,0
88,91.74,90.58,0
87,91.64,90.55,0
87,91.55,90.51,0
88,91.48,90.49,0
86,91.37,90.44,0
86,91.26,90.40,0
88,91.20,90.37,0
90,91.17,90.37,0
88,91.11,90.35,0
87,91.03,90.31,0
87,90.95,90.28,0
88,90.89,90.26,0
88,90.83,90.24,0
87,90.75,90.20,0
86,90.66,90.16,0
88,90.61,90.14,0
86,90.51,90.10,0
88,90.46,90.08,0
87,90.39,90.05,0
86,90.31,90.01,0
86,90.22,89.97,0
86,90.14,89.93,0
90,90.13,89.93,0
86,90.05,89.89,0
85,89.95,89.84,0
85,89.85,89.79,0
86,89.77,89.75,0
86,89.70,89.71,0
86,89.62,89.68,0
85,89.53,89.63,0
85,89.44,89.58,0
84,89.33,89.53,0
86,89.27,89.49,0
86,89.20,89.46,0
85,89.12,89.41,0
85,89.03,89.37,0
85,88.95,89.33,0
85,88.87,89.28,0
85,88.80,89.24,0
86,88.74,89.21,0
84,88.65,89.16,0
85,88.57,89.11,0
86,88.52,89.08,0
84,88.43,89.03,0
84,88.34,88.98,0
84,88.26,88.93,0
84,88.17,88.88,0
84,88.09,88.83,0
83,87.99,88.78,0
84,87.91,88.73,0
84,87.83,88.68,0
83,87.73,88.62,0
82,87.62,88.56,0
84,87.54,88.51,0
84,87.47,88.47,0
84,87.40,88.42,0
82,87.30,88.36,0
83,87.21,88.30,0
85,87.17,88.27,0
84,87.10,88.23,0
84,87.04,88.19,0
84,86.98,88.14,0
83,86.90,88.09,0
83,86.82,88.04,0
84,86.77,88.00,0
86,86.75,87.98,0
83,86.68,87.93,0
82,86.58,87.87,0
82,86.49,87.81,0
83,86.42,87.77,0
83,86.35,87.72,0
82,86.26,87.66,0
82,86.18,87.60,0
83,86.12,87.56,0
81,86.01,87.49,0
82,85.93,87.44,0
82,85.85,87.38,0
82,85.78,87.33,0
82,85.70,87.28,0
82,85.63,87.22,0
82,85.56,87.17,0
82,85.48,87.12,0
81,85.39,87.06,0
82,85.33,87.01,0
82,85.26,86.96,0
81,85.18,86.90,0
83,85.13,86.86,0
82,85.07,86.81,0
80,84.97,86.74,0
81,84.89,86.68,0
84,84.87,86.66,0
80,84.77,86.59,0
79,84.66,86.52,0
79,84.54,86.44,0
80,84.45,86.38,0
80,84.36,86.31,0
79,84.26,86.24,0
80,84.17,86.18,0
80,84.09,86.11,0
79,83.99,86.04,0
79,83.89,85.97,0
80,83.81,85.91,0
80,83.73,85.85,0
80,83.66,85.80,0
79,83.57,85.73,0
79,83.47,85.66,0
78,83.36,85.58,0
79,83.28,85.52,0
80,83.21,85.46,0
79,83.13,85.40,0
79,83.04,85.33,0
80,82.98,85.28,0
78,82.88,85.21,0
79,82.81,85.15,0
79,82.73,85.08,0
80,82.68,85.03,0
78,82.58,84.96,0
79,82.51,84.90,0
80,82.46,84.85,0
79,82.39,84.80,0
78,82.30,84.73,0
78,82.22,84.66,0
78,82.13,84.59,0
80,82.09,84.55,0
78,82.01,84.48,0
78,81.93,84.42,0
81,81.91,84.38,0
80,81.87,84.34,0
78,81.79,84.28,0
79,81.74,84.22,0
77,81.64,84.15,0
78,81.57,84.09,0
78,81.50,84.03,0
79,81.45,83.98,0
77,81.36,83.91,0
78,81.29,83.85,0
78,81.23,83.79,0
80,81.20,83.75,0
79,81.16,83.71,0
78,81.10,83.65,0
78,81.03,83.59,0
78,80.97,83.54,0
77,80.89,83.47,0
76,80.80,83.40,0
76,80.70,83.32,0
78,80.65,83.27,0
79,80.61,83.23,0
76,80.52,83.15,0
77,80.45,83.09,0
79,80.42,83.05,0
77,80.35,82.99,0
76,80.27,82.92,0
76,80.18,82.85,0
76,80.10,82.78,0
77,80.03,82.73,0
77,79.97,82.67,0
76,79.89,82.60,0
77,79.84,82.55,0
79,79.82,82.51,0
78,79.78,82.47,0
78,79.75,82.42,0
77,79.69,82.37,0
77,79.64,82.31,0
80,79.65,82.29,0
78,79.61,82.25,0
78,79.58,82.20,0
77,79.53,82.15,0
76,79.46,82.09,0
76,79.39,82.03,0
79,79.38,82.00,0
77,79.33,81.95,0
76,79.27,81.89,0
76,79.20,81.83,0
77,79.16,81.78,0
77,79.12,81.74,0
76,79.05,81.68,0
78,79.03,81.64,0
76,78.97,81.58,0
75,78.89,81.52,0
76,78.83,81.46,0
76,78.78,81.41,0
80,78.80,81.39,0
76,78.75,81.34,0
76,78.69,81.29,0
76,78.64,81.23,0
76,78.58,81.18,0
75,78.51,81.12,0
74,78.42,81.05,0
76,78.37,81.00,0
75,78.31,80.94,0
75,78.24,80.88,0
74,78.16,80.81,0
74,78.07,80.74,0
75,78.01,80.69,0
74,77.93,80.62,0
74,77.85,80.55,0
74,77.77,80.49,0
72,77.66,80.40,0
74,77.59,80.34,0
74,77.51,80.27,0
74,77.44,80.21,0
74,77.38,80.15,0
76,77.35,80.11,0
74,77.28,80.05,0
74,77.22,79.99,0
74,77.15,79.93,0
74,77.09,79.87,0
76,77.07,79.83,0
74,77.00,79.77,0
75,76.96,79.72,0
76,76.95,79.69,0
73,76.87,79.62,0
76,76.85,79.58,0
74,76.79,79.53,0
74,76.74,79.47,0
74,76.68,79.42,0
74,76.63,79.36,0
74,76.58,79.31,0
73,76.50,79.25,0
74,76.45,79.19,0
73,76.38,79.13,0
76,76.38,79.10,0
75,76.35,79.06,0
74,76.30,79.01,0
73,76.24,78.95,0
73,76.17,78.89,0
72,76.09,78.82,0
72,76.01,78.75,0
72,75.93,78.68,0
73,75.87,78.63,0
75,75.85,78.59,0
73,75.79,78.54,0
72,75.72,78.47,0
73,75.66,78.42,0
73,75.61,78.36,0
73,75.56,78.31,0
72,75.49,78.24,0
73,75.44,78.19,0
72,75.37,78.13,0
74,75.34,78.09,0
72,75.27,78.03,0
72,75.21,77.97,0
72,75.14,77.91,0
72,75.08,77.85,0
72,75.02,77.79,0
72,74.96,77.73,0
73,74.92,77.69,0
72,74.86,77.63,0
72,74.80,77.57,0
73,74.77,77.53,0
74,74.75,77.49,0
72,74.70,77.44,0
72,74.64,77.38,0
71,74.57,77.32,0
72,74.52,77.26,0
72,74.47,77.21,0
74,74.46,77.18,0
72,74.41,77.13,0
73,74.38,77.09,0
72,74.34,77.04,0
72,74.29,76.99,0
72,74.24,76.94,0
72,74.20,76.89,0
72,74.15,76.84,0
71,74.09,76.78,0
71,74.03,76.72,0
72,73.99,76.67,0
72,73.95,76.63,0
70,73.87,76.56,0
72,73.83,76.52,0
72,73.80,76.47,0
70,73.72,76.41,0
71,73.67,76.35,0
73,73.65,76.32,0
71,73.60,76.26,0
70,73.53,76.20,0
70,73.46,76.14,0
72,73.43,76.10,0
70,73.36,76.04,0
70,73.29,75.98,0
69,73.21,75.91,0
70,73.14,75.85,0
70,73.08,75.79,0
72,73.06,75.75,0
71,73.02,75.70,0
71,72.98,75.66,0
70,72.92,75.60,0
70,72.86,75.55,0
70,72.80,75.49,0
70,72.74,75.43,0
70,72.69,75.38,0
70,72.64,75.33,0
70,72.58,75.27,0
70,72.53,75.22,0
70,72.48,75.17,0
70,72.43,75.12,0
74,72.46,75.11,0
70,72.41,75.05,0
70,72.37,75.00,0
70,72.32,74.95,0
69,72.25,74.89,0
70,72.21,74.85,0
68,72.12,74.78,0
68,72.04,74.71,0
70,72.00,74.66,0
68,71.92,74.60,0
68,71.84,74.53,0
68,71.76,74.46,0
69,71.71,74.41,0
69,71.65,74.36,0
70,71.62,74.31,0
69,71.57,74.26,0
67,71.48,74.19,0
69,71.43,74.13,0
68,71.36,74.07,0
68,71.29,74.01,0
68,71.23,73.95,0
68,71.16,73.89,0
68,71.10,73.83,0
68,71.04,73.78,0
67,70.96,73.71,0
67,70.88,73.64,0
69,70.84,73.59,0
68,70.78,73.54,0
67,70.71,73.47,0
68,70.65,73.42,0
67,70.58,73.35,0
66,70.49,73.28,0
66,70.40,73.21,0
67,70.33,73.15,0
68,70.28,73.09,0
66,70.20,73.02,0
66,70.11,72.95,0
66,70.03,72.88,0
68,69.99,72.83,0
66,69.91,72.77,0
66,69.83,72.70,0
68,69.80,72.65,0
69,69.78,72.62,0
66,69.71,72.55,0
66,69.63,72.48,0
67,69.58,72.43,0
68,69.55,72.38,0
67,69.50,72.33,0
66,69.43,72.27,0
68,69.40,72.22,0
66,69.33,72.16,0
66,69.26,72.10,0
66,69.20,72.04,0
68,69.17,72.00,0
66,69.11,71.94,0
66,69.05,71.88,0
66,68.99,71.82,0
66,68.93,71.76,0
65,68.85,71.70,0
66,68.79,71.64,0
66,68.74,71.58,0
65,68.66,71.52,0
65,68.59,71.45,0
66,68.54,71.40,0
66,68.49,71.34,0
65,68.42,71.28,0
67,68.39,71.24,0
66,68.34,71.18,0
64,68.25,71.11,0
65,68.19,71.05,0
68,68.18,71.02,0
64,68.10,70.95,0
64,68.02,70.88,0
65,67.96,70.82,0
66,67.92,70.77,0
64,67.84,70.71,0
64,67.76,70.64,0
66,67.73,70.59,0
64,67.65,70.53,0
64,67.58,70.46,0
64,67.51,70.40,0
65,67.46,70.34,0
64,67.39,70.28,0
64,67.32,70.22,0
64,67.26,70.15,0
64,67.19,70.09,0
64,67.13,70.03,0
64,67.06,69.97,0
65,67.02,69.92,0
64,66.96,69.86,0
64,66.90,69.80,0
64,66.85,69.75,0
64,66.79,69.69,0
65,66.75,69.64,0
64,66.70,69.59,0
62,66.60,69.51,0
64,66.55,69.45,0
64,66.50,69.40,0
64,66.45,69.35,0
62,66.36,69.27,0
64,66.31,69.22,0
63,66.25,69.16,0
63,66.18,69.10,0
63,66.12,69.03,0
64,66.08,68.98,0
65,66.06,68.94,0
64,66.01,68.90,0
64,65.97,68.85,0
62,65.89,68.78,0
63,65.84,68.72,0
64,65.80,68.67,0
64,65.76,68.63,0
64,65.73,68.58,0
63,65.67,68.52,0
63,65.62,68.47,0
66,65.63,68.44,0
62,65.56,68.38,0
62,65.48,68.32,0
62,65.41,68.25,0
62,65.35,68.19,0
62,65.28,68.13,0
62,65.21,68.07,0
63,65.17,68.02,0
62,65.11,67.96,0
62,65.04,67.90,0
63,65.00,67.85,0
61,64.92,67.78,0
62,64.86,67.72,0
62,64.81,67.66,0
61,64.73,67.60,0
61,64.66,67.53,0
59,64.54,67.45,0
61,64.47,67.38,0
63,64.44,67.34,0
61,64.37,67.27,0
61,64.31,67.21,0
61,64.24,67.15,0
61,64.18,67.09,0
61,64.11,67.03,0
61,64.05,66.97,0
60,63.97,66.90,0
60,63.89,66.83,0
61,63.83,66.77,0
60,63.76,66.70,0
60,63.68,66.64,0
60,63.61,66.57,0
60,63.53,66.50,0
60,63.46,66.44,0
60,63.39,66.37,0
60,63.33,66.31,0
60,63.26,66.25,0
60,63.19,66.18,0
59,63.11,66.11,0
62,63.09,66.07,0
60,63.03,66.01,0
59,62.95,65.94,0
58,62.85,65.86,0
61,62.81,65.81,0
60,62.75,65.75,0
59,62.68,65.69,0
58,62.59,65.61,0
59,62.51,65.54,0
59,62.44,65.48,0
59,62.37,65.41,0
58,62.29,65.34,0
59,62.22,65.28,0
59,62.16,65.21,0
58,62.07,65.14,0
58,61.99,65.07,0
60,61.95,65.02,0
59,61.89,64.96,0
60,61.86,64.91,0
58,61.78,64.84,0
60,61.74,64.79,0
60,61.71,64.74,0
58,61.63,64.68,0
58,61.56,64.61,0
60,61.53,64.56,0
59,61.48,64.51,0
58,61.41,64.44,0
60,61.38,64.40,0
59,61.33,64.34,0
62,61.35,64.32,0
60,61.32,64.28,0
62,61.33,64.26,0
58,61.27,64.19,0
59,61.22,64.14,0
58,61.16,64.08,0
58,61.09,64.02,0
60,61.07,63.98,0
59,61.03,63.93,0
58,60.97,63.87,0
58,60.91,63.81,0
59,60.87,63.76,0
59,60.84,63.71,0
59,60.80,63.67,0
58,60.74,63.61,0
58,60.69,63.55,0
58,60.63,63.50,0
60,60.62,63.46,0
58,60.57,63.41,0
58,60.52,63.36,0
58,60.47,63.30,0
58,60.42,63.25,0
58,60.37,63.20,0
57,60.30,63.13,0
58,60.26,63.08,0
57,60.19,63.02,0
58,60.15,62.97,0
58,60.10,62.92,0
57,60.04,62.86,0
60,60.04,62.83,0
58,60.00,62.79,0
57,59.94,62.73,0
57,59.88,62.67,0
57,59.82,62.61,0
57,59.77,62.56,0
56,59.69,62.49,0
60,59.70,62.47,0
57,59.64,62.41,0
57,59.59,62.36,0
58,59.56,62.32,0
57,59.51,62.26,0
58,59.48,62.22,0
56,59.41,62.16,0
57,59.36,62.11,0
57,59.31,62.05,0
57,59.27,62.00,0
57,59.22,61.95,0
57,59.18,61.90,0
60,59.19,61.89,0
56,59.13,61.83,0
56,59.07,61.77,0
58,59.05,61.73,0
60,59.07,61.71,0
56,59.00,61.66,0
56,58.94,61.60,0
55,58.86,61.53,0
55,58.79,61.47,0
56,58.73,61.41,0
56,58.68,61.36,0
55,58.60,61.30,0
57,58.57,61.25,0
56,58.52,61.20,0
56,58.47,61.15,0
54,58.38,61.08,0
53,58.27,61.00,0
55,58.21,60.94,0
54,58.12,60.87,0
55,58.06,60.81,0
55,58.00,60.75,0
54,57.92,60.68,0
