Teste de posicionamento 2(EMG ao centro do bíceps (Vermelho A, Verde B) + Ref no cotovelo) - 16/04/2024 - teste2 - 5 contrações
long frequencia = 1000;                 //frequência de aquisição do sinal, neste caso, 1000 sinais por segundo
float fator1 = 0.02, fator2 = 0.01;
float incerteza = 0.13;
float pico_basal = 130; // Mínimo para ser considerado um pico de contração
int filtro_horizontal=200000; //intervalo de 200ms valores não pode ter mais de 1 contração

Biceps_D,mediaMovel_1,mediaMovel_2,Contracao
21,0.42,0.21,0
21,0.83,0.42,0
21,1.23,0.62,0
22,1.65,0.84,0
21,2.04,1.04,0
21,2.42,1.24,0
24,2.85,1.47,0
21,3.21,1.66,0
24,3.63,1.89,0
21,3.97,2.08,0
22,4.33,2.28,0
21,4.67,2.46,0
21,4.99,2.65,0
23,5.36,2.85,0
22,5.69,3.04,0
23,6.03,3.24,0
21,6.33,3.42,0
21,6.63,3.60,0
21,6.91,3.77,0
23,7.24,3.96,0
24,7.57,4.16,0
25,7.92,4.37,0
22,8.20,4.55,0
23,8.50,4.73,0
24,8.81,4.92,0
21,9.05,5.09,0
21,9.29,5.24,0
22,9.54,5.41,0
24,9.83,5.60,0
21,10.06,5.75,0
22,10.30,5.91,0
21,10.51,6.07,0
21,10.72,6.21,0
21,10.93,6.36,0
22,11.15,6.52,0
22,11.36,6.67,0
21,11.56,6.82,0
21,11.75,6.96,0
22,11.95,7.11,0
22,12.15,7.26,0
21,12.33,7.40,0
19,12.46,7.51,0
21,12.63,7.65,0
22,12.82,7.79,0
21,12.98,7.92,0
21,13.14,8.05,0
21,13.30,8.18,0
21,13.46,8.31,0
23,13.65,8.46,0
21,13.79,8.58,0
21,13.94,8.71,0
21,14.08,8.83,0
21,14.22,8.95,0
21,14.35,9.07,0
20,14.47,9.18,0
20,14.58,9.29,0
20,14.68,9.40,0
22,14.83,9.52,0
20,14.93,9.63,0
21,15.06,9.74,0
20,15.15,9.84,0
21,15.27,9.96,0
21,15.39,10.07,0
21,15.50,10.18,0
21,15.61,10.28,0
19,15.68,10.37,0
21,15.78,10.48,0
20,15.87,10.57,0
21,15.97,10.68,0
20,16.05,10.77,0
21,16.15,10.87,0
21,16.25,10.97,0
20,16.32,11.06,0
20,16.39,11.15,0
21,16.49,11.25,0
21,16.58,11.35,0
20,16.65,11.44,0
20,16.71,11.52,0
20,16.78,11.61,0
22,16.88,11.71,0
20,16.95,11.79,0
20,17.01,11.87,0
21,17.09,11.97,0
21,17.16,12.06,0
20,17.22,12.14,0
20,17.28,12.21,0
20,17.33,12.29,0
20,17.38,12.37,0
20,17.44,12.45,0
20,17.49,12.52,0
20,17.54,12.60,0
21,17.61,12.68,0
20,17.66,12.75,0
20,17.70,12.83,0
21,17.77,12.91,0
20,17.81,12.98,0
20,17.86,13.05,0
20,17.90,13.12,0
20,17.94,13.19,0
20,17.98,13.25,0
20,18.02,13.32,0
22,18.10,13.41,0
20,18.14,13.48,0
21,18.20,13.55,0
20,18.23,13.61,0
20,18.27,13.68,0
20,18.30,13.74,0
20,18.34,13.80,0
23,18.43,13.90,0
22,18.50,13.98,0
21,18.55,14.05,0
20,18.58,14.11,0
20,18.61,14.17,0
22,18.68,14.24,0
20,18.70,14.30,0
22,18.77,14.38,0
20,18.79,14.44,0
20,18.82,14.49,0
20,18.84,14.55,0
20,18.87,14.60,0
22,18.93,14.67,0
20,18.95,14.73,0
21,18.99,14.79,0
20,19.01,14.84,0
17,18.97,14.86,0
20,18.99,14.92,0
21,19.03,14.98,0
20,19.05,15.03,0
20,19.07,15.08,0
20,19.09,15.13,0
20,19.11,15.17,0
20,19.12,15.22,0
20,19.14,15.27,0
19,19.14,15.31,0
21,19.18,15.36,0
21,19.21,15.42,0
20,19.23,15.47,0
19,19.22,15.50,0
21,19.26,15.56,0
22,19.31,15.62,0
20,19.33,15.67,0
20,19.34,15.71,0
20,19.35,15.75,0
20,19.37,15.79,0
20,19.38,15.84,0
20,19.39,15.88,0
20,19.40,15.92,0
20,19.42,15.96,0
19,19.41,15.99,0
20,19.42,16.03,0
22,19.47,16.09,0
20,19.48,16.13,0
20,19.49,16.17,0
21,19.52,16.22,0
20,19.53,16.25,0
20,19.54,16.29,0
20,19.55,16.33,0
20,19.56,16.37,0
20,19.57,16.40,0
20,19.58,16.44,0
20,19.59,16.47,0
20,19.59,16.51,0
20,19.60,16.54,0
21,19.63,16.59,0
20,19.64,16.62,0
19,19.62,16.65,0
20,19.63,16.68,0
20,19.64,16.71,0
19,19.63,16.74,0
20,19.63,16.77,0
20,19.64,16.80,0
20,19.65,16.83,0
20,19.66,16.86,0
20,19.66,16.90,0
20,19.67,16.93,0
20,19.68,16.96,0
20,19.68,16.99,0
20,19.69,17.02,0
20,19.70,17.05,0
20,19.70,17.08,0
22,19.75,17.13,0
20,19.75,17.16,0
21,19.78,17.19,0
20,19.78,17.22,0
20,19.79,17.25,0
20,19.79,17.28,0
21,19.81,17.31,0
21,19.84,17.35,0
22,19.88,17.40,0
20,19.88,17.42,0
20,19.89,17.45,0
20,19.89,17.47,0
21,19.91,17.51,0
20,19.91,17.53,0
20,19.91,17.56,0
22,19.96,17.60,0
20,19.96,17.63,0
20,19.96,17.65,0
20,19.96,17.68,0
20,19.96,17.70,0
20,19.96,17.72,0
20,19.96,17.74,0
20,19.96,17.77,0
20,19.96,17.79,0
20,19.96,17.81,0
20,19.96,17.83,0
19,19.94,17.84,0
20,19.95,17.87,0
20,19.95,17.89,0
20,19.95,17.91,0
21,19.97,17.94,0
20,19.97,17.96,0
20,19.97,17.98,0
20,19.97,18.00,0
20,19.97,18.02,0
20,19.97,18.04,0
20,19.97,18.06,0
20,19.97,18.08,0
19,19.95,18.09,0
20,19.95,18.11,0
20,19.96,18.13,0
20,19.96,18.15,0
20,19.96,18.16,0
20,19.96,18.18,0
20,19.96,18.20,0
18,19.92,18.20,0
20,19.92,18.22,0
20,19.92,18.23,0
20,19.92,18.25,0
18,19.89,18.25,0
20,19.89,18.27,0
24,19.97,18.32,0
20,19.97,18.34,0
18,19.93,18.34,0
20,19.93,18.35,0
20,19.93,18.37,0
21,19.96,18.40,0
20,19.96,18.41,0
21,19.98,18.44,0
19,19.96,18.44,0
19,19.94,18.45,0
18,19.90,18.45,0
20,19.90,18.46,0
19,19.88,18.47,0
19,19.87,18.47,0
22,19.91,18.51,0
20,19.91,18.52,0
20,19.91,18.54,0
20,19.91,18.55,0
20,19.92,18.57,0
20,19.92,18.58,0
20,19.92,18.59,0
18,19.88,18.59,0
20,19.88,18.60,0
21,19.91,18.63,0
19,19.89,18.63,0
20,19.89,18.64,0
21,19.91,18.67,0
20,19.91,18.68,0
21,19.94,18.70,0
20,19.94,18.72,0
20,19.94,18.73,0
19,19.92,18.73,0
20,19.92,18.75,0
20,19.92,18.76,0
20,19.92,18.77,0
20,19.93,18.78,0
20,19.93,18.79,0
20,19.93,18.81,0
20,19.93,18.82,0
20,19.93,18.83,0
20,19.93,18.84,0
20,19.93,18.85,0
20,19.94,18.87,0
20,19.94,18.88,0
20,19.94,18.89,0
20,19.94,18.90,0
20,19.94,18.91,0
19,19.92,18.91,0
20,19.92,18.92,0
20,19.92,18.93,0
20,19.93,18.94,0
20,19.93,18.95,0
21,19.95,18.97,0
21,19.97,18.99,0
20,19.97,19.00,0
22,20.01,19.03,0
20,20.01,19.04,0
20,20.01,19.05,0
20,20.01,19.06,0
21,20.03,19.08,0
21,20.05,19.10,0
22,20.09,19.13,0
21,20.11,19.15,0
19,20.08,19.15,0
21,20.10,19.17,0
20,20.10,19.17,0
20,20.10,19.18,0
21,20.12,19.20,0
20,20.11,19.21,0
20,20.11,19.22,0
21,20.13,19.24,0
21,20.15,19.25,0
21,20.16,19.27,0
21,20.18,19.29,0
20,20.18,19.29,0
21,20.19,19.31,0
21,20.21,19.33,0
21,20.23,19.35,0
22,20.26,19.37,0
21,20.28,19.39,0
21,20.29,19.40,0
21,20.31,19.42,0
20,20.30,19.43,0
21,20.31,19.44,0
23,20.37,19.48,0
21,20.38,19.49,0
20,20.37,19.50,0
20,20.36,19.50,0
21,20.38,19.52,0
22,20.41,19.54,0
21,20.42,19.56,0
22,20.45,19.58,0
22,20.48,19.61,0
20,20.47,19.61,0
20,20.46,19.61,0
22,20.50,19.64,0
22,20.53,19.66,0
20,20.51,19.66,0
22,20.54,19.69,0
22,20.57,19.71,0
21,20.58,19.72,0
21,20.59,19.74,0
22,20.62,19.76,0
21,20.63,19.77,0
22,20.65,19.79,0
22,20.68,19.82,0
21,20.69,19.83,0
22,20.71,19.85,0
21,20.72,19.86,0
22,20.74,19.88,0
21,20.75,19.89,0
22,20.77,19.91,0
20,20.76,19.92,0
21,20.76,19.93,0
20,20.75,19.93,0
25,20.83,19.98,0
22,20.86,20.00,0
22,20.88,20.02,0
22,20.90,20.04,0
21,20.90,20.05,0
21,20.91,20.06,0
22,20.93,20.08,0
22,20.95,20.10,0
19,20.91,20.08,0
22,20.93,20.10,0
22,20.95,20.12,0
22,20.97,20.14,0
22,21.00,20.16,0
22,21.02,20.18,0
22,21.04,20.20,0
22,21.05,20.21,0
20,21.03,20.21,0
21,21.03,20.22,0
22,21.05,20.24,0
20,21.03,20.24,0
22,21.05,20.25,0
23,21.09,20.28,0
22,21.11,20.30,0
22,21.13,20.32,0
22,21.14,20.33,0
24,21.20,20.37,0
22,21.22,20.39,0
19,21.17,20.37,0
22,21.19,20.39,0
21,21.18,20.39,0
22,21.20,20.41,0
22,21.22,20.43,0
23,21.25,20.45,0
22,21.27,20.47,0
22,21.28,20.48,0
22,21.30,20.50,0
21,21.29,20.50,0
22,21.30,20.52,0
24,21.36,20.55,0
22,21.37,20.57,0
22,21.38,20.58,0
22,21.40,20.60,0
22,21.41,20.61,0
22,21.42,20.62,0
22,21.43,20.64,0
22,21.44,20.65,0
22,21.45,20.66,0
22,21.47,20.68,0
22,21.48,20.69,0
21,21.47,20.69,0
22,21.48,20.71,0
22,21.49,20.72,0
23,21.52,20.74,0
22,21.53,20.76,0
22,21.54,20.77,0
22,21.55,20.78,0
23,21.58,20.80,0
23,21.60,20.82,0
22,21.61,20.84,0
22,21.62,20.85,0
23,21.65,20.87,0
22,21.65,20.88,0
23,21.68,20.90,0
22,21.69,20.91,0
22,21.69,20.92,0
22,21.70,20.93,0
22,21.71,20.94,0
22,21.71,20.96,0
23,21.74,20.98,0
22,21.74,20.99,0
22,21.75,21.00,0
22,21.75,21.01,0
23,21.78,21.03,0
22,21.78,21.04,0
22,21.79,21.05,0
22,21.79,21.06,0
24,21.84,21.08,0
24,21.88,21.11,0
24,21.92,21.14,0
22,21.92,21.15,0
23,21.94,21.17,0
24,21.99,21.20,0
23,22.01,21.22,0
22,22.01,21.22,0
23,22.03,21.24,0
25,22.08,21.28,0
24,22.12,21.31,0
24,22.16,21.33,0
23,22.18,21.35,0
24,22.21,21.38,0
22,22.21,21.38,0
23,22.23,21.40,0
24,22.26,21.42,0
24,22.30,21.45,0
24,22.33,21.48,0
24,22.36,21.50,0
24,22.40,21.53,0
24,22.43,21.55,0
24,22.46,21.58,0
24,22.49,21.60,0
25,22.54,21.63,0
24,22.57,21.66,0
24,22.60,21.68,0
24,22.63,21.70,0
24,22.65,21.73,0
24,22.68,21.75,0
24,22.71,21.77,0
24,22.73,21.79,0
26,22.80,21.84,0
25,22.84,21.87,0
24,22.87,21.89,0
24,22.89,21.91,0
24,22.91,21.93,0
25,22.95,21.96,0
24,22.97,21.98,0
26,23.03,22.02,0
25,23.07,22.05,0
25,23.11,22.08,0
24,23.13,22.10,0
24,23.15,22.12,0
26,23.20,22.16,0
26,23.26,22.20,0
26,23.31,22.24,0
23,23.31,22.24,0
26,23.36,22.28,0
25,23.39,22.31,0
26,23.45,22.34,0
24,23.46,22.36,0
25,23.49,22.39,0
26,23.54,22.42,0
24,23.55,22.44,0
22,23.52,22.44,0
24,23.53,22.45,0
25,23.56,22.48,0
25,23.59,22.50,0
24,23.59,22.52,0
26,23.64,22.55,0
26,23.69,22.59,0
26,23.74,22.62,0
26,23.78,22.65,0
25,23.80,22.68,0
26,23.85,22.71,0
26,23.89,22.74,0
26,23.93,22.78,0
26,23.98,22.81,0
25,24.00,22.83,0
26,24.04,22.86,0
26,24.08,22.89,0
26,24.11,22.92,0
28,24.19,22.97,0
26,24.23,23.01,0
28,24.30,23.06,0
27,24.36,23.09,0
28,24.43,23.14,0
26,24.46,23.17,0
26,24.49,23.20,0
26,24.52,23.23,0
26,24.55,23.26,0
26,24.58,23.28,0
26,24.61,23.31,0
25,24.62,23.33,0
26,24.64,23.35,0
26,24.67,23.38,0
26,24.70,23.41,0
26,24.72,23.43,0
26,24.75,23.46,0
26,24.77,23.48,0
26,24.80,23.51,0
26,24.82,23.53,0
26,24.85,23.56,0
26,24.87,23.58,0
25,24.87,23.60,0
26,24.89,23.62,0
26,24.92,23.65,0
26,24.94,23.67,0
26,24.96,23.69,0
26,24.98,23.72,0
27,25.02,23.75,0
26,25.04,23.77,0
26,25.06,23.79,0
28,25.12,23.83,0
25,25.12,23.85,0
26,25.13,23.87,0
26,25.15,23.89,0
26,25.17,23.91,0
25,25.16,23.92,0
26,25.18,23.94,0
25,25.18,23.95,0
27,25.21,23.98,0
25,25.21,23.99,0
26,25.23,24.01,0
26,25.24,24.03,0
27,25.28,24.06,0
26,25.29,24.08,0
26,25.31,24.10,0
26,25.32,24.12,0
27,25.35,24.15,0
28,25.41,24.19,0
26,25.42,24.21,0
26,25.43,24.22,0
26,25.44,24.24,0
27,25.47,24.27,0
26,25.48,24.29,0
26,25.49,24.30,0
26,25.50,24.32,0
27,25.53,24.35,0
27,25.56,24.37,0
26,25.57,24.39,0
28,25.62,24.43,0
27,25.65,24.45,0
26,25.65,24.47,0
26,25.66,24.48,0
26,25.67,24.50,0
26,25.67,24.51,0
26,25.68,24.53,0
26,25.69,24.54,0
27,25.71,24.57,0
26,25.72,24.58,0
26,25.73,24.60,0
28,25.77,24.63,0
27,25.80,24.65,0
26,25.80,24.67,0
26,25.80,24.68,0
28,25.85,24.71,0
27,25.87,24.74,0
27,25.89,24.76,0
26,25.89,24.77,0
26,25.90,24.78,0
27,25.92,24.81,0
27,25.94,24.83,0
31,26.04,24.89,0
28,26.08,24.92,0
28,26.12,24.95,0
27,26.14,24.97,0
25,26.11,24.97,0
28,26.15,25.00,0
27,26.17,25.02,0
27,26.19,25.04,0
30,26.26,25.09,0
28,26.30,25.12,0
28,26.33,25.15,0
30,26.40,25.20,0
26,26.40,25.21,0
28,26.43,25.23,0
28,26.46,25.26,0
27,26.47,25.28,0
23,26.40,25.26,0
28,26.43,25.28,0
28,26.46,25.31,0
28,26.50,25.34,0
28,26.53,25.36,0
28,26.55,25.39,0
28,26.58,25.42,0
28,26.61,25.44,0
28,26.64,25.47,0
28,26.67,25.49,0
27,26.67,25.51,0
28,26.70,25.53,0
28,26.73,25.56,0
28,26.75,25.58,0
28,26.78,25.61,0
28,26.80,25.63,0
29,26.84,25.66,0
28,26.87,25.69,0
30,26.93,25.73,0
29,26.97,25.76,0
28,26.99,25.79,0
28,27.01,25.81,0
28,27.03,25.83,0
28,27.05,25.85,0
29,27.09,25.88,0
28,27.11,25.90,0
28,27.13,25.93,0
29,27.16,25.96,0
29,27.20,25.99,0
29,27.24,26.02,0
28,27.25,26.04,0
29,27.29,26.07,0
30,27.34,26.11,0
30,27.39,26.14,0
30,27.45,26.18,0
31,27.52,26.23,0
30,27.57,26.27,0
30,27.62,26.31,0
30,27.66,26.34,0
30,27.71,26.38,0
30,27.76,26.42,0
30,27.80,26.45,0
30,27.85,26.49,0
30,27.89,26.52,0
30,27.93,26.56,0
30,27.97,26.59,0
30,28.01,26.63,0
31,28.07,26.67,0
30,28.11,26.70,0
30,28.15,26.74,0
29,28.17,26.76,0
30,28.20,26.79,0
30,28.24,26.82,0
30,28.27,26.85,0
30,28.31,26.89,0
30,28.34,26.92,0
30,28.37,26.95,0
30,28.41,26.98,0
31,28.46,27.02,0
30,28.49,27.05,0
31,28.54,27.09,0
30,28.57,27.12,0
31,28.62,27.16,0
32,28.69,27.20,0
30,28.71,27.23,0
30,28.74,27.26,0
31,28.78,27.30,0
32,28.85,27.34,0
32,28.91,27.39,0
32,28.97,27.44,0
30,28.99,27.46,0
30,29.01,27.49,0
30,29.03,27.51,0
31,29.07,27.55,0
31,29.11,27.58,0
32,29.17,27.63,0
32,29.23,27.67,0
31,29.26,27.70,0
31,29.30,27.74,0
32,29.35,27.78,0
32,29.40,27.82,0
32,29.45,27.86,0
33,29.53,27.91,0
33,29.59,27.97,0
34,29.68,28.03,0
34,29.77,28.09,0
35,29.87,28.15,0
35,29.98,28.22,0
38,30.14,28.32,0
34,30.21,28.38,0
35,30.31,28.44,0
36,30.42,28.52,0
34,30.50,28.57,0
36,30.61,28.65,0
35,30.69,28.71,0
36,30.80,28.79,0
34,30.86,28.84,0
36,30.97,28.91,0
36,31.07,28.98,0
36,31.17,29.05,0
36,31.26,29.12,0
36,31.36,29.19,0
36,31.45,29.26,0
36,31.54,29.32,0
36,31.63,29.39,0
36,31.72,29.46,0
36,31.80,29.52,0
39,31.95,29.62,0
36,32.03,29.68,0
36,32.11,29.74,0
37,32.21,29.82,0
37,32.30,29.89,0
37,32.40,29.96,0
38,32.51,30.04,0
37,32.60,30.11,0
37,32.69,30.18,0
37,32.77,30.25,0
38,32.88,30.32,0
38,32.98,30.40,0
40,33.12,30.50,0
38,33.22,30.57,0
38,33.31,30.65,0
39,33.43,30.73,0
37,33.50,30.79,0
38,33.59,30.86,0
38,33.68,30.94,0
38,33.76,31.01,0
38,33.85,31.08,0
38,33.93,31.15,0
38,34.01,31.21,0
39,34.11,31.29,0
38,34.19,31.36,0
38,34.27,31.43,0
38,34.34,31.49,0
38,34.41,31.56,0
39,34.50,31.63,0
38,34.57,31.69,0
38,34.64,31.76,0
39,34.73,31.83,0
39,34.82,31.90,0
38,34.88,31.96,0
40,34.98,32.04,0
39,35.06,32.11,0
39,35.14,32.18,0
40,35.24,32.26,0
40,35.33,32.34,0
40,35.43,32.41,0
41,35.54,32.50,0
42,35.67,32.59,0
42,35.79,32.69,0
42,35.92,32.78,0
42,36.04,32.87,0
42,36.16,32.97,0
44,36.32,33.08,0
44,36.47,33.18,0
44,36.62,33.29,0
45,36.79,33.41,0
44,36.93,33.52,0
43,37.05,33.61,0
44,37.19,33.71,0
45,37.35,33.83,0
44,37.48,33.93,0
44,37.61,34.03,0
47,37.80,34.16,0
45,37.94,34.27,0
44,38.06,34.37,0
46,38.22,34.48,0
44,38.34,34.58,0
44,38.45,34.67,0
44,38.56,34.76,0
45,38.69,34.87,0
44,38.80,34.96,0
44,38.90,35.05,0
45,39.02,35.15,0
45,39.14,35.25,0
45,39.26,35.34,0
46,39.40,35.45,0
46,39.53,35.56,0
47,39.68,35.67,0
46,39.80,35.77,0
46,39.93,35.88,0
47,40.07,35.99,0
47,40.21,36.10,0
48,40.36,36.22,0
48,40.52,36.33,0
48,40.67,36.45,0
48,40.81,36.57,0
48,40.96,36.68,0
48,41.10,36.79,0
48,41.24,36.91,0
48,41.37,37.02,0
50,41.54,37.15,0
49,41.69,37.27,0
50,41.86,37.39,0
50,42.02,37.52,0
50,42.18,37.64,0
50,42.34,37.77,0
50,42.49,37.89,0
50,42.64,38.01,0
50,42.79,38.13,0
50,42.93,38.25,0
50,43.07,38.37,0
50,43.21,38.48,0
52,43.39,38.62,0
50,43.52,38.73,0
50,43.65,38.84,0
50,43.78,38.96,0
51,43.92,39.08,0
50,44.04,39.19,0
50,44.16,39.29,0
51,44.30,39.41,0
51,44.43,39.53,0
52,44.58,39.65,0
52,44.73,39.78,0
56,44.96,39.94,0
53,45.12,40.07,0
54,45.30,40.21,0
53,45.45,40.34,0
53,45.60,40.46,0
54,45.77,40.60,0
54,45.93,40.73,0
54,46.10,40.86,0
59,46.35,41.05,0
56,46.55,41.20,0
56,46.74,41.34,0
56,46.92,41.49,0
57,47.12,41.64,0
58,47.34,41.81,0
57,47.53,41.96,0
58,47.74,42.12,0
58,47.95,42.28,0
58,48.15,42.44,0
58,48.35,42.59,0
60,48.58,42.77,0
59,48.79,42.93,0
58,48.97,43.08,0
60,49.19,43.25,0
62,49.45,43.44,0
61,49.68,43.61,0
61,49.91,43.79,0
61,50.13,43.96,0
61,50.34,44.13,0
63,50.60,44.32,0
65,50.89,44.52,0
64,51.15,44.72,0
64,51.41,44.91,0
64,51.66,45.10,0
66,51.94,45.31,0
64,52.19,45.50,0
64,52.42,45.68,0
65,52.67,45.88,0
65,52.92,46.07,0
66,53.18,46.27,0
66,53.44,46.46,0
67,53.71,46.67,0
68,53.99,46.88,0
68,54.27,47.09,0
66,54.51,47.28,0
69,54.80,47.50,0
72,55.14,47.75,0
71,55.46,47.98,0
72,55.79,48.22,0
72,56.12,48.46,0
72,56.43,48.69,0
72,56.74,48.92,0
73,57.07,49.17,0
73,57.39,49.40,0
74,57.72,49.65,0
74,58.05,49.89,0
75,58.38,50.14,0
76,58.74,50.40,0
76,59.08,50.66,0
75,59.40,50.90,0
76,59.73,51.15,0
76,60.06,51.40,0
76,60.38,51.65,0
75,60.67,51.88,0
75,60.96,52.11,0
75,61.24,52.34,0
76,61.53,52.58,0
76,61.82,52.81,0
76,62.11,53.04,0
76,62.38,53.27,0
76,62.66,53.50,0
76,62.92,53.73,0
76,63.18,53.95,0
78,63.48,54.19,0
76,63.73,54.41,0
76,63.98,54.62,0
76,64.22,54.84,0
77,64.47,55.06,0
77,64.72,55.28,0
78,64.99,55.50,0
78,65.25,55.73,0
77,65.48,55.94,0
78,65.73,56.16,0
78,65.98,56.38,0
78,66.22,56.60,0
78,66.46,56.81,0
78,66.69,57.02,0
81,66.97,57.26,0
78,67.19,57.47,0
79,67.43,57.69,0
80,67.68,57.91,0
78,67.89,58.11,0
79,68.11,58.32,0
80,68.35,58.54,0
82,68.62,58.77,0
80,68.85,58.98,0
79,69.05,59.18,0
81,69.29,59.40,0
81,69.52,59.62,0
80,69.73,59.82,0
80,69.94,60.02,0
81,70.16,60.23,0
81,70.38,60.44,0
80,70.57,60.64,0
81,70.78,60.84,0
81,70.98,61.04,0
81,71.18,61.24,0
80,71.36,61.43,0
80,71.53,61.61,0
81,71.72,61.81,0
84,71.97,62.03,0
81,72.15,62.22,0
79,72.28,62.39,0
81,72.46,62.57,0
81,72.63,62.76,0
81,72.80,62.94,0
82,72.98,63.13,0
81,73.14,63.31,0
81,73.30,63.49,0
82,73.47,63.67,0
82,73.64,63.85,0
82,73.81,64.04,0
83,73.99,64.23,0
82,74.15,64.40,0
84,74.35,64.60,0
84,74.54,64.79,0
84,74.73,64.99,0
81,74.86,65.15,0
82,75.00,65.31,0
83,75.16,65.49,0
84,75.34,65.68,0
84,75.51,65.86,0
83,75.66,66.03,0
84,75.83,66.21,0
84,75.99,66.39,0
84,76.15,66.56,0
84,76.31,66.74,0
85,76.48,66.92,0
86,76.67,67.11,0
85,76.84,67.29,0
82,76.94,67.44,0
85,77.10,67.61,0
84,77.24,67.78,0
84,77.38,67.94,0
84,77.51,68.10,0
84,77.64,68.26,0
84,77.77,68.42,0
84,77.89,68.57,0
84,78.01,68.73,0
84,78.13,68.88,0
84,78.25,69.03,0
84,78.37,69.18,0
84,78.48,69.33,0
84,78.59,69.48,0
84,78.70,69.62,0
83,78.78,69.75,0
84,78.89,69.90,0
85,79.01,70.05,0
83,79.09,70.18,0
84,79.19,70.32,0
84,79.28,70.45,0
84,79.38,70.59,0
83,79.45,70.71,0
84,79.54,70.85,0
82,79.59,70.96,0
83,79.66,71.08,0
83,79.73,71.20,0
82,79.77,71.30,0
83,79.84,71.42,0
83,79.90,71.54,0
83,79.96,71.65,0
82,80.00,71.76,0
82,80.04,71.86,0
83,80.10,71.97,0
82,80.14,72.07,0
82,80.18,72.17,0
82,80.21,72.27,0
82,80.25,72.36,0
82,80.28,72.46,0
84,80.36,72.58,0
82,80.39,72.67,0
82,80.42,72.76,0
84,80.49,72.88,0
84,80.56,72.99,0
82,80.59,73.08,0
82,80.62,73.17,0
85,80.71,73.28,0
82,80.73,73.37,0
82,80.76,73.46,0
82,80.78,73.54,0
82,80.81,73.63,0
82,80.83,73.71,0
81,80.84,73.78,0
82,80.86,73.87,0
82,80.88,73.95,0
81,80.88,74.02,0
82,80.91,74.10,0
81,80.91,74.17,0
82,80.93,74.25,0
82,80.95,74.32,0
81,80.95,74.39,0
81,80.95,74.46,0
82,80.97,74.53,0
81,80.98,74.60,0
82,81.00,74.67,0
82,81.02,74.74,0
80,81.00,74.80,0
82,81.02,74.87,0
80,81.00,74.92,0
80,80.98,74.97,0
80,80.96,75.02,0
80,80.94,75.07,0
80,80.92,75.12,0
81,80.92,75.18,0
80,80.90,75.23,0
80,80.88,75.27,0
80,80.87,75.32,0
80,80.85,75.37,0
80,80.83,75.42,0
80,80.81,75.46,0
80,80.80,75.51,0
80,80.78,75.55,0
80,80.77,75.60,0
80,80.75,75.64,0
78,80.70,75.66,0
80,80.68,75.71,0
80,80.67,75.75,0
80,80.66,75.79,0
78,80.60,75.81,0
80,80.59,75.86,0
80,80.58,75.90,0
80,80.57,75.94,0
79,80.54,75.97,0
80,80.52,76.01,0
81,80.53,76.06,0
80,80.52,76.10,0
80,80.51,76.14,0
80,80.50,76.18,0
79,80.47,76.20,0
80,80.46,76.24,0
78,80.41,76.26,0
79,80.39,76.29,0
79,80.36,76.31,0
78,80.31,76.33,0
78,80.26,76.35,0
79,80.24,76.37,0
79,80.21,76.40,0
78,80.17,76.42,0
79,80.15,76.44,0
79,80.12,76.47,0
77,80.06,76.47,0
78,80.02,76.49,0
78,79.98,76.50,0
79,79.96,76.53,0
78,79.92,76.54,0
76,79.84,76.54,0
78,79.81,76.55,0
78,79.77,76.57,0
79,79.75,76.59,0
78,79.72,76.61,0
78,79.68,76.62,0
78,79.65,76.63,0
78,79.62,76.65,0
76,79.55,76.64,0
78,79.51,76.65,0
78,79.48,76.67,0
77,79.43,76.67,0
77,79.39,76.67,0
77,79.34,76.68,0
78,79.31,76.69,0
77,79.27,76.69,0
78,79.24,76.71,0
78,79.22,76.72,0
76,79.15,76.71,0
77,79.11,76.72,0
76,79.05,76.71,0
76,78.98,76.70,0
77,78.95,76.70,0
77,78.91,76.71,0
76,78.85,76.70,0
76,78.79,76.69,0
76,78.74,76.69,0
76,78.68,76.68,0
76,78.63,76.67,0
75,78.55,76.66,0
76,78.50,76.65,0
78,78.49,76.66,0
76,78.44,76.66,0
75,78.37,76.64,0
75,78.31,76.62,0
77,78.28,76.63,0
76,78.24,76.62,0
75,78.17,76.60,0
76,78.13,76.60,0
76,78.08,76.59,0
75,78.02,76.58,0
74,77.94,76.55,0
74,77.86,76.53,0
76,77.83,76.52,0
74,77.75,76.50,0
74,77.67,76.47,0
74,77.60,76.45,0
75,77.55,76.43,0
74,77.48,76.41,0
74,77.41,76.38,0
74,77.34,76.36,0
74,77.27,76.34,0
74,77.21,76.31,0
74,77.14,76.29,0
75,77.10,76.28,0
74,77.04,76.25,0
74,76.98,76.23,0
74,76.92,76.21,0
74,76.86,76.19,0
74,76.80,76.16,0
74,76.75,76.14,0
74,76.69,76.12,0
73,76.62,76.09,0
74,76.57,76.07,0
74,76.51,76.05,0
74,76.46,76.03,0
74,76.42,76.01,0
74,76.37,75.99,0
74,76.32,75.97,0
74,76.27,75.95,0
74,76.23,75.93,0
74,76.18,75.91,0
74,76.14,75.89,0
73,76.08,75.86,0
73,76.02,75.83,0
74,75.97,75.81,0
74,75.94,75.80,0
74,75.90,75.78,0
74,75.86,75.76,0
74,75.82,75.74,0
74,75.79,75.73,0
74,75.75,75.71,0
74,75.71,75.69,0
75,75.70,75.68,0
76,75.71,75.69,0
76,75.71,75.69,0
74,75.68,75.67,0
74,75.64,75.66,0
76,75.65,75.66,0
74,75.62,75.64,0
75,75.61,75.64,0
74,75.57,75.62,0
74,75.54,75.60,0
73,75.49,75.58,0
74,75.46,75.56,0
74,75.43,75.55,0
74,75.40,75.53,0
73,75.36,75.51,0
74,75.33,75.49,0
74,75.30,75.48,0
74,75.28,75.46,0
74,75.25,75.45,0
75,75.25,75.44,0
74,75.22,75.43,0
74,75.20,75.41,0
73,75.15,75.39,0
73,75.11,75.37,0
76,75.13,75.37,0
73,75.08,75.35,0
73,75.04,75.32,0
72,74.98,75.29,0
74,74.96,75.28,0
72,74.90,75.25,0
73,74.87,75.22,0
73,74.83,75.20,0
73,74.79,75.18,0
72,74.74,75.15,0
73,74.70,75.13,0
73,74.67,75.10,0
74,74.65,75.09,0
72,74.60,75.06,0
72,74.55,75.03,0
72,74.50,75.00,0
71,74.43,74.96,0
72,74.38,74.93,0
72,74.33,74.90,0
73,74.30,74.88,0
73,74.28,74.86,0
72,74.23,74.84,0
72,74.19,74.81,0
72,74.14,74.78,0
73,74.12,74.76,0
72,74.08,74.73,0
72,74.04,74.71,0
72,74.00,74.68,0
72,73.96,74.65,0
72,73.92,74.63,0
72,73.88,74.60,0
73,73.86,74.58,0
72,73.82,74.56,0
72,73.79,74.53,0
72,73.75,74.51,0
72,73.72,74.48,0
72,73.68,74.46,0
72,73.65,74.43,0
72,73.62,74.41,0
72,73.58,74.38,0
72,73.55,74.36,0
70,73.48,74.32,0
70,73.41,74.27,0
71,73.36,74.24,0
71,73.32,74.21,0
70,73.25,74.17,0
70,73.18,74.13,0
70,73.12,74.08,0
70,73.06,74.04,0
70,73.00,74.00,0
70,72.94,73.96,0
71,72.90,73.93,0
70,72.84,73.89,0
72,72.82,73.87,0
70,72.77,73.84,0
70,72.71,73.80,0
70,72.66,73.76,0
70,72.60,73.72,0
70,72.55,73.68,0
71,72.52,73.66,0
70,72.47,73.62,0
72,72.46,73.61,0
70,72.41,73.57,0
70,72.36,73.53,0
70,72.32,73.50,0
71,72.29,73.47,0
70,72.24,73.44,0
70,72.20,73.40,0
70,72.16,73.37,0
72,72.15,73.36,0
71,72.13,73.33,0
71,72.11,73.31,0
70,72.07,73.28,0
70,72.02,73.24,0
70,71.98,73.21,0
70,71.94,73.18,0
70,71.90,73.15,0
69,71.85,73.11,0
70,71.81,73.07,0
70,71.77,73.04,0
69,71.72,73.00,0
70,71.68,72.97,0
70,71.65,72.94,0
70,71.62,72.91,0
69,71.56,72.88,0
69,71.51,72.84,0
70,71.48,72.81,0
69,71.43,72.77,0
69,71.38,72.73,0
69,71.34,72.69,0
69,71.29,72.66,0
69,71.24,72.62,0
70,71.22,72.60,0
68,71.16,72.55,0
68,71.09,72.50,0
68,71.03,72.46,0
69,70.99,72.42,0
68,70.93,72.38,0
68,70.87,72.34,0
68,70.81,72.29,0
69,70.78,72.26,0
68,70.72,72.22,0
68,70.67,72.18,0
68,70.61,72.13,0
68,70.56,72.09,0
68,70.51,72.05,0
68,70.46,72.01,0
68,70.41,71.97,0
68,70.36,71.93,0
67,70.30,71.88,0
68,70.25,71.84,0
68,70.20,71.80,0
67,70.14,71.76,0
67,70.08,71.71,0
68,70.04,71.67,0
71,70.06,71.66,0
67,69.99,71.62,0
68,69.95,71.58,0
68,69.92,71.55,0
68,69.88,71.51,0
67,69.82,71.47,0
66,69.74,71.41,0
66,69.67,71.36,0
69,69.66,71.33,0
68,69.62,71.30,0
66,69.55,71.25,0
66,69.48,71.19,0
67,69.43,71.15,0
66,69.36,71.10,0
67,69.31,71.06,0
66,69.25,71.01,0
65,69.16,70.95,0
66,69.10,70.90,0
66,69.04,70.85,0
66,68.98,70.80,0
67,68.94,70.76,0
66,68.88,70.72,0
66,68.82,70.67,0
68,68.80,70.64,0
66,68.75,70.60,0
67,68.71,70.56,0
66,68.66,70.51,0
66,68.61,70.47,0
66,68.55,70.42,0
66,68.50,70.38,0
65,68.43,70.33,0
66,68.38,70.28,0
66,68.34,70.24,0
68,68.33,70.22,0
66,68.28,70.18,0
68,68.28,70.15,0
66,68.23,70.11,0
67,68.21,70.08,0
66,68.16,70.04,0
66,68.12,70.00,0
65,68.06,69.95,0
64,67.98,69.89,0
66,67.94,69.85,0
64,67.86,69.79,0
65,67.80,69.75,0
68,67.80,69.73,0
65,67.75,69.68,0
64,67.67,69.62,0
65,67.62,69.58,0
65,67.57,69.53,0
65,67.52,69.49,0
65,67.47,69.44,0
65,67.42,69.40,0
64,67.35,69.34,0
64,67.28,69.29,0
64,67.22,69.24,0
65,67.17,69.19,0
64,67.11,69.14,0
65,67.07,69.10,0
64,67.00,69.05,0
64,66.94,69.00,0
65,66.91,68.96,0
64,66.85,68.91,0
65,66.81,68.87,0
64,66.75,68.82,0
63,66.68,68.76,0
64,66.63,68.72,0
64,66.57,68.67,0
64,66.52,68.62,0
65,66.49,68.59,0
64,66.44,68.54,0
64,66.39,68.50,0
65,66.36,68.46,0
64,66.32,68.42,0
64,66.27,68.37,0
64,66.23,68.33,0
64,66.18,68.28,0
64,66.14,68.24,0
64,66.09,68.20,0
64,66.05,68.16,0
64,66.01,68.12,0
64,65.97,68.07,0
62,65.89,68.01,0
64,65.85,67.97,0
64,65.82,67.93,0
63,65.76,67.88,0
63,65.71,67.84,0
62,65.63,67.78,0
63,65.58,67.73,0
62,65.51,67.67,0
62,65.44,67.62,0
62,65.37,67.56,0
63,65.32,67.51,0
62,65.25,67.46,0
62,65.19,67.40,0
62,65.13,67.35,0
62,65.06,67.30,0
62,65.00,67.24,0
64,64.98,67.21,0
62,64.92,67.16,0
62,64.86,67.11,0
62,64.81,67.06,0
64,64.79,67.03,0
62,64.73,66.98,0
63,64.70,66.94,0
62,64.65,66.89,0
64,64.63,66.86,0
66,64.66,66.85,0
62,64.61,66.80,0
62,64.56,66.75,0
62,64.50,66.71,0
62,64.45,66.66,0
63,64.42,66.62,0
62,64.38,66.58,0
62,64.33,66.53,0
64,64.32,66.50,0
62,64.28,66.46,0
62,64.23,66.41,0
62,64.19,66.37,0
62,64.14,66.33,0
62,64.10,66.28,0
62,64.06,66.24,0
62,64.02,66.20,0
62,63.98,66.16,0
61,63.92,66.10,0
61,63.86,66.05,0
62,63.82,66.01,0
61,63.76,65.96,0
61,63.71,65.91,0
61,63.65,65.86,0
61,63.60,65.82,0
59,63.51,65.75,0
61,63.46,65.70,0
61,63.41,65.65,0
61,63.36,65.61,0
60,63.29,65.55,0
60,63.23,65.49,0
60,63.16,65.44,0
61,63.12,65.40,0
61,63.08,65.35,0
61,63.04,65.31,0
61,63.00,65.26,0
60,62.94,65.21,0
60,62.88,65.16,0
61,62.84,65.12,0
60,62.78,65.07,0
60,62.73,65.02,0
60,62.67,64.97,0
61,62.64,64.93,0
61,62.61,64.89,0
61,62.57,64.85,0
60,62.52,64.80,0
60,62.47,64.75,0
60,62.42,64.70,0
60,62.37,64.66,0
60,62.33,64.61,0
60,62.28,64.56,0
61,62.26,64.53,0
60,62.21,64.48,0
60,62.17,64.44,0
61,62.14,64.40,0
60,62.10,64.36,0
60,62.06,64.32,0
60,62.02,64.27,0
60,61.98,64.23,0
60,61.94,64.19,0
59,61.88,64.14,0
60,61.84,64.10,0
60,61.80,64.05,0
59,61.75,64.00,0
59,61.69,63.95,0
60,61.66,63.91,0
60,61.63,63.88,0
59,61.57,63.83,0
58,61.50,63.77,0
58,61.43,63.71,0
60,61.40,63.67,0
58,61.33,63.62,0
58,61.27,63.56,0
60,61.24,63.53,0
59,61.20,63.48,0
59,61.15,63.44,0
60,61.13,63.40,0
60,61.11,63.37,0
59,61.07,63.32,0
59,61.02,63.28,0
60,61.00,63.25,0
60,60.98,63.21,0
59,60.94,63.17,0
58,60.89,63.12,0
58,60.83,63.07,0
58,60.77,63.02,0
58,60.72,62.97,0
61,60.72,62.95,0
58,60.67,62.90,0
58,60.61,62.85,0
58,60.56,62.80,0
58,60.51,62.75,0
58,60.46,62.71,0
58,60.41,62.66,0
58,60.36,62.61,0
58,60.32,62.57,0
58,60.27,62.52,0
58,60.22,62.48,0
58,60.18,62.43,0
59,60.16,62.40,0
58,60.11,62.35,0
58,60.07,62.31,0
60,60.07,62.29,0
58,60.03,62.24,0
58,59.99,62.20,0
58,59.95,62.16,0
58,59.91,62.12,0
59,59.89,62.09,0
58,59.85,62.05,0
58,59.82,62.00,0
57,59.76,61.95,0
59,59.74,61.93,0
58,59.71,61.89,0
58,59.67,61.85,0
57,59.62,61.80,0
57,59.57,61.75,0
58,59.54,61.71,0
56,59.47,61.66,0
56,59.40,61.60,0
57,59.35,61.55,0
57,59.30,61.51,0
56,59.24,61.45,0
57,59.19,61.41,0
58,59.17,61.37,0
57,59.12,61.33,0
56,59.06,61.28,0
57,59.02,61.23,0
57,58.98,61.19,0
56,58.92,61.14,0
57,58.88,61.10,0
57,58.84,61.06,0
57,58.81,61.02,0
56,58.75,60.97,0
58,58.74,60.94,0
58,58.72,60.91,0
57,58.69,60.87,0
56,58.63,60.82,0
56,58.58,60.77,0
56,58.53,60.72,0
57,58.50,60.69,0
56,58.45,60.64,0
58,58.44,60.61,0
56,58.39,60.57,0
56,58.34,60.52,0
56,58.30,60.48,0
56,58.25,60.43,0
56,58.21,60.39,0
56,58.16,60.34,0
53,58.06,60.27,0
56,58.02,60.23,0
56,57.98,60.19,0
56,57.94,60.14,0
56,57.90,60.10,0
56,57.86,60.06,0
56,57.82,60.02,0
56,57.79,59.98,0
54,57.71,59.92,0
56,57.68,59.88,0
56,57.64,59.84,0
58,57.65,59.82,0
56,57.62,59.79,0
54,57.54,59.73,0
56,57.51,59.69,0
55,57.46,59.64,0
56,57.43,59.61,0
55,57.39,59.56,0
55,57.34,59.52,0
55,57.29,59.47,0
54,57.23,59.42,0
55,57.18,59.37,0
54,57.12,59.32,0
56,57.10,59.28,0
54,57.03,59.23,0
54,56.97,59.18,0
54,56.91,59.13,0
54,56.85,59.08,0
54,56.80,59.03,0
54,56.74,58.98,0
54,56.69,58.93,0
53,56.61,58.87,0
54,56.56,58.82,0
54,56.51,58.77,0
54,56.46,58.72,0
54,56.41,58.67,0
54,56.36,58.63,0
54,56.31,58.58,0
53,56.25,58.53,0
54,56.20,58.48,0
54,56.16,58.44,0
54,56.12,58.39,0
53,56.05,58.34,0
54,56.01,58.29,0
53,55.95,58.24,0
54,55.91,58.20,0
54,55.88,58.16,0
53,55.82,58.11,0
54,55.78,58.06,0
54,55.75,58.02,0
53,55.69,57.97,0
53,55.64,57.92,0
53,55.58,57.87,0
54,55.55,57.84,0
53,55.50,57.79,0
53,55.45,57.74,0
54,55.42,57.70,0
54,55.39,57.66,0
54,55.37,57.63,0
54,55.34,57.59,0
53,55.29,57.55,0
52,55.23,57.49,0
53,55.18,57.45,0
53,55.14,57.40,0
54,55.12,57.37,0
52,55.05,57.31,0
53,55.01,57.27,0
53,54.97,57.23,0
53,54.93,57.19,0
52,54.87,57.13,0
53,54.84,57.09,0
52,54.78,57.04,0
52,54.72,56.99,0
52,54.67,56.94,0
53,54.64,56.90,0
53,54.60,56.86,0
52,54.55,56.81,0
52,54.50,56.77,0
53,54.47,56.73,0
52,54.42,56.68,0
51,54.35,56.62,0
52,54.31,56.58,0
51,54.24,56.52,0
52,54.19,56.48,0
52,54.15,56.43,0
52,54.11,56.39,0
51,54.05,56.33,0
52,54.00,56.29,0
52,53.96,56.25,0
52,53.93,56.21,0
52,53.89,56.16,0
52,53.85,56.12,0
52,53.81,56.08,0
52,53.78,56.04,0
52,53.74,56.00,0
52,53.71,55.96,0
52,53.67,55.92,0
52,53.64,55.88,0
52,53.61,55.84,0
52,53.57,55.80,0
52,53.54,55.77,0
52,53.51,55.73,0
51,53.46,55.68,0
51,53.41,55.63,0
52,53.38,55.60,0
52,53.36,55.56,0
51,53.31,55.52,0
52,53.28,55.48,0
51,53.24,55.44,0
51,53.19,55.39,0
52,53.17,55.36,0
53,53.16,55.33,0
52,53.14,55.30,0
51,53.10,55.26,0
51,53.06,55.21,0
49,52.98,55.15,0
50,52.92,55.10,0
50,52.86,55.05,0
51,52.82,55.01,0
53,52.82,54.99,0
49,52.75,54.93,0
50,52.69,54.88,0
52,52.68,54.85,0
50,52.63,54.80,0
50,52.57,54.75,0
50,52.52,54.71,0
51,52.49,54.67,0
51,52.46,54.63,0
50,52.41,54.59,0
50,52.36,54.54,0
50,52.32,54.50,0
50,52.27,54.45,0
50,52.22,54.41,0
50,52.18,54.36,0
50,52.14,54.32,0
50,52.09,54.28,0
50,52.05,54.23,0
50,52.01,54.19,0
52,52.01,54.17,0
51,51.99,54.14,0
50,51.95,54.10,0
50,51.91,54.05,0
50,51.87,54.01,0
52,51.88,53.99,0
50,51.84,53.95,0
50,51.80,53.91,0
49,51.75,53.87,0
50,51.71,53.83,0
50,51.68,53.79,0
50,51.64,53.75,0
50,51.61,53.71,0
52,51.62,53.70,0
50,51.59,53.66,0
49,51.53,53.61,0
51,51.52,53.59,0
50,51.49,53.55,0
50,51.46,53.51,0
49,51.41,53.47,0
49,51.37,53.43,0
50,51.34,53.39,0
50,51.31,53.36,0
50,51.28,53.32,0
47,51.20,53.26,0
49,51.16,53.22,0
50,51.13,53.19,0
50,51.11,53.15,0
50,51.09,53.12,0
48,51.03,53.07,0
49,50.99,53.03,0
48,50.93,52.98,0
47,50.85,52.92,0
49,50.81,52.88,0
49,50.77,52.84,0
49,50.74,52.80,0
50,50.72,52.78,0
49,50.69,52.74,0
49,50.66,52.70,0
48,50.60,52.65,0
48,50.55,52.61,0
52,50.58,52.60,0
49,50.55,52.56,0
49,50.52,52.53,0
49,50.49,52.49,0
51,50.50,52.48,0
48,50.45,52.43,0
47,50.38,52.38,0
48,50.33,52.34,0
49,50.30,52.30,0
48,50.26,52.26,0
48,50.21,52.22,0
48,50.17,52.17,0
48,50.12,52.13,0
48,50.08,52.09,0
48,50.04,52.05,0
48,50.00,52.01,0
49,49.98,51.98,0
48,49.94,51.94,0
48,49.90,51.90,0
47,49.84,51.85,0
49,49.83,51.82,0
48,49.79,51.79,0
48,49.75,51.75,0
48,49.72,51.71,0
48,49.68,51.67,0
48,49.65,51.64,0
48,49.62,51.60,0
47,49.57,51.55,0
48,49.53,51.52,0
48,49.50,51.48,0
47,49.45,51.44,0
47,49.40,51.39,0
48,49.38,51.36,0
48,49.35,51.33,0
48,49.32,51.29,0
51,49.36,51.29,0
48,49.33,51.26,0
48,49.30,51.22,0
47,49.26,51.18,0
46,49.19,51.13,0
48,49.17,51.10,0
47,49.12,51.06,0
46,49.06,51.01,0
47,49.02,50.97,0
47,48.98,50.93,0
46,48.92,50.88,0
46,48.86,50.83,0
47,48.82,50.79,0
48,48.81,50.76,0
48,48.79,50.74,0
47,48.76,50.70,0
45,48.68,50.64,0
48,48.67,50.62,0
48,48.65,50.59,0
50,48.68,50.58,0
48,48.67,50.56,0
47,48.63,50.52,0
49,48.64,50.51,0
46,48.59,50.46,0
48,48.58,50.44,0
48,48.56,50.41,0
48,48.55,50.39,0
48,48.54,50.36,0
47,48.51,50.33,0
46,48.46,50.29,0
47,48.43,50.25,0
47,48.40,50.22,0
47,48.38,50.19,0
46,48.33,50.15,0
46,48.28,50.11,0
46,48.24,50.07,0
47,48.21,50.03,0
46,48.17,49.99,0
48,48.16,49.97,0
47,48.14,49.94,0
47,48.12,49.92,0
46,48.08,49.88,0
47,48.05,49.85,0
46,48.01,49.81,0
46,47.97,49.77,0
48,47.97,49.75,0
47,47.95,49.73,0
47,47.93,49.70,0
46,47.90,49.66,0
46,47.86,49.62,0
46,47.82,49.59,0
46,47.78,49.55,0
47,47.77,49.53,0
45,47.71,49.48,0
46,47.68,49.45,0
46,47.65,49.41,0
47,47.63,49.39,0
47,47.62,49.36,0
47,47.61,49.34,0
46,47.58,49.31,0
46,47.54,49.27,0
47,47.53,49.25,0
46,47.50,49.22,0
46,47.47,49.19,0
46,47.44,49.16,0
48,47.45,49.14,0
47,47.44,49.12,0
46,47.42,49.09,0
47,47.41,49.07,0
47,47.40,49.05,0
46,47.37,49.02,0
46,47.34,48.99,0
47,47.34,48.97,0
47,47.33,48.95,0
47,47.32,48.93,0
47,47.32,48.91,0
47,47.31,48.89,0
48,47.32,48.88,0
47,47.32,48.86,0
48,47.33,48.85,0
47,47.33,48.84,0
48,47.34,48.83,0
48,47.35,48.82,0
47,47.34,48.80,0
47,47.34,48.78,0
48,47.35,48.78,0
48,47.36,48.77,0
48,47.38,48.76,0
48,47.39,48.75,0
48,47.40,48.74,0
48,47.41,48.74,0
47,47.41,48.72,0
47,47.40,48.70,0
48,47.41,48.70,0
49,47.44,48.70,0
48,47.45,48.69,0
48,47.46,48.69,0
48,47.47,48.68,0
48,47.48,48.67,0
48,47.49,48.66,0
47,47.48,48.65,0
48,47.50,48.64,0
48,47.51,48.64,0
47,47.50,48.62,0
48,47.51,48.61,0
48,47.52,48.61,0
48,47.52,48.60,0
48,47.53,48.59,0
49,47.56,48.60,0
48,47.57,48.59,0
48,47.58,48.59,0
47,47.57,48.57,0
48,47.58,48.56,0
48,47.59,48.56,0
48,47.59,48.55,0
50,47.64,48.57,0
48,47.65,48.56,0
50,47.70,48.58,0
48,47.70,48.57,0
47,47.69,48.56,0
48,47.70,48.55,0
48,47.70,48.54,0
48,47.71,48.54,0
48,47.71,48.53,0
47,47.70,48.52,0
49,47.72,48.52,0
47,47.71,48.51,0
46,47.68,48.48,0
47,47.66,48.47,0
47,47.65,48.45,0
47,47.64,48.44,0
45,47.58,48.40,0
47,47.57,48.39,0
47,47.56,48.38,0
46,47.53,48.35,0
47,47.52,48.34,0
47,47.51,48.33,0
47,47.50,48.31,0
47,47.49,48.30,0
47,47.48,48.29,0
49,47.51,48.29,0
49,47.54,48.30,0
48,47.55,48.30,0
47,47.54,48.28,0
48,47.55,48.28,0
47,47.54,48.27,0
47,47.52,48.26,0
47,47.51,48.24,0
48,47.52,48.24,0
47,47.51,48.23,0
47,47.50,48.22,0
46,47.47,48.19,0
47,47.46,48.18,0
47,47.45,48.17,0
47,47.45,48.16,0
46,47.42,48.14,0
46,47.39,48.12,0
47,47.38,48.10,0
46,47.35,48.08,0
46,47.33,48.06,0
47,47.32,48.05,0
47,47.31,48.04,0
46,47.29,48.02,0
46,47.26,48.00,0
46,47.24,47.98,0
47,47.23,47.97,0
46,47.21,47.95,0
46,47.18,47.93,0
47,47.18,47.92,0
46,47.15,47.90,0
46,47.13,47.88,0
46,47.11,47.87,0
47,47.11,47.86,0
47,47.10,47.85,0
46,47.08,47.83,0
46,47.06,47.81,0
47,47.06,47.80,0
46,47.04,47.79,0
46,47.02,47.77,0
47,47.02,47.76,0
46,47.00,47.74,0
46,46.98,47.72,0
46,46.96,47.71,0
46,46.94,47.69,0
46,46.92,47.67,0
47,46.92,47.67,0
46,46.90,47.65,0
46,46.88,47.63,0
46,46.87,47.62,0
46,46.85,47.60,0
46,46.83,47.59,0
46,46.82,47.57,0
45,46.78,47.54,0
45,46.74,47.52,0
45,46.71,47.49,0
46,46.70,47.48,0
46,46.68,47.46,0
46,46.67,47.45,0
46,46.65,47.43,0
45,46.62,47.41,0
46,46.61,47.40,0
46,46.60,47.38,0
46,46.58,47.37,0
45,46.55,47.34,0
46,46.54,47.33,0
46,46.53,47.32,0
46,46.52,47.30,0
45,46.49,47.28,0
47,46.50,47.28,0
48,46.53,47.29,0
45,46.50,47.26,0
46,46.49,47.25,0
45,46.46,47.23,0
46,46.45,47.22,0
46,46.44,47.20,0
46,46.43,47.19,0
47,46.44,47.19,0
46,46.44,47.18,0
46,46.43,47.17,0
46,46.42,47.15,0
46,46.41,47.14,0
45,46.38,47.12,0
46,46.37,47.11,0
46,46.37,47.10,0
45,46.34,47.08,0
48,46.37,47.09,0
47,46.38,47.09,0
46,46.38,47.08,0
46,46.37,47.06,0
47,46.38,47.06,0
50,46.45,47.09,0
46,46.45,47.08,0
47,46.46,47.08,0
48,46.49,47.09,0
47,46.50,47.09,0
46,46.49,47.08,0
46,46.48,47.07,0
49,46.53,47.09,0
50,46.60,47.12,0
47,46.61,47.12,0
47,46.61,47.11,0
47,46.62,47.11,0
46,46.61,47.10,0
46,46.60,47.09,0
47,46.60,47.09,0
46,46.59,47.08,0
45,46.56,47.06,0
46,46.55,47.05,0
46,46.54,47.04,0
48,46.57,47.05,0
46,46.56,47.04,0
46,46.55,47.03,0
47,46.55,47.03,0
46,46.54,47.02,0
46,46.53,47.01,0
46,46.52,47.00,0
47,46.53,47.00,0
47,46.54,47.00,0
46,46.53,46.99,0
46,46.52,46.98,0
47,46.53,46.98,0
47,46.54,46.98,0
46,46.53,46.97,0
46,46.52,46.96,0
47,46.53,46.96,0
46,46.52,46.95,0
46,46.51,46.94,0
46,46.50,46.93,0
47,46.51,46.93,0
46,46.50,46.92,0
46,46.49,46.91,0
46,46.48,46.90,0
47,46.49,46.90,0
46,46.48,46.89,0
47,46.49,46.89,0
46,46.48,46.89,0
47,46.49,46.89,0
47,46.50,46.89,0
47,46.51,46.89,0
47,46.52,46.89,0
47,46.53,46.89,0
48,46.56,46.90,0
47,46.57,46.90,0
47,46.57,46.90,0
47,46.58,46.91,0
46,46.57,46.90,0
46,46.56,46.89,0
47,46.57,46.89,0
47,46.58,46.89,0
47,46.59,46.89,0
46,46.57,46.88,0
47,46.58,46.88,0
47,46.59,46.88,0
48,46.62,46.90,0
47,46.63,46.90,0
46,46.61,46.89,0
48,46.64,46.90,0
48,46.67,46.91,0
47,46.68,46.91,0
47,46.68,46.91,0
46,46.67,46.90,0
47,46.68,46.90,0
47,46.68,46.90,0
46,46.67,46.90,0
46,46.65,46.89,0
48,46.68,46.90,0
46,46.67,46.89,0
46,46.65,46.88,0
47,46.66,46.88,0
47,46.67,46.88,0
47,46.68,46.88,0
46,46.66,46.87,0
47,46.67,46.88,0
47,46.67,46.88,0
47,46.68,46.88,0
46,46.67,46.87,0
47,46.67,46.87,0
47,46.68,46.87,0
47,46.69,46.87,0
46,46.67,46.86,0
47,46.68,46.87,0
48,46.71,46.88,0
47,46.71,46.88,0
46,46.70,46.87,0
47,46.70,46.87,0
47,46.71,46.87,0
47,46.72,46.87,0
46,46.70,46.86,0
46,46.69,46.86,0
47,46.69,46.86,0
46,46.68,46.85,0
47,46.69,46.85,0
47,46.69,46.85,0
48,46.72,46.86,0
47,46.72,46.86,0
46,46.71,46.86,0
47,46.72,46.86,0
48,46.74,46.87,0
46,46.73,46.86,0
47,46.73,46.86,0
47,46.74,46.86,0
47,46.74,46.86,0
46,46.73,46.86,0
46,46.71,46.85,0
47,46.72,46.85,0
47,46.72,46.85,0
46,46.71,46.84,0
46,46.70,46.83,0
47,46.70,46.84,0
47,46.71,46.84,0
46,46.69,46.83,0
47,46.70,46.83,0
47,46.71,46.83,0
50,46.77,46.86,0
48,46.80,46.87,0
47,46.80,46.88,0
47,46.80,46.88,0
48,46.83,46.89,0
48,46.85,46.90,0
48,46.87,46.91,0
49,46.92,46.93,0
50,46.98,46.96,0
52,47.08,47.01,0
52,47.18,47.06,0
52,47.27,47.11,0
52,47.37,47.16,0
51,47.44,47.20,0
52,47.53,47.25,0
51,47.60,47.28,0
49,47.63,47.30,0
52,47.72,47.35,0
52,47.80,47.40,0
51,47.87,47.43,0
51,47.93,47.47,0
52,48.01,47.51,0
51,48.07,47.55,0
52,48.15,47.59,0
52,48.23,47.64,0
51,48.28,47.67,0
52,48.36,47.71,0
51,48.41,47.75,0
52,48.48,47.79,0
52,48.55,47.83,0
51,48.60,47.86,0
51,48.65,47.89,0
52,48.72,47.93,0
52,48.78,47.98,0
52,48.85,48.02,0
52,48.91,48.06,0
52,48.97,48.09,0
51,49.01,48.12,0
52,49.07,48.16,0
51,49.11,48.19,0
52,49.17,48.23,0
51,49.20,48.26,0
52,49.26,48.29,0
52,49.31,48.33,0
51,49.35,48.36,0
51,49.38,48.38,0
50,49.39,48.40,0
53,49.47,48.45,0
52,49.52,48.48,0
51,49.55,48.51,0
50,49.56,48.52,0
51,49.58,48.55,0
51,49.61,48.57,0
50,49.62,48.59,0
50,49.63,48.60,0
52,49.68,48.63,0
51,49.70,48.66,0
50,49.71,48.67,0
50,49.71,48.68,0
53,49.78,48.73,0
52,49.82,48.76,0
51,49.85,48.78,0
52,49.89,48.81,0
52,49.93,48.85,0
53,49.99,48.89,0
52,50.03,48.92,0
52,50.07,48.95,0
53,50.13,48.99,0
54,50.21,49.04,0
52,50.24,49.07,0
54,50.32,49.12,0
54,50.39,49.17,0
54,50.47,49.22,0
54,50.54,49.26,0
54,50.61,49.31,0
56,50.71,49.38,0
56,50.82,49.44,0
56,50.92,49.51,0
56,51.02,49.58,0
57,51.14,49.65,0
58,51.28,49.73,0
58,51.42,49.82,0
58,51.55,49.90,0
58,51.68,49.98,0
61,51.86,50.09,0
60,52.03,50.19,0
60,52.18,50.29,0
60,52.34,50.38,0
60,52.49,50.48,0
60,52.64,50.57,0
62,52.83,50.69,0
60,52.98,50.78,0
63,53.18,50.90,0
61,53.33,51.01,0
62,53.51,51.12,0
63,53.70,51.23,0
65,53.92,51.37,0
64,54.12,51.50,0
63,54.30,51.61,0
64,54.49,51.74,0
65,54.70,51.87,0
64,54.89,51.99,0
64,55.07,52.11,0
64,55.25,52.23,0
65,55.45,52.36,0
65,55.64,52.48,0
64,55.80,52.60,0
65,55.99,52.72,0
65,56.17,52.85,0
66,56.37,52.98,0
66,56.56,53.11,0
66,56.75,53.24,0
69,56.99,53.39,0
70,57.25,53.56,0
70,57.51,53.72,0
74,57.84,53.93,0
73,58.14,54.12,0
71,58.40,54.29,0
72,58.67,54.46,0
73,58.96,54.65,0
74,59.26,54.84,0
74,59.55,55.03,0
74,59.84,55.22,0
72,60.08,55.39,0
74,60.36,55.58,0
74,60.63,55.76,0
75,60.92,55.95,0
77,61.24,56.16,0
76,61.54,56.36,0
76,61.83,56.56,0
76,62.11,56.75,0
76,62.39,56.95,0
77,62.68,57.15,0
78,62.99,57.36,0
78,63.29,57.56,0
78,63.58,57.77,0
78,63.87,57.97,0
78,64.15,58.17,0
78,64.43,58.37,0
79,64.72,58.57,0
79,65.01,58.78,0
80,65.31,58.99,0
80,65.60,59.20,0
81,65.91,59.42,0
81,66.21,59.63,0
82,66.53,59.86,0
85,66.90,60.11,0
85,67.26,60.36,0
85,67.61,60.60,0
84,67.94,60.84,0
84,68.26,61.07,0
85,68.60,61.31,0
86,68.94,61.56,0
86,69.29,61.80,0
86,69.62,62.04,0
86,69.95,62.28,0
86,70.27,62.52,0
88,70.62,62.77,0
86,70.93,63.01,0
87,71.25,63.25,0
86,71.55,63.47,0
87,71.86,63.71,0
86,72.14,63.93,0
87,72.44,64.16,0
87,72.73,64.39,0
86,72.99,64.61,0
88,73.29,64.84,0
88,73.59,65.07,0
90,73.92,65.32,0
89,74.22,65.56,0
90,74.53,65.80,0
92,74.88,66.07,0
91,75.20,66.31,0
92,75.54,66.57,0
92,75.87,66.83,0
93,76.21,67.09,0
94,76.57,67.36,0
95,76.94,67.63,0
96,77.32,67.92,0
95,77.67,68.19,0
95,78.02,68.46,0
95,78.36,68.72,0
96,78.71,68.99,0
97,79.08,69.27,0
97,79.44,69.55,0
98,79.81,69.84,0
97,80.15,70.11,0
98,80.51,70.39,0
99,80.88,70.67,0
99,81.24,70.96,0
100,81.61,71.25,0
100,81.98,71.53,0
100,82.34,71.82,0
99,82.68,72.09,0
100,83.02,72.37,0
103,83.42,72.68,0
101,83.77,72.96,0
101,84.12,73.24,0
102,84.48,73.53,0
102,84.83,73.81,0
103,85.19,74.10,0
103,85.55,74.39,0
103,85.89,74.68,0
104,86.26,74.97,0
104,86.61,75.26,0
105,86.98,75.56,0
105,87.34,75.85,0
106,87.71,76.16,0
107,88.10,76.46,0
107,88.48,76.77,0
107,88.85,77.07,0
108,89.23,77.38,0
108,89.61,77.69,0
108,89.97,77.99,0
109,90.35,78.30,0
109,90.73,78.61,0
109,91.09,78.91,0
110,91.47,79.22,0
110,91.84,79.53,0
109,92.18,79.82,0
112,92.58,80.15,0
114,93.01,80.48,0
112,93.39,80.80,0
114,93.80,81.13,0
112,94.17,81.44,0
113,94.54,81.76,0
112,94.89,82.06,0
113,95.25,82.37,0
113,95.61,82.67,0
113,95.96,82.98,0
112,96.28,83.27,0
114,96.63,83.58,0
114,96.98,83.88,0
114,97.32,84.18,0
115,97.67,84.49,0
115,98.02,84.79,0
116,98.38,85.11,0
117,98.75,85.42,0
117,99.12,85.74,0
117,99.47,86.05,0
117,99.82,86.36,0
120,100.23,86.70,0
121,100.64,87.04,0
119,101.01,87.36,0
120,101.39,87.69,0
121,101.78,88.02,0
121,102.17,88.35,0
121,102.54,88.68,0
124,102.97,89.03,0
122,103.35,89.36,0
122,103.73,89.69,0
122,104.09,90.01,0
123,104.47,90.34,0
122,104.82,90.66,0
124,105.20,90.99,0
124,105.58,91.32,0
125,105.97,91.66,0
124,106.33,91.98,0
126,106.72,92.32,0
126,107.11,92.66,0
125,107.47,92.98,0
125,107.82,93.30,0
124,108.14,93.61,0
124,108.46,93.91,0
126,108.81,94.23,0
124,109.11,94.53,0
124,109.41,94.82,0
124,109.70,95.12,0
125,110.01,95.42,0
124,110.29,95.70,0
125,110.58,95.99,0
124,110.85,96.27,0
124,111.11,96.55,0
126,111.41,96.85,0
127,111.72,97.15,0
126,112.01,97.44,0
126,112.29,97.72,0
126,112.56,98.00,0
130,112.91,98.32,0
130,113.25,98.64,0
132,113.63,98.97,0
132,114.00,99.31,0
132,114.36,99.63,0
134,114.75,99.98,0
135,115.15,100.33,0
136,115.57,100.68,0
136,115.98,101.04,0
136,116.38,101.39,0
137,116.79,101.74,0
137,117.20,102.09,0
137,117.59,102.44,0
137,117.98,102.79,0
139,118.40,103.15,0
138,118.79,103.50,0
138,119.18,103.84,0
137,119.53,104.18,0
139,119.92,104.52,0
140,120.32,104.88,0
139,120.70,105.22,0
140,121.08,105.57,0
143,121.52,105.94,0
141,121.91,106.29,0
141,122.29,106.64,0
141,122.67,106.98,0
140,123.01,107.31,0
141,123.37,107.65,0
141,123.73,107.98,0
140,124.05,108.30,0
141,124.39,108.63,0
141,124.72,108.96,0
141,125.05,109.28,0
141,125.37,109.59,0
141,125.68,109.91,0
142,126.01,110.23,0
141,126.31,110.54,0
141,126.60,110.84,0
140,126.87,111.13,0
141,127.15,111.43,0
141,127.43,111.73,0
141,127.70,112.02,0
141,127.97,112.31,0
141,128.23,112.60,0
141,128.48,112.88,0
140,128.71,113.15,0
142,128.98,113.44,0
140,129.20,113.70,0
141,129.43,113.98,0
141,129.67,114.25,0
141,129.89,114.52,0
141,130.11,114.78,0
141,130.33,115.04,0
141,130.55,115.30,0
141,130.75,115.56,0
140,130.94,115.80,0
141,131.14,116.06,0
141,131.34,116.31,0
141,131.53,116.55,0
141,131.72,116.80,0
140,131.89,117.03,0
141,132.07,117.27,0
141,132.25,117.51,0
141,132.42,117.74,0
141,132.59,117.97,0
141,132.76,118.20,0
140,132.91,118.42,0
141,133.07,118.65,0
141,133.23,118.87,0
141,133.38,119.09,0
139,133.49,119.29,0
141,133.65,119.51,0
140,133.77,119.71,0
139,133.88,119.91,0
140,134.00,120.11,0
139,134.10,120.30,0
139,134.20,120.48,0
135,134.21,120.63,0
139,134.31,120.81,0
139,134.40,120.99,0
139,134.49,121.17,0
139,134.58,121.35,0
139,134.67,121.53,0
137,134.72,121.68,0
138,134.79,121.85,0
138,134.85,122.01,0
138,134.91,122.17,0
137,134.95,122.32,0
139,135.04,122.48,0
137,135.07,122.63,0
137,135.11,122.77,0
138,135.17,122.92,0
137,135.21,123.06,0
137,135.24,123.20,0
137,135.28,123.34,0
137,135.31,123.48,0
137,135.35,123.61,0
137,135.38,123.75,0
137,135.41,123.88,0
138,135.46,124.02,0
137,135.49,124.15,0
138,135.54,124.29,0
137,135.57,124.42,0
137,135.60,124.54,0
136,135.61,124.66,0
136,135.62,124.77,0
137,135.65,124.89,0
136,135.65,125.00,0
136,135.66,125.11,0
135,135.65,125.21,0
135,135.63,125.31,0
135,135.62,125.41,0
136,135.63,125.51,0
135,135.62,125.61,0
135,135.60,125.70,0
135,135.59,125.80,0
135,135.58,125.89,0
135,135.57,125.98,0
135,135.56,126.07,0
134,135.53,126.15,0
133,135.48,126.22,0
133,135.43,126.28,0
135,135.42,126.37,0
133,135.37,126.44,0
134,135.34,126.51,0
133,135.29,126.58,0
134,135.27,126.65,0
133,135.22,126.72,0
133,135.18,126.78,0
133,135.14,126.84,0
133,135.09,126.90,0
132,135.03,126.95,0
131,134.95,126.99,0
132,134.89,127.04,0
132,134.83,127.09,0
132,134.78,127.14,0
131,134.70,127.18,0
131,134.63,127.22,0
131,134.55,127.26,0
131,134.48,127.29,0
131,134.41,127.33,0
131,134.35,127.37,0
130,134.26,127.39,0
131,134.19,127.43,0
130,134.11,127.46,0
129,134.01,127.47,0
129,133.91,127.49,0
130,133.83,127.51,0
129,133.73,127.53,0
130,133.66,127.55,0
129,133.56,127.57,0
129,133.47,127.58,0
129,133.38,127.60,0
129,133.30,127.61,0
129,133.21,127.62,0
128,133.11,127.63,0
128,133.00,127.63,0
128,132.90,127.63,0
128,132.81,127.64,0
127,132.69,127.63,0
129,132.62,127.65,0
127,132.50,127.64,0
128,132.41,127.64,0
127,132.31,127.64,0
127,132.20,127.63,0
127,132.10,127.62,0
127,131.99,127.62,0
127,131.89,127.61,0
127,131.80,127.60,0
127,131.70,127.60,0
127,131.61,127.59,0
128,131.53,127.60,0
126,131.42,127.58,0
125,131.29,127.56,0
125,131.17,127.53,0
125,131.05,127.50,0
125,130.92,127.48,0
125,130.81,127.45,0
125,130.69,127.43,0
125,130.58,127.41,0
125,130.46,127.38,0
125,130.36,127.36,0
123,130.21,127.31,0
125,130.10,127.29,0
124,129.98,127.26,0
126,129.90,127.25,0
124,129.78,127.21,0
121,129.61,127.15,0
124,129.50,127.12,0
123,129.37,127.08,0
123,129.24,127.04,0
123,129.11,127.00,0
123,128.99,126.96,0
123,128.87,126.92,0
122,128.73,126.87,0
123,128.62,126.83,0
122,128.49,126.78,0
122,128.36,126.73,0
123,128.25,126.70,0
121,128.11,126.64,0
123,128.00,126.60,0
121,127.86,126.55,0
121,127.73,126.49,0
122,127.61,126.45,0
121,127.48,126.39,0
121,127.35,126.34,0
121,127.22,126.28,0
121,127.10,126.23,0
121,126.98,126.18,0
121,126.86,126.13,0
121,126.74,126.08,0
121,126.63,126.03,0
121,126.51,125.98,0
121,126.40,125.93,0
121,126.29,125.88,0
121,126.19,125.83,0
120,126.06,125.77,0
120,125.94,125.71,0
120,125.82,125.65,0
120,125.71,125.60,0
120,125.59,125.54,0
121,125.50,125.50,0
119,125.37,125.43,0
119,125.24,125.37,0
120,125.14,125.31,0
119,125.02,125.25,0
120,124.92,125.20,0
119,124.80,125.14,0
118,124.66,125.06,0
118,124.53,124.99,0
119,124.42,124.93,0
118,124.29,124.86,0
118,124.16,124.80,0
117,124.02,124.72,0
117,123.88,124.64,0
118,123.76,124.57,0
117,123.63,124.50,0
117,123.50,124.42,0
117,123.37,124.35,0
117,123.24,124.28,0
117,123.11,124.20,0
117,122.99,124.13,0
116,122.85,124.05,0
117,122.73,123.98,0
117,122.62,123.91,0
116,122.49,123.83,0
116,122.36,123.75,0
115,122.21,123.66,0
115,122.07,123.58,0
116,121.94,123.50,0
116,121.83,123.43,0
116,121.71,123.35,0
115,121.57,123.27,0
115,121.44,123.19,0
115,121.31,123.10,0
115,121.19,123.02,0
113,121.02,122.92,0
114,120.88,122.83,0
113,120.73,122.74,0
114,120.59,122.65,0
114,120.46,122.56,0
114,120.33,122.48,0
114,120.20,122.39,0
113,120.06,122.30,0
115,119.96,122.22,0
114,119.84,122.14,0
113,119.70,122.05,0
113,119.57,121.96,0
113,119.44,121.87,0
113,119.31,121.78,0
113,119.18,121.69,0
113,119.06,121.61,0
112,118.92,121.51,0
113,118.80,121.43,0
111,118.64,121.32,0
111,118.49,121.22,0
112,118.36,121.13,0
111,118.21,121.03,0
112,118.09,120.94,0
111,117.95,120.84,0
111,117.81,120.74,0
111,117.67,120.64,0
111,117.54,120.54,0
111,117.41,120.45,0
110,117.26,120.34,0
110,117.11,120.24,0
111,116.99,120.15,0
109,116.83,120.04,0
109,116.68,119.93,0
109,116.52,119.82,0
109,116.37,119.71,0
109,116.22,119.60,0
109,116.08,119.50,0
109,115.94,119.39,0
109,115.80,119.29,0
109,115.66,119.18,0
108,115.51,119.07,0
107,115.34,118.95,0
109,115.21,118.85,0
107,115.05,118.73,0
108,114.91,118.63,0
108,114.77,118.52,0
108,114.63,118.41,0
107,114.48,118.30,0
108,114.35,118.20,0
107,114.21,118.09,0
107,114.06,117.97,0
108,113.94,117.87,0
107,113.80,117.77,0
107,113.67,117.66,0
107,113.53,117.55,0
107,113.40,117.45,0
107,113.27,117.34,0
105,113.11,117.22,0
106,112.97,117.11,0
107,112.85,117.01,0
107,112.73,116.91,0
105,112.57,116.79,0
105,112.42,116.67,0
105,112.27,116.55,0
105,112.13,116.44,0
105,111.99,116.32,0
105,111.85,116.21,0
106,111.73,116.11,0
105,111.60,116.00,0
105,111.46,115.89,0
104,111.31,115.77,0
105,111.19,115.66,0
104,111.04,115.54,0
105,110.92,115.44,0
104,110.78,115.32,0
104,110.65,115.21,0
104,110.52,115.10,0
103,110.37,114.98,0
103,110.22,114.86,0
103,110.07,114.74,0
102,109.91,114.61,0
103,109.77,114.49,0
102,109.62,114.37,0
103,109.49,114.26,0
103,109.36,114.14,0
102,109.21,114.02,0
103,109.09,113.91,0
101,108.92,113.78,0
101,108.77,113.65,0
101,108.61,113.53,0
101,108.46,113.40,0
101,108.31,113.28,0
101,108.16,113.16,0
101,108.02,113.03,0
100,107.86,112.90,0
101,107.72,112.79,0
101,107.59,112.67,0
101,107.46,112.55,0
101,107.33,112.44,0
101,107.20,112.32,0
101,107.08,112.21,0
100,106.93,112.09,0
100,106.80,111.96,0
100,106.66,111.84,0
99,106.51,111.72,0
100,106.38,111.60,0
99,106.23,111.47,0
100,106.10,111.36,0
99,105.96,111.24,0
99,105.82,111.11,0
95,105.61,110.95,0
98,105.45,110.82,0
98,105.31,110.69,0
99,105.18,110.58,0
98,105.04,110.45,0
98,104.89,110.33,0
98,104.76,110.20,0
98,104.62,110.08,0
98,104.49,109.96,0
98,104.36,109.84,0
97,104.21,109.71,0
98,104.09,109.60,0
98,103.97,109.48,0
98,103.85,109.36,0
98,103.73,109.25,0
97,103.60,109.13,0
98,103.48,109.02,0
97,103.35,108.90,0
97,103.23,108.78,0
97,103.10,108.66,0
96,102.96,108.53,0
95,102.80,108.40,0
96,102.67,108.27,0
96,102.53,108.15,0
96,102.40,108.03,0
95,102.25,107.90,0
96,102.13,107.78,0
96,102.01,107.66,0
96,101.89,107.55,0
96,101.77,107.43,0
94,101.61,107.30,0
95,101.48,107.17,0
95,101.35,107.05,0
95,101.22,106.93,0
95,101.10,106.81,0
95,100.98,106.69,0
95,100.86,106.58,0
95,100.74,106.46,0
94,100.61,106.34,0
95,100.49,106.22,0
94,100.36,106.10,0
94,100.24,105.98,0
94,100.11,105.86,0
94,99.99,105.74,0
94,99.87,105.62,0
94,99.75,105.51,0
94,99.64,105.39,0
93,99.50,105.27,0
94,99.39,105.16,0
93,99.27,105.03,0
93,99.14,104.91,0
93,99.02,104.80,0
93,98.90,104.68,0
93,98.78,104.56,0
94,98.68,104.45,0
93,98.57,104.34,0
91,98.42,104.21,0
93,98.31,104.09,0
92,98.18,103.97,0
93,98.08,103.86,0
93,97.98,103.76,0
93,97.88,103.65,0
93,97.78,103.54,0
93,97.69,103.44,0
92,97.57,103.32,0
93,97.48,103.22,0
92,97.37,103.11,0
93,97.28,103.01,0
92,97.18,102.90,0
93,97.10,102.80,0
91,96.97,102.68,0
92,96.87,102.57,0
92,96.78,102.47,0
91,96.66,102.35,0
92,96.57,102.25,0
92,96.48,102.15,0
90,96.35,102.02,0
91,96.24,101.91,0
91,96.13,101.80,0
91,96.03,101.70,0
91,95.93,101.59,0
91,95.83,101.48,0
90,95.72,101.37,0
91,95.62,101.26,0
90,95.51,101.15,0
90,95.40,101.04,0
89,95.27,100.92,0
89,95.15,100.80,0
90,95.04,100.69,0
89,94.92,100.58,0
89,94.80,100.46,0
89,94.69,100.35,0
89,94.57,100.23,0
91,94.50,100.14,0
88,94.37,100.02,0
89,94.26,99.91,0
89,94.16,99.80,0
90,94.08,99.70,0
88,93.95,99.58,0
88,93.84,99.47,0
88,93.72,99.35,0
90,93.64,99.26,0
85,93.47,99.12,0
88,93.36,99.01,0
88,93.26,98.90,0
88,93.15,98.79,0
88,93.05,98.68,0
88,92.95,98.57,0
87,92.83,98.46,0
87,92.71,98.34,0
87,92.60,98.23,0
88,92.50,98.13,0
89,92.43,98.04,0
87,92.33,97.93,0
87,92.22,97.82,0
86,92.09,97.70,0
86,91.97,97.58,0
87,91.87,97.48,0
88,91.80,97.38,0
86,91.68,97.27,0
87,91.59,97.16,0
85,91.45,97.04,0
86,91.35,96.93,0
86,91.24,96.82,0
87,91.15,96.72,0
86,91.05,96.62,0
86,90.95,96.51,0
86,90.85,96.41,0
85,90.73,96.29,0
85,90.62,96.18,0
86,90.53,96.08,0
86,90.44,95.98,0
86,90.35,95.88,0
85,90.24,95.77,0
86,90.16,95.67,0
86,90.07,95.57,0
84,89.95,95.46,0
85,89.85,95.35,0
84,89.74,95.24,0
86,89.66,95.15,0
85,89.57,95.05,0
85,89.48,94.95,0
84,89.37,94.84,0
84,89.26,94.73,0
85,89.17,94.63,0
86,89.11,94.54,0
85,89.03,94.45,0
84,88.93,94.34,0
85,88.85,94.25,0
84,88.75,94.15,0
84,88.66,94.05,0
84,88.56,93.95,0
84,88.47,93.85,0
83,88.36,93.74,0
82,88.24,93.62,0
84,88.15,93.52,0
84,88.07,93.43,0
83,87.97,93.32,0
83,87.87,93.22,0
84,87.79,93.13,0
83,87.69,93.03,0
82,87.58,92.92,0
82,87.47,92.81,0
83,87.38,92.71,0
83,87.29,92.61,0
84,87.23,92.53,0
81,87.10,92.41,0
82,87.00,92.31,0
82,86.90,92.20,0
81,86.78,92.09,0
82,86.69,91.99,0
81,86.57,91.88,0
82,86.48,91.78,0
82,86.39,91.69,0
82,86.30,91.59,0
81,86.20,91.48,0
82,86.11,91.39,0
81,86.01,91.28,0
80,85.89,91.17,0
80,85.77,91.06,0
79,85.64,90.94,0
81,85.54,90.84,0
82,85.47,90.75,0
80,85.36,90.64,0
81,85.28,90.55,0
80,85.17,90.44,0
81,85.09,90.35,0
80,84.99,90.24,0
81,84.91,90.15,0
80,84.81,90.05,0
80,84.71,89.95,0
80,84.62,89.85,0
80,84.53,89.75,0
80,84.44,89.65,0
80,84.35,89.56,0
79,84.24,89.45,0
80,84.15,89.36,0
79,84.05,89.25,0
79,83.95,89.15,0
78,83.83,89.04,0
78,83.72,88.93,0
79,83.62,88.83,0
79,83.53,88.73,0
78,83.42,88.62,0
78,83.31,88.52,0
79,83.22,88.42,0
78,83.12,88.32,0
78,83.02,88.22,0
79,82.94,88.12,0
81,82.90,88.05,0
78,82.80,87.95,0
78,82.70,87.85,0
77,82.59,87.74,0
78,82.50,87.65,0
78,82.41,87.55,0
78,82.32,87.45,0
79,82.25,87.37,0
81,82.23,87.31,0
78,82.14,87.21,0
76,82.02,87.10,0
78,81.94,87.01,0
78,81.86,86.92,0
78,81.78,86.83,0
76,81.67,86.72,0
78,81.60,86.63,0
77,81.50,86.54,0
78,81.43,86.45,0
76,81.32,86.35,0
77,81.24,86.26,0
77,81.15,86.16,0
78,81.09,86.08,0
77,81.01,85.99,0
77,80.93,85.90,0
75,80.81,85.79,0
78,80.75,85.71,0
76,80.66,85.62,0
77,80.59,85.53,0
76,80.49,85.43,0
76,80.40,85.34,0
76,80.32,85.25,0
77,80.25,85.16,0
78,80.20,85.09,0
76,80.12,85.00,0
76,80.04,84.91,0
76,79.96,84.82,0
76,79.88,84.73,0
76,79.80,84.65,0
76,79.72,84.56,0
76,79.65,84.48,0
78,79.62,84.41,0
76,79.54,84.33,0
75,79.45,84.23,0
75,79.36,84.14,0
74,79.26,84.04,0
75,79.17,83.95,0
75,79.09,83.86,0
75,79.01,83.77,0
75,78.93,83.68,0
76,78.87,83.61,0
74,78.77,83.51,0
75,78.70,83.43,0
73,78.58,83.32,0
74,78.49,83.23,0
74,78.40,83.14,0
74,78.31,83.04,0
75,78.25,82.96,0
75,78.18,82.88,0
73,78.08,82.79,0
74,78.00,82.70,0
73,77.90,82.60,0
73,77.80,82.50,0
73,77.70,82.41,0
74,77.63,82.33,0
74,77.56,82.24,0
73,77.46,82.15,0
72,77.36,82.05,0
73,77.27,81.96,0
73,77.18,81.87,0
72,77.08,81.77,0
72,76.98,81.67,0
73,76.90,81.58,0
73,76.82,81.50,0
72,76.72,81.40,0
72,76.63,81.31,0
72,76.54,81.22,0
73,76.47,81.13,0
72,76.38,81.04,0
72,76.29,80.95,0
71,76.18,80.85,0
72,76.10,80.76,0
72,76.02,80.68,0
70,75.90,80.57,0
71,75.80,80.47,0
72,75.72,80.39,0
71,75.63,80.30,0
73,75.58,80.22,0
70,75.46,80.12,0
71,75.38,80.03,0
70,75.27,79.93,0
70,75.16,79.83,0
71,75.08,79.74,0
72,75.02,79.66,0
70,74.92,79.57,0
70,74.82,79.47,0
72,74.76,79.40,0
70,74.67,79.30,0
70,74.57,79.21,0
70,74.48,79.12,0
71,74.41,79.04,0
71,74.34,78.96,0
70,74.26,78.87,0
71,74.19,78.79,0
71,74.13,78.71,0
70,74.05,78.62,0
70,73.97,78.54,0
70,73.89,78.45,0
70,73.81,78.37,0
70,73.73,78.28,0
71,73.68,78.21,0
70,73.60,78.13,0
70,73.53,78.05,0
70,73.46,77.97,0
70,73.39,77.89,0
70,73.32,77.81,0
70,73.26,77.73,0
69,73.17,77.64,0
70,73.11,77.57,0
69,73.03,77.48,0
69,72.95,77.40,0
69,72.87,77.31,0
69,72.79,77.23,0
68,72.69,77.14,0
73,72.70,77.10,0
69,72.63,77.01,0
70,72.57,76.94,0
69,72.50,76.86,0
69,72.43,76.79,0
70,72.38,76.72,0
68,72.30,76.63,0
68,72.21,76.54,0
68,72.13,76.46,0
70,72.08,76.39,0
68,72.00,76.31,0
68,71.92,76.23,0
68,71.84,76.15,0
70,71.81,76.08,0
68,71.73,76.00,0
68,71.66,75.92,0
66,71.54,75.82,0
68,71.47,75.75,0
68,71.40,75.67,0
68,71.33,75.59,0
68,71.27,75.52,0
68,71.20,75.44,0
68,71.14,75.37,0
68,71.08,75.29,0
67,70.99,75.21,0
68,70.93,75.14,0
68,70.88,75.07,0
67,70.80,74.99,0
68,70.74,74.92,0
68,70.69,74.85,0
67,70.61,74.77,0
66,70.52,74.68,0
68,70.47,74.61,0
68,70.42,74.55,0
67,70.35,74.47,0
66,70.27,74.39,0
66,70.18,74.30,0
67,70.12,74.23,0
66,70.03,74.15,0
66,69.95,74.07,0
68,69.91,74.01,0
66,69.84,73.93,0
66,69.76,73.85,0
66,69.68,73.77,0
67,69.63,73.70,0
66,69.56,73.62,0
66,69.49,73.55,0
66,69.42,73.47,0
66,69.35,73.40,0
66,69.28,73.32,0
66,69.22,73.25,0
66,69.15,73.18,0
67,69.11,73.12,0
66,69.05,73.04,0
66,68.99,72.97,0
66,68.93,72.90,0
66,68.87,72.84,0
66,68.81,72.77,0
66,68.75,72.70,0
66,68.70,72.63,0
65,68.62,72.56,0
66,68.57,72.49,0
66,68.52,72.43,0
66,68.47,72.36,0
65,68.40,72.29,0
64,68.31,72.20,0
65,68.25,72.13,0
66,68.20,72.07,0
65,68.14,72.00,0
66,68.10,71.94,0
65,68.03,71.87,0
65,67.97,71.80,0
66,67.93,71.74,0
66,67.89,71.69,0
65,67.84,71.62,0
64,67.76,71.54,0
64,67.68,71.47,0
66,67.65,71.41,0
64,67.58,71.34,0
66,67.55,71.29,0
65,67.50,71.22,0
65,67.45,71.16,0
66,67.42,71.11,0
64,67.35,71.04,0
65,67.30,70.98,0
65,67.26,70.92,0
64,67.19,70.85,0
64,67.13,70.78,0
64,67.06,70.71,0
64,67.00,70.65,0
65,66.96,70.59,0
64,66.90,70.52,0
64,66.85,70.46,0
64,66.79,70.39,0
64,66.73,70.33,0
64,66.68,70.27,0
64,66.62,70.20,0
67,66.63,70.17,0
64,66.58,70.11,0
64,66.53,70.05,0
64,66.48,69.99,0
64,66.43,69.93,0
64,66.38,69.87,0
63,66.31,69.80,0
64,66.27,69.74,0
64,66.22,69.68,0
64,66.18,69.63,0
64,66.13,69.57,0
63,66.07,69.51,0
64,66.03,69.45,0
63,65.97,69.39,0
62,65.89,69.31,0
63,65.83,69.25,0
64,65.79,69.20,0
63,65.74,69.14,0
66,65.74,69.10,0
64,65.71,69.05,0
65,65.69,69.01,0
64,65.66,68.96,0
64,65.63,68.91,0
63,65.57,68.85,0
64,65.54,68.80,0
62,65.47,68.74,0
62,65.40,68.67,0
63,65.35,68.61,0
63,65.31,68.56,0
62,65.24,68.49,0
62,65.18,68.43,0
63,65.13,68.37,0
64,65.11,68.33,0
62,65.05,68.26,0
64,65.03,68.22,0
63,64.99,68.17,0
62,64.93,68.11,0
62,64.87,68.05,0
62,64.81,67.99,0
64,64.79,67.95,0
62,64.74,67.89,0
62,64.68,67.83,0
62,64.63,67.77,0
63,64.60,67.72,0
62,64.55,67.67,0
64,64.53,67.63,0
62,64.48,67.57,0
64,64.47,67.54,0
62,64.43,67.48,0
62,64.38,67.43,0
62,64.33,67.37,0
63,64.30,67.33,0
62,64.26,67.28,0
62,64.21,67.22,0
62,64.17,67.17,0
62,64.12,67.12,0
62,64.08,67.07,0
61,64.02,67.01,0
62,63.98,66.96,0
62,63.94,66.91,0
64,63.94,66.88,0
61,63.88,66.82,0
61,63.82,66.76,0
62,63.79,66.71,0
61,63.73,66.66,0
64,63.74,66.63,0
62,63.70,66.58,0
62,63.67,66.54,0
61,63.62,66.48,0
62,63.58,66.44,0
61,63.53,66.38,0
61,63.48,66.33,0
61,63.43,66.28,0
61,63.38,66.22,0
62,63.35,66.18,0
63,63.35,66.15,0
61,63.30,66.10,0
64,63.31,66.08,0
61,63.27,66.03,0
60,63.20,65.97,0
62,63.18,65.93,0
61,63.14,65.88,0
61,63.09,65.83,0
62,63.07,65.79,0
61,63.03,65.74,0
60,62.97,65.68,0
60,62.91,65.63,0
60,62.85,65.57,0
62,62.83,65.54,0
60,62.78,65.48,0
61,62.74,65.44,0
61,62.71,65.39,0
61,62.67,65.35,0
62,62.66,65.31,0
60,62.61,65.26,0
61,62.57,65.22,0
60,62.52,65.17,0
60,62.47,65.11,0
60,62.42,65.06,0
60,62.37,65.01,0
60,62.33,64.96,0
60,62.28,64.91,0
59,62.21,64.85,0
60,62.17,64.80,0
60,62.13,64.76,0
60,62.08,64.71,0
58,62.00,64.64,0
60,61.96,64.60,0
59,61.90,64.54,0
64,61.95,64.53,0
58,61.87,64.47,0
60,61.83,64.42,0
60,61.79,64.38,0
60,61.76,64.34,0
60,61.72,64.29,0
60,61.69,64.25,0
61,61.67,64.22,0
60,61.64,64.18,0
60,61.61,64.13,0
60,61.58,64.09,0
60,61.54,64.05,0
59,61.49,64.00,0
60,61.46,63.96,0
61,61.45,63.93,0
60,61.42,63.89,0
60,61.40,63.85,0
60,61.37,63.81,0
59,61.32,63.77,0
59,61.27,63.72,0
60,61.25,63.68,0
61,61.24,63.65,0
59,61.20,63.61,0
60,61.18,63.57,0
60,61.15,63.54,0
60,61.13,63.50,0
59,61.09,63.46,0
62,61.10,63.44,0
60,61.08,63.41,0
60,61.06,63.37,0
60,61.04,63.34,0
60,61.02,63.31,0
63,61.06,63.30,0
59,61.02,63.26,0
59,60.98,63.22,0
61,60.98,63.19,0
61,60.98,63.17,0
60,60.96,63.14,0
60,60.94,63.11,0
62,60.96,63.10,0
60,60.94,63.07,0
60,60.92,63.04,0
59,60.88,63.00,0
59,60.85,62.96,0
60,60.83,62.93,0
60,60.81,62.90,0
61,60.82,62.88,0
60,60.80,62.85,0
60,60.78,62.82,0
60,60.77,62.79,0
59,60.73,62.76,0
60,60.72,62.73,0
60,60.70,62.70,0
60,60.69,62.67,0
58,60.64,62.63,0
59,60.60,62.59,0
59,60.57,62.55,0
58,60.52,62.51,0
59,60.49,62.47,0
59,60.46,62.44,0
60,60.45,62.41,0
59,60.42,62.38,0
58,60.37,62.34,0
60,60.37,62.31,0
60,60.36,62.29,0
58,60.31,62.25,0
60,60.30,62.23,0
59,60.28,62.19,0
60,60.27,62.17,0
58,60.23,62.13,0
59,60.20,62.10,0
60,60.20,62.08,0
59,60.18,62.05,0
58,60.13,62.01,0
59,60.11,61.98,0
59,60.09,61.95,0
58,60.05,61.91,0
58,60.00,61.87,0
58,59.96,61.83,0
60,59.96,61.81,0
58,59.93,61.77,0
60,59.93,61.75,0
59,59.91,61.73,0
58,59.87,61.69,0
58,59.83,61.65,0
58,59.80,61.62,0
58,59.76,61.58,0
58,59.73,61.54,0
58,59.69,61.51,0
60,59.70,61.49,0
58,59.66,61.46,0
58,59.63,61.42,0
58,59.60,61.39,0
58,59.57,61.36,0
58,59.53,61.32,0
58,59.50,61.29,0
59,59.49,61.27,0
58,59.46,61.23,0
59,59.45,61.21,0
58,59.42,61.18,0
60,59.44,61.17,0
58,59.41,61.14,0
58,59.38,61.10,0
58,59.35,61.07,0
57,59.30,61.03,0
58,59.28,61.00,0
57,59.23,60.96,0
58,59.21,60.93,0
57,59.16,60.89,0
58,59.14,60.86,0
57,59.10,60.83,0
58,59.08,60.80,0
58,59.05,60.77,0
56,58.99,60.72,0
57,58.95,60.68,0
57,58.91,60.65,0
58,58.90,60.62,0
56,58.84,60.58,0
57,58.80,60.54,0
57,58.77,60.50,0
57,58.73,60.47,0
57,58.70,60.43,0
57,58.66,60.40,0
57,58.63,60.37,0
57,58.60,60.33,0
56,58.54,60.29,0
57,58.51,60.26,0
58,58.50,60.23,0
56,58.45,60.19,0
56,58.40,60.15,0
56,58.36,60.11,0
56,58.31,60.07,0
56,58.26,60.03,0
56,58.22,59.99,0
56,58.17,59.95,0
57,58.15,59.92,0
56,58.11,59.88,0
56,58.06,59.84,0
56,58.02,59.80,0
56,57.98,59.76,0
56,57.94,59.72,0
57,57.92,59.70,0
57,57.91,59.67,0
58,57.91,59.65,0
57,57.89,59.63,0
56,57.85,59.59,0
57,57.83,59.56,0
60,57.88,59.57,0
58,57.88,59.55,0
56,57.84,59.52,0
57,57.83,59.49,0
58,57.83,59.48,0
57,57.81,59.45,0
58,57.82,59.44,0
57,57.80,59.41,0
55,57.74,59.37,0
57,57.73,59.35,0
56,57.69,59.31,0
57,57.68,59.29,0
57,57.67,59.27,0
56,57.63,59.23,0
56,57.60,59.20,0
57,57.59,59.18,0
56,57.56,59.15,0
56,57.53,59.12,0
58,57.54,59.11,0
58,57.54,59.09,0
57,57.53,59.07,0
56,57.50,59.04,0
58,57.51,59.03,0
57,57.50,59.01,0
57,57.49,58.99,0
58,57.50,58.98,0
56,57.47,58.95,0
57,57.46,58.93,0
58,57.47,58.92,0
56,57.44,58.89,0
57,57.44,58.88,0
58,57.45,58.87,0
57,57.44,58.85,0
56,57.41,58.82,0
57,57.40,58.80,0
58,57.41,58.79,0
56,57.39,58.77,0
57,57.38,58.75,0
57,57.37,58.73,0
57,57.36,58.71,0
60,57.42,58.73,0
57,57.41,58.71,0
57,57.40,58.69,0
57,57.39,58.67,0
56,57.36,58.65,0
57,57.36,58.63,0
57,57.35,58.61,0
58,57.36,58.61,0
56,57.33,58.58,0
56,57.31,58.56,0
57,57.30,58.54,0
57,57.30,58.53,0
58,57.31,58.52,0
56,57.28,58.50,0
56,57.26,58.47,0
57,57.25,58.46,0
58,57.27,58.45,0
56,57.24,58.43,0
57,57.24,58.41,0
58,57.25,58.41,0
59,57.29,58.41,0
56,57.26,58.39,0
56,57.24,58.37,0
58,57.25,58.36,0
58,57.27,58.36,0
56,57.24,58.34,0
57,57.24,58.32,0
57,57.23,58.31,0
57,57.23,58.30,0
56,57.20,58.27,0
56,57.18,58.25,0
56,57.16,58.23,0
57,57.15,58.22,0
56,57.13,58.19,0
56,57.11,58.17,0
56,57.08,58.15,0
56,57.06,58.13,0
56,57.04,58.11,0
56,57.02,58.09,0
58,57.04,58.08,0
56,57.02,58.06,0
56,57.00,58.04,0
56,56.98,58.02,0
57,56.98,58.01,0
56,56.96,57.99,0
56,56.94,57.97,0
56,56.92,57.95,0
55,56.88,57.92,0
55,56.85,57.89,0
56,56.83,57.88,0
55,56.79,57.85,0
56,56.78,57.83,0
55,56.74,57.80,0
54,56.69,57.76,0
55,56.65,57.73,0
56,56.64,57.72,0
55,56.61,57.69,0
56,56.59,57.67,0
56,56.58,57.66,0
55,56.55,57.63,0
55,56.52,57.60,0
56,56.51,57.59,0
56,56.50,57.57,0
55,56.47,57.55,0
55,56.44,57.52,0
54,56.39,57.48,0
56,56.38,57.47,0
55,56.36,57.45,0
54,56.31,57.41,0
57,56.32,57.41,0
54,56.28,57.37,0
55,56.25,57.35,0
55,56.23,57.33,0
54,56.18,57.29,0
56,56.18,57.28,0
55,56.15,57.26,0
55,56.13,57.23,0
56,56.13,57.22,0
55,56.11,57.20,0
56,56.10,57.19,0
55,56.08,57.17,0
55,56.06,57.14,0
54,56.02,57.11,0
55,56.00,57.09,0
58,56.04,57.10,0
55,56.02,57.08,0
55,56.00,57.06,0
55,55.98,57.04,0
56,55.98,57.03,0
56,55.98,57.02,0
56,55.98,57.01,0
55,55.96,56.99,0
57,55.98,56.99,0
57,56.00,56.99,0
56,56.00,56.98,0
56,56.00,56.97,0
57,56.02,56.97,0
56,56.02,56.96,0
56,56.02,56.95,0
58,56.06,56.96,0
57,56.08,56.96,0
56,56.08,56.95,0
56,56.07,56.94,0
57,56.09,56.94,0
57,56.11,56.94,0
57,56.13,56.94,0
56,56.13,56.93,0
57,56.14,56.93,0
57,56.16,56.93,0
56,56.16,56.92,0
56,56.15,56.92,0
56,56.15,56.91,0
57,56.17,56.91,0
57,56.19,56.91,0
58,56.22,56.92,0
58,56.26,56.93,0
57,56.27,56.93,0
58,56.31,56.94,0
58,56.34,56.95,0
58,56.37,56.96,0
59,56.43,56.98,0
58,56.46,56.99,0
58,56.49,57.00,0
59,56.54,57.02,0
60,56.61,57.05,0
59,56.66,57.07,0
63,56.78,57.13,0
62,56.89,57.18,0
61,56.97,57.22,0
60,57.03,57.25,0
60,57.09,57.27,0
61,57.17,57.31,0
62,57.26,57.36,0
62,57.36,57.40,0
62,57.45,57.45,0
62,57.54,57.50,0
62,57.63,57.54,0
62,57.72,57.59,0
64,57.84,57.65,0
64,57.97,57.71,0
64,58.09,57.78,0
64,58.21,57.84,0
64,58.32,57.90,0
64,58.44,57.96,0
64,58.55,58.02,0
63,58.64,58.07,0
64,58.74,58.13,0
65,58.87,58.20,0
66,59.01,58.28,0
65,59.13,58.34,0
66,59.27,58.42,0
65,59.38,58.49,0
66,59.52,58.56,0
66,59.65,58.64,0
66,59.77,58.71,0
66,59.90,58.78,0
66,60.02,58.85,0
66,60.14,58.93,0
66,60.26,59.00,0
66,60.37,59.07,0
66,60.48,59.14,0
68,60.63,59.23,0
70,60.82,59.33,0
68,60.96,59.42,0
71,61.17,59.54,0
68,61.30,59.62,0
70,61.48,59.72,0
71,61.67,59.84,0
71,61.85,59.95,0
70,62.02,60.05,0
70,62.18,60.15,0
71,62.35,60.26,0
71,62.53,60.36,0
72,62.71,60.48,0
71,62.88,60.59,0
71,63.04,60.69,0
71,63.20,60.79,0
70,63.34,60.88,0
70,63.47,60.98,0
70,63.60,61.07,0
71,63.75,61.17,0
70,63.87,61.25,0
70,64.00,61.34,0
70,64.12,61.43,0
71,64.25,61.52,0
70,64.37,61.61,0
70,64.48,61.69,0
70,64.59,61.78,0
71,64.72,61.87,0
70,64.83,61.95,0
72,64.97,62.05,0
71,65.09,62.14,0
72,65.23,62.24,0
72,65.36,62.34,0
72,65.50,62.43,0
72,65.63,62.53,0
73,65.77,62.63,0
74,65.94,62.75,0
74,66.10,62.86,0
76,66.30,62.99,0
75,66.47,63.11,0
74,66.62,63.22,0
74,66.77,63.33,0
78,66.99,63.47,0
76,67.17,63.60,0
76,67.35,63.72,0
74,67.48,63.83,0
76,67.65,63.95,0
77,67.84,64.08,0
78,68.04,64.22,0
78,68.24,64.35,0
78,68.44,64.49,0
78,68.63,64.63,0
78,68.82,64.76,0
79,69.02,64.90,0
79,69.22,65.04,0
79,69.42,65.18,0
79,69.61,65.32,0
80,69.82,65.47,0
81,70.04,65.62,0
80,70.24,65.77,0
82,70.47,65.93,0
82,70.70,66.09,0
82,70.93,66.25,0
82,71.15,66.41,0
81,71.35,66.55,0
82,71.56,66.71,0
81,71.75,66.85,0
82,71.96,67.00,0
82,72.16,67.15,0
81,72.33,67.29,0
83,72.55,67.45,0
83,72.76,67.60,0
84,72.98,67.77,0
84,73.20,67.93,0
85,73.44,68.10,0
86,73.69,68.28,0
86,73.93,68.46,0
86,74.18,68.63,0
87,74.43,68.82,0
88,74.70,69.01,0
87,74.95,69.19,0
87,75.19,69.37,0
88,75.45,69.55,0
89,75.72,69.75,0
89,75.98,69.94,0
90,76.26,70.14,0
89,76.52,70.33,0
88,76.75,70.50,0
90,77.01,70.70,0
90,77.27,70.89,0
90,77.53,71.08,0
90,77.78,71.27,0
91,78.04,71.47,0
90,78.28,71.66,0
93,78.58,71.87,0
93,78.86,72.08,0
92,79.13,72.28,0
93,79.40,72.49,0
94,79.70,72.70,0
95,80.00,72.92,0
95,80.30,73.15,0
95,80.60,73.36,0
95,80.88,73.58,0
97,81.21,73.81,0
96,81.50,74.04,0
96,81.79,74.26,0
97,82.10,74.48,0
97,82.39,74.71,0
97,82.69,74.93,0
98,82.99,75.16,0
100,83.33,75.41,0
101,83.69,75.67,0
100,84.01,75.91,0
101,84.35,76.16,0
103,84.73,76.43,0
103,85.09,76.69,0
103,85.45,76.96,0
103,85.80,77.22,0
102,86.12,77.47,0
103,86.46,77.72,0
105,86.83,77.99,0
105,87.20,78.26,0
105,87.55,78.53,0
105,87.90,78.80,0
105,88.24,79.06,0
107,88.62,79.34,0
107,88.99,79.61,0
109,89.39,79.91,0
107,89.74,80.18,0
107,90.08,80.45,0
109,90.46,80.73,0
111,90.87,81.04,0
108,91.21,81.31,0
108,91.55,81.57,0
108,91.88,81.84,0
108,92.20,82.10,0
109,92.54,82.37,0
109,92.87,82.63,0
109,93.19,82.90,0
109,93.51,83.16,0
110,93.84,83.43,0
110,94.16,83.69,0
110,94.48,83.96,0
110,94.79,84.22,0
111,95.11,84.48,0
109,95.39,84.73,0
111,95.70,84.99,0
111,96.01,85.25,0
111,96.31,85.51,0
111,96.60,85.76,0
111,96.89,86.02,0
111,97.17,86.27,0
112,97.47,86.52,0
113,97.78,86.79,0
113,98.08,87.05,0
112,98.36,87.30,0
112,98.63,87.55,0
112,98.90,87.79,0
111,99.14,88.02,0
113,99.42,88.27,0
113,99.69,88.52,0
112,99.94,88.76,0
113,100.20,89.00,0
111,100.42,89.22,0
112,100.65,89.45,0
112,100.87,89.67,0
112,101.10,89.89,0
112,101.31,90.12,0
112,101.53,90.33,0
113,101.76,90.56,0
112,101.96,90.78,0
111,102.14,90.98,0
110,102.30,91.17,0
111,102.47,91.37,0
112,102.66,91.57,0
112,102.85,91.78,0
112,103.03,91.98,0
112,103.21,92.18,0
112,103.39,92.38,0
112,103.56,92.57,0
112,103.73,92.77,0
111,103.88,92.95,0
113,104.06,93.15,0
112,104.22,93.34,0
112,104.37,93.53,0
112,104.53,93.71,0
112,104.67,93.89,0
112,104.82,94.07,0
112,104.96,94.25,0
112,105.11,94.43,0
112,105.24,94.61,0
113,105.40,94.79,0
112,105.53,94.96,0
112,105.66,95.13,0
112,105.79,95.30,0
112,105.91,95.47,0
112,106.03,95.63,0
111,106.13,95.79,0
112,106.25,95.95,0
111,106.34,96.10,0
111,106.44,96.25,0
112,106.55,96.41,0
112,106.66,96.56,0
111,106.74,96.71,0
111,106.83,96.85,0
111,106.91,96.99,0
110,106.98,97.12,0
111,107.06,97.26,0
110,107.11,97.39,0
113,107.23,97.54,0
110,107.29,97.67,0
111,107.36,97.80,0
110,107.41,97.92,0
112,107.51,98.06,0
110,107.56,98.18,0
110,107.61,98.30,0
110,107.65,98.42,0
109,107.68,98.53,0
109,107.71,98.63,0
109,107.73,98.73,0
110,107.78,98.85,0
110,107.82,98.96,0
110,107.87,99.07,0
111,107.93,99.19,0
110,107.97,99.30,0
109,107.99,99.39,0
108,107.99,99.48,0
109,108.01,99.57,0
108,108.01,99.66,0
109,108.03,99.75,0
108,108.03,99.83,0
109,108.05,99.93,0
108,108.05,100.01,0
108,108.05,100.09,0
107,108.03,100.16,0
108,108.03,100.23,0
109,108.05,100.32,0
108,108.04,100.40,0
108,108.04,100.47,0
108,108.04,100.55,0
108,108.04,100.62,0
107,108.02,100.69,0
108,108.02,100.76,0
107,108.00,100.82,0
108,108.00,100.90,0
107,107.98,100.96,0
107,107.96,101.02,0
107,107.94,101.08,0
107,107.92,101.14,0
107,107.90,101.19,0
108,107.91,101.26,0
107,107.89,101.32,0
107,107.87,101.38,0
107,107.85,101.43,0
108,107.86,101.50,0
106,107.82,101.54,0
106,107.78,101.59,0
105,107.73,101.62,0
106,107.69,101.67,0
106,107.66,101.71,0
106,107.62,101.75,0
106,107.59,101.79,0
103,107.50,101.81,0
105,107.45,101.84,0
105,107.40,101.87,0
105,107.35,101.90,0
105,107.31,101.93,0
105,107.26,101.96,0
105,107.22,101.99,0
104,107.15,102.01,0
104,107.09,102.03,0
104,107.03,102.05,0
104,106.97,102.07,0
104,106.91,102.09,0
103,106.83,102.10,0
103,106.75,102.11,0
103,106.68,102.12,0
103,106.60,102.13,0
103,106.53,102.14,0
103,106.46,102.15,0
104,106.41,102.16,0
103,106.34,102.17,0
103,106.28,102.18,0
103,106.21,102.19,0
102,106.13,102.19,0
102,106.04,102.18,0
103,105.98,102.19,0
102,105.90,102.19,0
103,105.85,102.20,0
101,105.75,102.19,0
101,105.65,102.18,0
102,105.58,102.17,0
101,105.49,102.16,0
101,105.40,102.15,0
101,105.31,102.14,0
101,105.22,102.13,0
101,105.14,102.12,0
101,105.06,102.10,0
101,104.98,102.09,0
101,104.90,102.08,0
101,104.82,102.07,0
103,104.78,102.08,0
100,104.69,102.06,0
100,104.59,102.04,0
99,104.48,102.01,0
99,104.37,101.98,0
98,104.24,101.94,0
99,104.14,101.91,0
98,104.02,101.87,0
98,103.90,101.83,0
98,103.78,101.79,0
98,103.66,101.76,0
98,103.55,101.72,0
98,103.44,101.68,0
100,103.37,101.66,0
98,103.26,101.63,0
98,103.16,101.59,0
98,103.05,101.56,0
97,102.93,101.51,0
98,102.83,101.48,0
97,102.72,101.43,0
98,102.62,101.40,0
98,102.53,101.36,0
98,102.44,101.33,0
97,102.33,101.29,0
97,102.22,101.24,0
97,102.12,101.20,0
97,102.02,101.16,0
97,101.92,101.12,0
96,101.80,101.07,0
96,101.68,101.01,0
96,101.57,100.96,0
96,101.46,100.91,0
96,101.35,100.87,0
98,101.28,100.84,0
96,101.18,100.79,0
97,101.09,100.75,0
96,100.99,100.70,0
95,100.87,100.65,0
96,100.77,100.60,0
95,100.66,100.54,0
95,100.54,100.49,0
95,100.43,100.43,0
95,100.33,100.38,0
95,100.22,100.33,0
96,100.13,100.28,0
96,100.05,100.24,0
94,99.93,100.18,0
96,99.85,100.14,0
96,99.78,100.09,0
96,99.70,100.05,0
95,99.61,100.00,0
94,99.49,99.94,0
94,99.38,99.88,0
94,99.28,99.82,0
94,99.17,99.77,0
95,99.09,99.72,0
94,98.99,99.66,0
94,98.89,99.60,0
94,98.79,99.55,0
93,98.67,99.48,0
95,98.60,99.44,0
94,98.51,99.38,0
94,98.42,99.33,0
93,98.31,99.27,0
93,98.20,99.20,0
92,98.08,99.13,0
92,97.96,99.06,0
93,97.86,99.00,0
93,97.76,98.94,0
93,97.67,98.88,0
94,97.59,98.83,0
93,97.50,98.77,0
92,97.39,98.71,0
92,97.28,98.64,0
92,97.18,98.57,0
92,97.07,98.51,0
94,97.01,98.46,0
92,96.91,98.40,0
92,96.81,98.33,0
91,96.70,98.26,0
92,96.60,98.20,0
92,96.51,98.13,0
92,96.42,98.07,0
91,96.31,98.00,0
93,96.25,97.95,0
90,96.12,97.87,0
90,96.00,97.79,0
91,95.90,97.73,0
94,95.86,97.69,0
92,95.78,97.63,0
91,95.69,97.57,0
91,95.59,97.50,0
90,95.48,97.43,0
90,95.37,97.35,0
90,95.27,97.28,0
91,95.18,97.21,0
94,95.16,97.18,0
90,95.05,97.11,0
90,94.95,97.04,0
90,94.85,96.97,0
91,94.78,96.91,0
90,94.68,96.84,0
90,94.59,96.77,0
89,94.48,96.69,0
87,94.33,96.60,0
90,94.24,96.53,0
90,94.15,96.47,0
89,94.05,96.39,0
90,93.97,96.33,0
89,93.87,96.25,0
88,93.75,96.17,0
89,93.66,96.10,0
88,93.55,96.02,0
88,93.43,95.94,0
89,93.35,95.87,0
89,93.26,95.80,0
88,93.15,95.72,0
88,93.05,95.65,0
88,92.95,95.57,0
88,92.85,95.49,0
88,92.75,95.42,0
88,92.66,95.34,0
88,92.57,95.27,0
87,92.45,95.19,0
88,92.36,95.12,0
87,92.26,95.04,0
86,92.13,94.94,0
86,92.01,94.86,0
87,91.91,94.78,0
86,91.79,94.69,0
86,91.68,94.60,0
88,91.60,94.54,0
87,91.51,94.46,0
87,91.42,94.39,0
88,91.35,94.32,0
87,91.26,94.25,0
86,91.16,94.17,0
86,91.06,94.08,0
86,90.95,94.00,0
86,90.86,93.92,0
86,90.76,93.84,0
86,90.66,93.77,0
86,90.57,93.69,0
86,90.48,93.61,0
86,90.39,93.54,0
86,90.30,93.46,0
86,90.22,93.39,0
87,90.15,93.32,0
87,90.09,93.26,0
87,90.03,93.20,0
86,89.95,93.12,0
86,89.87,93.05,0
86,89.79,92.98,0
86,89.71,92.91,0
85,89.62,92.83,0
86,89.55,92.77,0
88,89.52,92.72,0
87,89.47,92.66,0
86,89.40,92.59,0
86,89.33,92.53,0
85,89.24,92.45,0
86,89.18,92.39,0
86,89.11,92.32,0
85,89.03,92.25,0
85,88.95,92.18,0
86,88.89,92.12,0
84,88.79,92.04,0
85,88.72,91.97,0
85,88.64,91.90,0
86,88.59,91.84,0
84,88.50,91.76,0
85,88.43,91.69,0
85,88.36,91.62,0
85,88.29,91.56,0
84,88.21,91.48,0
84,88.12,91.41,0
84,88.04,91.33,0
84,87.96,91.26,0
84,87.88,91.19,0
84,87.80,91.12,0
84,87.73,91.04,0
84,87.65,90.97,0
83,87.56,90.89,0
83,87.47,90.81,0
83,87.38,90.74,0
82,87.27,90.65,0
84,87.21,90.58,0
84,87.14,90.52,0
85,87.10,90.46,0
83,87.02,90.39,0
82,86.92,90.30,0
82,86.82,90.22,0
82,86.72,90.14,0
82,86.63,90.06,0
82,86.53,89.98,0
82,86.44,89.90,0
83,86.38,89.83,0
82,86.29,89.75,0
82,86.20,89.67,0
81,86.10,89.58,0
82,86.02,89.51,0
82,85.94,89.43,0
82,85.86,89.36,0
82,85.78,89.29,0
82,85.70,89.21,0
82,85.63,89.14,0
82,85.56,89.07,0
81,85.47,88.99,0
81,85.38,88.91,0
80,85.27,88.82,0
80,85.16,88.73,0
86,85.18,88.70,0
82,85.12,88.64,0
80,85.01,88.55,0
82,84.95,88.49,0
82,84.90,88.42,0
82,84.84,88.36,0
82,84.78,88.29,0
82,84.73,88.23,0
79,84.61,88.14,0
82,84.56,88.08,0
82,84.51,88.02,0
81,84.44,87.95,0
81,84.37,87.88,0
81,84.30,87.81,0
81,84.24,87.74,0
80,84.15,87.66,0
81,84.09,87.60,0
80,84.01,87.52,0
80,83.93,87.44,0
80,83.85,87.37,0
81,83.79,87.31,0
80,83.71,87.23,0
80,83.64,87.16,0
80,83.57,87.09,0
79,83.48,87.01,0
80,83.41,86.94,0
79,83.32,86.86,0
80,83.25,86.79,0
80,83.19,86.72,0
80,83.12,86.65,0
80,83.06,86.59,0
79,82.98,86.51,0
80,82.92,86.45,0
79,82.84,86.37,0
79,82.76,86.30,0
79,82.69,86.23,0
79,82.62,86.15,0
79,82.54,86.08,0
78,82.45,86.00,0
78,82.36,85.92,0
78,82.28,85.84,0
77,82.17,85.75,0
79,82.11,85.69,0
78,82.02,85.61,0
78,81.94,85.53,0
77,81.85,85.45,0
78,81.77,85.37,0
77,81.67,85.29,0
78,81.60,85.22,0
77,81.51,85.13,0
78,81.44,85.06,0
78,81.37,84.99,0
78,81.30,84.92,0
78,81.24,84.85,0
78,81.17,84.79,0
78,81.11,84.72,0
78,81.05,84.65,0
78,80.98,84.58,0
78,80.92,84.52,0
78,80.87,84.45,0
78,80.81,84.39,0
78,80.75,84.32,0
78,80.70,84.26,0
78,80.64,84.20,0
78,80.59,84.14,0
77,80.52,84.06,0
77,80.45,83.99,0
78,80.40,83.93,0
77,80.33,83.86,0
77,80.26,83.80,0
77,80.20,83.73,0
76,80.12,83.65,0
77,80.05,83.58,0
77,79.99,83.52,0
76,79.91,83.44,0
76,79.83,83.37,0
78,79.80,83.32,0
78,79.76,83.26,0
77,79.71,83.20,0
76,79.63,83.13,0
76,79.56,83.06,0
76,79.49,82.99,0
76,79.42,82.92,0
76,79.35,82.85,0
76,79.28,82.78,0
76,79.22,82.71,0
76,79.15,82.64,0
76,79.09,82.58,0
76,79.03,82.51,0
75,78.95,82.44,0
76,78.89,82.37,0
76,78.83,82.31,0
76,78.77,82.24,0
75,78.70,82.17,0
76,78.64,82.11,0
76,78.59,82.05,0
75,78.52,81.98,0
74,78.43,81.90,0
75,78.36,81.83,0
78,78.35,81.79,0
75,78.29,81.72,0
75,78.22,81.66,0
74,78.14,81.58,0
76,78.09,81.52,0
75,78.03,81.46,0
74,77.95,81.38,0
74,77.87,81.31,0
74,77.80,81.24,0
74,77.72,81.17,0
74,77.64,81.09,0
74,77.57,81.02,0
74,77.50,80.95,0
74,77.43,80.88,0
76,77.40,80.83,0
74,77.33,80.77,0
74,77.27,80.70,0
73,77.18,80.62,0
74,77.12,80.56,0
74,77.06,80.49,0
74,76.99,80.42,0
73,76.91,80.35,0
73,76.84,80.28,0
73,76.76,80.20,0
74,76.70,80.14,0
75,76.67,80.09,0
74,76.62,80.03,0
74,76.56,79.97,0
74,76.51,79.91,0
73,76.44,79.84,0
73,76.37,79.77,0
74,76.33,79.71,0
71,76.22,79.63,0
74,76.18,79.57,0
73,76.11,79.51,0
72,76.03,79.43,0
72,75.95,79.36,0
73,75.89,79.29,0
73,75.83,79.23,0
73,75.78,79.17,0
72,75.70,79.10,0
73,75.65,79.03,0
73,75.59,78.97,0
72,75.52,78.90,0
72,75.45,78.84,0
71,75.36,78.76,0
74,75.34,78.71,0
72,75.27,78.64,0
72,75.20,78.58,0
72,75.14,78.51,0
72,75.08,78.45,0
71,74.99,78.37,0
71,74.91,78.30,0
70,74.82,78.21,0
74,74.80,78.17,0
71,74.72,78.10,0
70,74.63,78.02,0
70,74.54,77.94,0
71,74.47,77.87,0
71,74.40,77.80,0
70,74.31,77.72,0
71,74.24,77.66,0
70,74.16,77.58,0
70,74.07,77.50,0
70,73.99,77.43,0
70,73.91,77.35,0
70,73.84,77.28,0
70,73.76,77.21,0
70,73.68,77.14,0
70,73.61,77.06,0
70,73.54,76.99,0
70,73.47,76.92,0
70,73.40,76.85,0
70,73.33,76.79,0
70,73.26,76.72,0
70,73.20,76.65,0
70,73.13,76.58,0
70,73.07,76.52,0
70,73.01,76.45,0
70,72.95,76.39,0
70,72.89,76.32,0
70,72.83,76.26,0
70,72.78,76.20,0
70,72.72,76.14,0
70,72.67,76.08,0
70,72.61,76.01,0
70,72.56,75.95,0
70,72.51,75.90,0
70,72.46,75.84,0
70,72.41,75.78,0
70,72.36,75.72,0
70,72.31,75.66,0
69,72.25,75.60,0
70,72.20,75.54,0
70,72.16,75.48,0
70,72.12,75.43,0
70,72.07,75.38,0
70,72.03,75.32,0
68,71.95,75.25,0
69,71.89,75.19,0
69,71.83,75.12,0
69,71.78,75.06,0
69,71.72,75.00,0
70,71.69,74.95,0
68,71.61,74.88,0
68,71.54,74.81,0
68,71.47,74.75,0
68,71.40,74.68,0
68,71.33,74.61,0
68,71.27,74.55,0
68,71.20,74.48,0
68,71.14,74.42,0
68,71.07,74.35,0
66,70.97,74.27,0
68,70.91,74.21,0
66,70.82,74.12,0
67,70.74,74.05,0
68,70.68,73.99,0
68,70.63,73.93,0
68,70.58,73.87,0
66,70.49,73.79,0
68,70.44,73.74,0
68,70.39,73.68,0
68,70.34,73.62,0
66,70.25,73.55,0
67,70.19,73.48,0
67,70.12,73.41,0
66,70.04,73.34,0
66,69.96,73.27,0
68,69.92,73.21,0
67,69.86,73.15,0
66,69.79,73.08,0
66,69.71,73.01,0
65,69.62,72.93,0
66,69.54,72.86,0
66,69.47,72.79,0
66,69.40,72.72,0
66,69.34,72.66,0
66,69.27,72.59,0
63,69.14,72.49,0
66,69.08,72.43,0
66,69.02,72.37,0
66,68.96,72.30,0
66,68.90,72.24,0
68,68.88,72.20,0
66,68.82,72.13,0
66,68.77,72.07,0
65,68.69,72.00,0
66,68.64,71.94,0
65,68.57,71.87,0
65,68.49,71.80,0
66,68.44,71.75,0
66,68.40,71.69,0
65,68.33,71.62,0
66,68.28,71.57,0
64,68.20,71.49,0
64,68.11,71.41,0
65,68.05,71.35,0
66,68.01,71.30,0
66,67.97,71.24,0
66,67.93,71.19,0
63,67.83,71.11,0
65,67.77,71.05,0
64,67.70,70.98,0
64,67.62,70.91,0
64,67.55,70.84,0
64,67.48,70.77,0
65,67.43,70.71,0
64,67.36,70.65,0
65,67.32,70.59,0
67,67.31,70.55,0
64,67.24,70.49,0
64,67.18,70.42,0
64,67.11,70.36,0
64,67.05,70.30,0
64,66.99,70.23,0
64,66.93,70.17,0
64,66.87,70.11,0
64,66.82,70.05,0
64,66.76,69.99,0
63,66.68,69.92,0
63,66.61,69.85,0
63,66.54,69.78,0
64,66.49,69.72,0
63,66.42,69.65,0
64,66.37,69.60,0
63,66.30,69.53,0
64,66.26,69.48,0
62,66.17,69.40,0
63,66.11,69.34,0
63,66.04,69.27,0
63,65.98,69.21,0
62,65.90,69.14,0
63,65.85,69.08,0
62,65.77,69.01,0
62,65.69,68.94,0
62,65.62,68.87,0
63,65.57,68.81,0
62,65.50,68.74,0
62,65.43,68.67,0
62,65.36,68.61,0
63,65.31,68.55,0
61,65.22,68.48,0
62,65.16,68.41,0
62,65.10,68.35,0
64,65.07,68.30,0
62,65.01,68.24,0
62,64.95,68.18,0
62,64.89,68.12,0
61,64.82,68.04,0
62,64.76,67.98,0
62,64.70,67.92,0
60,64.61,67.85,0
61,64.54,67.78,0
63,64.51,67.73,0
60,64.42,67.65,0
60,64.33,67.58,0
61,64.26,67.51,0
62,64.22,67.45,0
60,64.13,67.38,0
60,64.05,67.31,0
62,64.01,67.25,0
61,63.95,67.19,0
60,63.87,67.12,0
62,63.83,67.07,0
61,63.78,67.01,0
60,63.70,66.94,0
60,63.63,66.87,0
60,63.55,66.80,0
62,63.52,66.75,0
60,63.45,66.68,0
60,63.38,66.62,0
60,63.32,66.55,0
61,63.27,66.49,0
60,63.20,66.43,0
60,63.14,66.37,0
60,63.08,66.30,0
59,63.00,66.23,0
60,62.94,66.17,0
60,62.88,66.10,0
61,62.84,66.05,0
59,62.76,65.98,0
59,62.69,65.91,0
60,62.63,65.85,0
60,62.58,65.80,0
60,62.53,65.74,0
60,62.48,65.68,0
58,62.39,65.60,0
59,62.32,65.54,0
60,62.27,65.48,0
62,62.27,65.45,0
60,62.22,65.39,0
58,62.14,65.32,0
59,62.08,65.26,0
60,62.04,65.20,0
60,61.99,65.15,0
59,61.93,65.09,0
59,61.88,65.03,0
58,61.80,64.96,0
60,61.76,64.91,0
58,61.69,64.84,0
59,61.63,64.78,0
59,61.58,64.72,0
58,61.51,64.66,0
58,61.44,64.59,0
58,61.37,64.52,0
61,61.36,64.49,0
58,61.30,64.42,0
58,61.23,64.36,0
59,61.19,64.31,0
55,61.06,64.21,0
57,60.98,64.14,0
58,60.92,64.08,0
60,60.90,64.04,0
58,60.84,63.98,0
58,60.79,63.92,0
58,60.73,63.86,0
59,60.70,63.81,0
58,60.64,63.75,0
58,60.59,63.69,0
58,60.54,63.64,0
59,60.51,63.59,0
57,60.44,63.53,0
58,60.39,63.47,0
58,60.34,63.42,0
59,60.31,63.37,0
57,60.25,63.31,0
58,60.20,63.25,0
57,60.14,63.19,0
57,60.08,63.13,0
57,60.01,63.07,0
57,59.95,63.01,0
56,59.88,62.94,0
57,59.82,62.88,0
57,59.76,62.82,0
56,59.69,62.75,0
56,59.61,62.68,0
58,59.58,62.64,0
56,59.51,62.57,0
56,59.44,62.51,0
57,59.39,62.45,0
58,59.36,62.41,0
56,59.29,62.34,0
56,59.23,62.28,0
56,59.16,62.22,0
57,59.12,62.16,0
56,59.06,62.10,0
56,59.00,62.04,0
56,58.94,61.98,0
56,58.88,61.92,0
56,58.82,61.86,0
56,58.76,61.80,0
56,58.71,61.74,0
56,58.66,61.69,0
56,58.60,61.63,0
54,58.51,61.55,0
56,58.46,61.50,0
56,58.41,61.44,0
55,58.34,61.38,0
55,58.28,61.32,0
55,58.21,61.25,0
56,58.17,61.20,0
55,58.10,61.14,0
56,58.06,61.09,0
56,58.02,61.04,0
55,57.96,60.98,0
55,57.90,60.92,0
56,57.86,60.87,0
55,57.80,60.81,0
55,57.75,60.75,0
56,57.71,60.70,0
54,57.64,60.63,0
54,57.57,60.57,0
55,57.51,60.51,0
56,57.48,60.47,0
54,57.41,60.40,0
54,57.35,60.34,0
55,57.30,60.29,0
57,57.29,60.25,0
55,57.25,60.20,0
54,57.18,60.14,0
55,57.14,60.09,0
56,57.12,60.05,0
54,57.05,59.99,0
54,56.99,59.93,0
53,56.91,59.86,0
53,56.83,59.79,0
54,56.78,59.73,0
54,56.72,59.67,0
54,56.67,59.62,0
53,56.59,59.55,0
54,56.54,59.49,0
53,56.47,59.43,0
54,56.42,59.38,0
55,56.39,59.33,0
54,56.35,59.28,0
54,56.30,59.23,0
54,56.25,59.17,0
54,56.21,59.12,0
54,56.16,59.07,0
54,56.12,59.02,0
53,56.06,58.96,0
53,56.00,58.90,0
54,55.96,58.85,0
52,55.88,58.78,0
52,55.80,58.71,0
53,55.74,58.66,0
53,55.69,58.60,0
53,55.64,58.54,0
56,55.64,58.52,0
53,55.59,58.46,0
54,55.56,58.42,0
53,55.51,58.37,0
52,55.44,58.30,0
54,55.41,58.26,0
52,55.34,58.20,0
52,55.27,58.13,0
53,55.23,58.08,0
52,55.16,58.02,0
52,55.10,57.96,0
52,55.04,57.90,0
52,54.98,57.84,0
52,54.92,57.78,0
52,54.86,57.73,0
53,54.82,57.68,0
51,54.75,57.61,0
53,54.71,57.57,0
52,54.66,57.51,0
52,54.60,57.46,0
53,54.57,57.41,0
52,54.52,57.36,0
52,54.47,57.30,0
52,54.42,57.25,0
52,54.37,57.20,0
51,54.30,57.14,0
52,54.26,57.08,0
52,54.21,57.03,0
51,54.15,56.97,0
52,54.11,56.92,0
52,54.06,56.87,0
52,54.02,56.83,0
51,53.96,56.77,0
52,53.92,56.72,0
52,53.88,56.67,0
52,53.85,56.63,0
51,53.79,56.57,0
51,53.73,56.51,0
52,53.70,56.47,0
52,53.67,56.42,0
52,53.63,56.38,0
50,53.56,56.32,0
52,53.53,56.27,0
51,53.48,56.22,0
52,53.45,56.18,0
51,53.40,56.13,0
50,53.33,56.06,0
51,53.28,56.01,0
51,53.24,55.96,0
52,53.21,55.92,0
52,53.19,55.89,0
52,53.17,55.85,0
51,53.12,55.80,0
52,53.10,55.76,0
50,53.04,55.70,0
51,53.00,55.66,0
51,52.96,55.61,0
51,52.92,55.56,0
50,52.86,55.51,0
50,52.80,55.45,0
50,52.75,55.40,0
52,52.73,55.36,0
50,52.68,55.31,0
50,52.62,55.26,0
50,52.57,55.20,0
51,52.54,55.16,0
50,52.49,55.11,0
50,52.44,55.06,0
50,52.39,55.01,0
50,52.34,54.96,0
50,52.30,54.91,0
50,52.25,54.86,0
51,52.22,54.82,0
50,52.18,54.77,0
50,52.14,54.73,0
50,52.09,54.68,0
50,52.05,54.63,0
50,52.01,54.59,0
50,51.97,54.54,0
50,51.93,54.49,0
49,51.87,54.44,0
50,51.84,54.39,0
50,51.80,54.35,0
50,51.76,54.31,0
49,51.71,54.25,0
49,51.65,54.20,0
50,51.62,54.16,0
50,51.59,54.12,0
47,51.50,54.05,0
49,51.45,54.00,0
49,51.40,53.95,0
50,51.37,53.91,0
47,51.28,53.84,0
49,51.24,53.79,0
50,51.21,53.75,0
49,51.17,53.70,0
49,51.12,53.66,0
49,51.08,53.61,0
48,51.02,53.55,0
48,50.96,53.50,0
49,50.92,53.45,0
50,50.90,53.42,0
49,50.86,53.38,0
48,50.81,53.32,0
49,50.77,53.28,0
48,50.72,53.23,0
48,50.66,53.17,0
48,50.61,53.12,0
48,50.56,53.07,0
48,50.50,53.02,0
48,50.45,52.97,0
48,50.41,52.92,0
48,50.36,52.87,0
49,50.33,52.83,0
49,50.30,52.79,0
52,50.34,52.79,0
49,50.31,52.75,0
48,50.26,52.70,0
48,50.22,52.65,0
49,50.19,52.62,0
48,50.15,52.57,0
48,50.11,52.52,0
48,50.07,52.48,0
47,50.00,52.42,0
49,49.98,52.39,0
49,49.96,52.36,0
48,49.93,52.31,0
48,49.89,52.27,0
49,49.87,52.24,0
48,49.83,52.19,0
48,49.79,52.15,0
47,49.74,52.10,0
47,49.68,52.05,0
48,49.65,52.01,0
48,49.62,51.97,0
47,49.57,51.92,0
49,49.55,51.89,0
48,49.52,51.85,0
48,49.49,51.81,0
48,49.46,51.78,0
47,49.41,51.73,0
49,49.40,51.70,0
50,49.42,51.68,0
48,49.39,51.65,0
49,49.38,51.62,0
48,49.35,51.58,0
48,49.33,51.55,0
48,49.30,51.51,0
49,49.29,51.49,0
48,49.27,51.45,0
48,49.24,51.42,0
48,49.22,51.38,0
47,49.17,51.34,0
48,49.15,51.31,0
48,49.13,51.27,0
46,49.06,51.22,0
47,49.02,51.18,0
48,49.00,51.15,0
46,48.94,51.10,0
48,48.92,51.06,0
48,48.91,51.03,0
48,48.89,51.00,0
48,48.87,50.97,0
46,48.81,50.92,0
48,48.80,50.89,0
49,48.80,50.88,0
48,48.78,50.85,0
46,48.73,50.80,0
47,48.69,50.76,0
48,48.68,50.73,0
48,48.67,50.71,0
46,48.61,50.66,0
47,48.58,50.62,0
48,48.57,50.60,0
48,48.56,50.57,0
46,48.51,50.52,0
48,48.50,50.50,0
48,48.49,50.47,0
48,48.48,50.45,0
46,48.43,50.40,0
47,48.40,50.37,0
48,48.39,50.35,0
48,48.38,50.32,0
46,48.34,50.28,0
47,48.31,50.25,0
48,48.30,50.22,0
48,48.30,50.20,0
47,48.27,50.17,0
47,48.24,50.14,0
47,48.22,50.11,0
47,48.20,50.08,0
47,48.17,50.05,0
48,48.17,50.02,0
48,48.16,50.00,0
48,48.16,49.98,0
48,48.16,49.96,0
48,48.16,49.95,0
48,48.15,49.93,0
48,48.15,49.91,0
47,48.13,49.88,0
47,48.10,49.85,0
48,48.10,49.83,0
48,48.10,49.81,0
48,48.10,49.79,0
48,48.10,49.78,0
49,48.11,49.77,0
48,48.11,49.75,0
47,48.09,49.72,0
47,48.07,49.70,0
49,48.09,49.69,0
48,48.08,49.67,0
48,48.08,49.66,0
48,48.08,49.64,0
48,48.08,49.62,0
48,48.08,49.61,0
47,48.06,49.58,0
47,48.03,49.55,0
48,48.03,49.54,0
48,48.03,49.52,0
47,48.01,49.50,0
49,48.03,49.49,0
49,48.05,49.49,0
47,48.03,49.46,0
47,48.01,49.44,0
46,47.97,49.40,0
47,47.95,49.38,0
47,47.93,49.36,0
47,47.91,49.33,0
47,47.89,49.31,0
47,47.88,49.29,0
50,47.92,49.29,0
46,47.88,49.26,0
46,47.84,49.23,0
47,47.83,49.21,0
46,47.79,49.17,0
46,47.75,49.14,0
47,47.74,49.12,0
47,47.72,49.10,0
50,47.77,49.11,0
46,47.73,49.08,0
45,47.68,49.04,0
47,47.67,49.02,0
49,47.69,49.02,0
46,47.66,48.99,0
47,47.65,48.97,0
47,47.63,48.95,0
44,47.56,48.90,0
46,47.53,48.87,0
47,47.52,48.85,0
47,47.51,48.83,0
46,47.48,48.80,0
46,47.45,48.77,0
47,47.44,48.76,0
47,47.43,48.74,0
43,47.34,48.68,0
46,47.32,48.65,0
47,47.31,48.64,0
47,47.30,48.62,0
46,47.28,48.60,0
46,47.25,48.57,0
47,47.25,48.55,0
46,47.22,48.53,0
48,47.24,48.52,0
46,47.21,48.50,0
47,47.21,48.48,0
46,47.18,48.46,0
46,47.16,48.43,0
46,47.14,48.41,0
48,47.15,48.41,0
48,47.17,48.40,0
47,47.17,48.39,0
47,47.16,48.37,0
47,47.16,48.36,0
47,47.16,48.35,0
47,47.15,48.33,0
47,47.15,48.32,0
48,47.17,48.32,0
48,47.18,48.31,0
48,47.20,48.31,0
48,47.22,48.31,0
47,47.21,48.29,0
49,47.25,48.30,0
50,47.30,48.32,0
48,47.32,48.31,0
49,47.35,48.32,0
48,47.36,48.32,0
50,47.42,48.33,0
48,47.43,48.33,0
49,47.46,48.34,0
49,47.49,48.34,0
50,47.54,48.36,0
49,47.57,48.37,0
49,47.60,48.37,0
49,47.63,48.38,0
49,47.65,48.39,0
48,47.66,48.38,0
49,47.69,48.39,0
48,47.69,48.38,0
49,47.72,48.39,0
49,47.75,48.40,0
49,47.77,48.40,0
52,47.86,48.44,0
48,47.86,48.43,0
48,47.86,48.43,0
48,47.86,48.43,0
49,47.89,48.43,0
48,47.89,48.43,0
48,47.89,48.42,0
49,47.91,48.43,0
49,47.94,48.43,0
49,47.96,48.44,0
48,47.96,48.44,0
48,47.96,48.43,0
48,47.96,48.43,0
48,47.96,48.42,0
48,47.96,48.42,0
48,47.96,48.41,0
48,47.96,48.41,0
48,47.96,48.41,0
48,47.96,48.40,0
48,47.96,48.40,0
48,47.97,48.39,0
48,47.97,48.39,0
48,47.97,48.39,0
49,47.99,48.39,0
48,47.99,48.39,0
48,47.99,48.38,0
49,48.01,48.39,0
48,48.01,48.39,0
49,48.03,48.39,0
48,48.03,48.39,0
48,48.03,48.39,0
49,48.05,48.39,0
49,48.07,48.40,0
48,48.06,48.39,0
47,48.04,48.38,0
48,48.04,48.38,0
48,48.04,48.37,0
48,48.04,48.37,0
47,48.02,48.35,0
48,48.02,48.35,0
48,48.02,48.35,0
48,48.02,48.34,0
47,48.00,48.33,0
48,48.00,48.33,0
48,48.00,48.32,0
48,48.00,48.32,0
47,47.98,48.31,0
47,47.96,48.29,0
48,47.96,48.29,0
49,47.98,48.30,0
47,47.96,48.29,0
48,47.96,48.28,0
50,48.00,48.30,0
49,48.02,48.31,0
48,48.02,48.30,0
47,48.00,48.29,0
48,48.00,48.29,0
48,48.00,48.29,0
47,47.98,48.27,0
48,47.98,48.27,0
47,47.96,48.26,0
49,47.98,48.26,0
47,47.96,48.25,0
49,47.98,48.26,0
48,47.98,48.26,0
48,47.98,48.25,0
48,47.98,48.25,0
48,47.98,48.25,0
48,47.99,48.25,0
48,47.99,48.24,0
47,47.97,48.23,0
47,47.95,48.22,0
49,47.97,48.23,0
48,47.97,48.22,0
47,47.95,48.21,0
48,47.95,48.21,0
48,47.95,48.21,0
48,47.95,48.21,0
48,47.95,48.20,0
48,47.95,48.20,0
48,47.95,48.20,0
48,47.96,48.20,0
50,48.00,48.22,0
49,48.02,48.22,0
48,48.02,48.22,0
48,48.02,48.22,0
48,48.02,48.22,0
49,48.04,48.23,0
49,48.05,48.23,0
48,48.05,48.23,0
48,48.05,48.23,0
49,48.07,48.24,0
49,48.09,48.24,0
48,48.09,48.24,0
48,48.09,48.24,0
49,48.10,48.25,0
51,48.16,48.27,0
49,48.18,48.28,0
48,48.18,48.28,0
49,48.19,48.29,0
49,48.21,48.29,0
51,48.26,48.32,0
48,48.26,48.32,0
50,48.29,48.33,0
49,48.31,48.34,0
48,48.30,48.34,0
49,48.32,48.34,0
49,48.33,48.35,0
49,48.34,48.36,0
48,48.34,48.35,0
48,48.33,48.35,0
49,48.34,48.36,0
49,48.36,48.36,0
49,48.37,48.37,0
48,48.36,48.36,0
49,48.37,48.37,0
49,48.39,48.38,0
50,48.42,48.39,0
49,48.43,48.40,0
50,48.46,48.42,0
51,48.51,48.44,0
49,48.52,48.45,0
50,48.55,48.46,0
47,48.52,48.45,0
50,48.55,48.46,0
50,48.58,48.48,0
50,48.61,48.49,0
50,48.64,48.51,0
50,48.66,48.52,0
50,48.69,48.54,0
50,48.72,48.55,0
51,48.76,48.58,0
50,48.79,48.59,0
52,48.85,48.63,0
49,48.85,48.63,0
51,48.90,48.65,0
54,49.00,48.71,0
51,49.04,48.73,0
52,49.10,48.76,0
51,49.14,48.79,0
52,49.19,48.82,0
51,49.23,48.84,0
52,49.28,48.87,0
51,49.32,48.89,0
54,49.41,48.94,0
52,49.46,48.97,0
51,49.50,48.99,0
53,49.57,49.03,0
53,49.63,49.07,0
52,49.68,49.10,0
52,49.73,49.13,0
52,49.77,49.16,0
52,49.82,49.19,0
52,49.86,49.22,0
52,49.90,49.25,0
52,49.95,49.27,0
52,49.99,49.30,0
53,50.05,49.34,0
52,50.09,49.36,0
54,50.16,49.41,0
55,50.26,49.47,0
52,50.30,49.49,0
52,50.33,49.52,0
53,50.38,49.55,0
53,50.44,49.59,0
54,50.51,49.63,0
54,50.58,49.67,0
51,50.59,49.69,0
54,50.65,49.73,0
54,50.72,49.77,0
54,50.79,49.81,0
55,50.87,49.87,0
55,50.95,49.92,0
55,51.03,49.97,0
55,51.11,50.02,0
55,51.19,50.07,0
55,51.27,50.12,0
54,51.32,50.16,0
56,51.42,50.22,0
56,51.51,50.27,0
56,51.60,50.33,0
56,51.69,50.39,0
56,51.77,50.44,0
54,51.82,50.48,0
58,51.94,50.55,0
58,52.06,50.63,0
58,52.18,50.70,0
59,52.32,50.79,0
59,52.45,50.87,0
58,52.56,50.94,0
60,52.71,51.03,0
59,52.84,51.11,0
59,52.96,51.19,0
58,53.06,51.26,0
58,53.16,51.32,0
61,53.32,51.42,0
61,53.47,51.52,0
62,53.64,51.62,0
61,53.79,51.71,0
61,53.93,51.81,0
64,54.13,51.93,0
62,54.29,52.03,0
64,54.48,52.15,0
63,54.65,52.26,0
63,54.82,52.37,0
63,54.98,52.47,0
62,55.13,52.57,0
64,55.30,52.68,0
62,55.44,52.78,0
65,55.63,52.90,0
62,55.76,52.99,0
63,55.90,53.09,0
63,56.04,53.19,0
61,56.14,53.27,0
63,56.28,53.36,0
64,56.43,53.47,0
62,56.54,53.55,0
62,56.65,53.64,0
62,56.76,53.72,0
63,56.89,53.82,0
63,57.01,53.91,0
64,57.15,54.01,0
64,57.28,54.11,0
66,57.46,54.23,0
67,57.65,54.35,0
67,57.84,54.48,0
66,58.00,54.60,0
67,58.18,54.72,0
66,58.34,54.83,0
68,58.53,54.96,0
69,58.74,55.11,0
70,58.96,55.25,0
69,59.16,55.39,0
69,59.36,55.53,0
70,59.57,55.67,0
70,59.78,55.82,0
70,59.99,55.96,0
72,60.23,56.12,0
73,60.48,56.29,0
74,60.75,56.46,0
77,61.08,56.67,0
75,61.36,56.85,0
76,61.65,57.04,0
76,61.94,57.23,0
80,62.30,57.46,0
79,62.63,57.68,0
79,62.96,57.89,0
79,63.28,58.10,0
79,63.59,58.31,0
80,63.92,58.53,0
80,64.24,58.74,0
79,64.54,58.94,0
80,64.85,59.15,0
80,65.15,59.36,0
80,65.45,59.57,0
82,65.78,59.79,0
82,66.10,60.02,0
81,66.40,60.23,0
82,66.71,60.44,0
85,67.08,60.69,0
83,67.40,60.91,0
84,67.73,61.14,0
83,68.04,61.36,0
84,68.35,61.59,0
83,68.65,61.80,0
83,68.93,62.01,0
84,69.24,62.23,0
84,69.53,62.45,0
84,69.82,62.67,0
84,70.10,62.88,0
85,70.40,63.10,0
84,70.67,63.31,0
85,70.96,63.53,0
84,71.22,63.73,0
84,71.48,63.94,0
87,71.79,64.17,0
86,72.07,64.38,0
86,72.35,64.60,0
86,72.62,64.81,0
88,72.93,65.05,0
88,73.23,65.28,0
90,73.57,65.52,0
94,73.98,65.81,0
90,74.30,66.05,0
90,74.61,66.29,0
92,74.96,66.55,0
92,75.30,66.80,0
92,75.63,67.05,0
92,75.96,67.30,0
93,76.30,67.56,0
96,76.70,67.84,0
95,77.06,68.12,0
94,77.40,68.37,0
95,77.75,68.64,0
94,78.08,68.89,0
95,78.42,69.15,0
96,78.77,69.42,0
96,79.11,69.69,0
96,79.45,69.95,0
95,79.76,70.20,0
96,80.09,70.46,0
96,80.40,70.72,0
95,80.70,70.96,0
96,81.00,71.21,0
97,81.32,71.47,0
98,81.66,71.73,0
97,81.96,71.99,0
97,82.26,72.24,0
97,82.56,72.48,0
97,82.85,72.73,0
97,83.13,72.97,0
97,83.41,73.21,0
97,83.68,73.45,0
98,83.97,73.69,0
98,84.25,73.94,0
98,84.52,74.18,0
98,84.79,74.42,0
98,85.05,74.65,0
98,85.31,74.89,0
97,85.55,75.11,0
101,85.86,75.37,0
99,86.12,75.60,0
97,86.34,75.82,0
99,86.59,76.05,0
100,86.86,76.29,0
100,87.12,76.52,0
99,87.36,76.75,0
101,87.63,76.99,0
101,87.90,77.23,0
101,88.16,77.47,0
101,88.42,77.71,0
101,88.67,77.94,0
101,88.92,78.17,0
101,89.16,78.40,0
102,89.41,78.63,0
103,89.69,78.88,0
105,89.99,79.14,0
105,90.29,79.40,0
105,90.59,79.65,0
108,90.94,79.94,0
108,91.28,80.22,0
107,91.59,80.48,0
106,91.88,80.74,0
106,92.16,80.99,0
105,92.42,81.23,0
109,92.75,81.51,0
107,93.03,81.76,0
109,93.35,82.04,0
111,93.71,82.33,0
110,94.03,82.60,0
110,94.35,82.88,0
111,94.69,83.16,0
111,95.01,83.44,0
112,95.35,83.72,0
113,95.70,84.02,0
112,96.03,84.30,0
112,96.35,84.57,0
113,96.68,84.86,0
112,96.99,85.13,0
112,97.29,85.40,0
111,97.56,85.65,0
112,97.85,85.92,0
113,98.16,86.19,0
113,98.45,86.46,0
113,98.74,86.72,0
113,99.03,86.98,0
113,99.31,87.24,0
112,99.56,87.49,0
113,99.83,87.75,0
113,100.09,88.00,0
113,100.35,88.25,0
113,100.60,88.50,0
113,100.85,88.74,0
113,101.10,88.98,0
113,101.33,89.22,0
112,101.55,89.45,0
113,101.78,89.69,0
112,101.98,89.91,0
112,102.18,90.13,0
112,102.38,90.35,0
113,102.59,90.58,0
111,102.76,90.78,0
113,102.96,91.00,0
111,103.12,91.20,0
112,103.30,91.41,0
111,103.46,91.61,0
111,103.61,91.80,0
110,103.73,91.98,0
111,103.88,92.17,0
111,104.02,92.36,0
111,104.16,92.55,0
110,104.28,92.72,0
111,104.41,92.91,0
110,104.52,93.08,0
111,104.65,93.26,0
110,104.76,93.42,0
112,104.91,93.61,0
112,105.05,93.79,0
111,105.17,93.96,0
111,105.28,94.13,0
111,105.40,94.30,0
111,105.51,94.47,0
111,105.62,94.64,0
110,105.71,94.79,0
111,105.81,94.95,0
110,105.90,95.10,0
111,106.00,95.26,0
111,106.10,95.42,0
110,106.18,95.56,0
110,106.25,95.71,0
109,106.31,95.84,0
110,106.38,95.98,0
110,106.45,96.12,0
110,106.53,96.26,0
110,106.59,96.40,0
110,106.66,96.54,0
113,106.79,96.70,0
110,106.85,96.83,0
110,106.92,96.96,0
110,106.98,97.09,0
109,107.02,97.21,0
109,107.06,97.33,0
109,107.10,97.45,0
108,107.12,97.55,0
109,107.15,97.67,0
109,107.19,97.78,0
108,107.21,97.88,0
109,107.24,98.00,0
107,107.24,98.09,0
109,107.27,98.19,0
109,107.31,98.30,0
109,107.34,98.41,0
109,107.37,98.52,0
108,107.39,98.61,0
107,107.38,98.69,0
106,107.35,98.77,0
107,107.34,98.85,0
106,107.32,98.92,0
108,107.33,99.01,0
106,107.30,99.08,0
106,107.28,99.15,0
106,107.25,99.22,0
107,107.25,99.30,0
106,107.22,99.36,0
106,107.20,99.43,0
106,107.17,99.50,0
106,107.15,99.56,0
106,107.13,99.63,0
106,107.11,99.69,0
106,107.08,99.75,0
106,107.06,99.81,0
104,107.00,99.86,0
107,107.00,99.93,0
106,106.98,99.99,0
106,106.96,100.05,0
105,106.92,100.10,0
104,106.86,100.14,0
105,106.83,100.19,0
105,106.79,100.23,0
104,106.73,100.27,0
104,106.68,100.31,0
104,106.63,100.35,0
105,106.59,100.39,0
104,106.54,100.43,0
104,106.49,100.46,0
105,106.46,100.51,0
103,106.39,100.53,0
102,106.30,100.55,0
103,106.24,100.57,0
103,106.17,100.60,0
103,106.11,100.62,0
103,106.05,100.65,0
103,105.99,100.67,0
103,105.93,100.69,0
103,105.87,100.72,0
103,105.81,100.74,0
103,105.75,100.76,0
102,105.68,100.77,0
102,105.61,100.79,0
103,105.55,100.81,0
103,105.50,100.83,0
102,105.43,100.84,0
103,105.38,100.86,0
101,105.30,100.86,0
101,105.21,100.87,0
101,105.13,100.87,0
101,105.04,100.87,0
101,104.96,100.87,0
103,104.92,100.89,0
101,104.84,100.89,0
101,104.77,100.89,0
101,104.69,100.89,0
101,104.62,100.90,0
100,104.53,100.89,0
100,104.44,100.88,0
99,104.33,100.86,0
100,104.24,100.85,0
100,104.16,100.84,0
100,104.07,100.83,0
100,103.99,100.83,0
99,103.89,100.81,0
99,103.79,100.79,0
99,103.70,100.77,0
98,103.58,100.74,0
98,103.47,100.72,0
98,103.36,100.69,0
98,103.26,100.66,0
98,103.15,100.64,0
98,103.05,100.61,0
96,102.91,100.56,0
96,102.77,100.52,0
98,102.67,100.49,0
97,102.56,100.46,0
97,102.45,100.42,0
97,102.34,100.39,0
96,102.21,100.34,0
97,102.11,100.31,0
96,101.99,100.27,0
98,101.91,100.25,0
97,101.81,100.21,0
96,101.69,100.17,0
96,101.58,100.13,0
97,101.49,100.10,0
96,101.38,100.06,0
96,101.27,100.02,0
96,101.16,99.98,0
96,101.06,99.94,0
96,100.96,99.90,0
97,100.88,99.87,0
96,100.78,99.83,0
97,100.71,99.80,0
97,100.63,99.77,0
96,100.54,99.74,0
95,100.43,99.69,0
96,100.34,99.65,0
96,100.25,99.61,0
97,100.19,99.59,0
97,100.13,99.56,0
98,100.08,99.55,0
96,100.00,99.51,0
95,99.90,99.47,0
95,99.80,99.42,0
95,99.71,99.38,0
96,99.63,99.34,0
94,99.52,99.29,0
95,99.43,99.25,0
94,99.32,99.19,0
94,99.21,99.14,0
94,99.11,99.09,0
94,99.01,99.04,0
94,98.91,98.99,0
93,98.79,98.93,0
94,98.69,98.88,0
97,98.66,98.86,0
93,98.55,98.80,0
93,98.44,98.75,0
93,98.33,98.69,0
93,98.22,98.63,0
92,98.10,98.56,0
93,97.99,98.51,0
93,97.89,98.45,0
92,97.78,98.39,0
94,97.70,98.35,0
92,97.59,98.28,0
92,97.48,98.22,0
94,97.41,98.18,0
93,97.32,98.13,0
92,97.21,98.06,0
92,97.11,98.00,0
91,96.99,97.93,0
92,96.89,97.87,0
92,96.79,97.82,0
91,96.67,97.75,0
91,96.56,97.68,0
93,96.49,97.63,0
92,96.40,97.58,0
91,96.29,97.51,0
90,96.16,97.44,0
93,96.10,97.39,0
90,95.98,97.32,0
90,95.86,97.24,0
90,95.74,97.17,0
90,95.63,97.10,0
90,95.51,97.03,0
90,95.40,96.96,0
89,95.28,96.88,0
91,95.19,96.82,0
90,95.09,96.75,0
92,95.02,96.70,0
92,94.96,96.66,0
92,94.91,96.61,0
90,94.81,96.54,0
90,94.71,96.48,0
90,94.62,96.41,0
90,94.52,96.35,0
90,94.43,96.29,0
90,94.35,96.22,0
91,94.28,96.17,0
90,94.19,96.11,0
90,94.11,96.05,0
90,94.03,95.99,0
89,93.93,95.92,0
90,93.85,95.86,0
88,93.73,95.78,0
89,93.64,95.71,0
89,93.54,95.65,0
89,93.45,95.58,0
88,93.34,95.50,0
90,93.28,95.45,0
88,93.17,95.37,0
88,93.07,95.30,0
88,92.97,95.23,0
88,92.87,95.16,0
88,92.77,95.08,0
88,92.67,95.01,0
88,92.58,94.94,0
88,92.49,94.87,0
88,92.40,94.80,0
88,92.31,94.74,0
88,92.23,94.67,0
88,92.14,94.60,0
88,92.06,94.54,0
87,91.96,94.46,0
86,91.84,94.38,0
88,91.76,94.31,0
87,91.67,94.24,0
86,91.55,94.16,0
86,91.44,94.08,0
86,91.33,93.99,0
87,91.25,93.92,0
86,91.14,93.85,0
87,91.06,93.78,0
86,90.96,93.70,0
86,90.86,93.62,0
86,90.76,93.55,0
87,90.69,93.48,0
86,90.59,93.41,0
86,90.50,93.33,0
86,90.41,93.26,0
86,90.32,93.19,0
86,90.24,93.11,0
86,90.15,93.04,0
86,90.07,92.97,0
84,89.95,92.88,0
85,89.85,92.80,0
85,89.75,92.73,0
87,89.70,92.67,0
85,89.60,92.59,0
86,89.53,92.53,0
84,89.42,92.44,0
85,89.33,92.37,0
85,89.24,92.29,0
84,89.14,92.21,0
84,89.04,92.13,0
84,88.94,92.05,0
84,88.84,91.97,0
83,88.72,91.88,0
84,88.63,91.80,0
84,88.53,91.72,0
84,88.44,91.64,0
84,88.35,91.57,0
84,88.27,91.49,0
84,88.18,91.42,0
84,88.10,91.34,0
83,88.00,91.26,0
83,87.90,91.18,0
86,87.86,91.12,0
84,87.78,91.05,0
87,87.77,91.01,0
84,87.69,90.94,0
84,87.62,90.87,0
82,87.50,90.78,0
83,87.41,90.71,0
84,87.35,90.64,0
82,87.24,90.55,0
82,87.13,90.47,0
82,87.03,90.38,0
83,86.95,90.31,0
82,86.85,90.23,0
82,86.75,90.14,0
82,86.66,90.06,0
82,86.57,89.98,0
82,86.47,89.90,0
82,86.39,89.82,0
80,86.26,89.72,0
82,86.17,89.65,0
82,86.09,89.57,0
82,86.01,89.49,0
82,85.93,89.42,0
82,85.85,89.35,0
82,85.77,89.27,0
82,85.70,89.20,0
80,85.58,89.11,0
81,85.49,89.03,0
81,85.40,88.95,0
82,85.33,88.88,0
82,85.27,88.81,0
82,85.20,88.74,0
81,85.12,88.66,0
82,85.05,88.60,0
82,84.99,88.53,0
81,84.91,88.45,0
82,84.86,88.39,0
82,84.80,88.33,0
81,84.72,88.25,0
81,84.65,88.18,0
80,84.55,88.10,0
82,84.50,88.04,0
79,84.39,87.95,0
81,84.33,87.88,0
80,84.24,87.80,0
80,84.15,87.72,0
81,84.09,87.65,0
80,84.01,87.58,0
80,83.93,87.50,0
80,83.85,87.43,0
81,83.79,87.36,0
80,83.72,87.29,0
80,83.64,87.22,0
80,83.57,87.14,0
79,83.48,87.06,0
79,83.39,86.98,0
79,83.30,86.90,0
78,83.20,86.81,0
79,83.11,86.73,0
80,83.05,86.67,0
80,82.99,86.60,0
78,82.89,86.51,0
79,82.81,86.44,0
79,82.73,86.36,0
79,82.66,86.29,0
79,82.59,86.22,0
78,82.50,86.14,0
79,82.43,86.06,0
78,82.34,85.98,0
78,82.25,85.90,0
78,82.17,85.83,0
79,82.10,85.76,0
78,82.02,85.68,0
78,81.94,85.60,0
77,81.84,85.52,0
78,81.76,85.44,0
77,81.67,85.36,0
78,81.60,85.28,0
78,81.52,85.21,0
78,81.45,85.14,0
78,81.38,85.07,0
78,81.32,85.00,0
78,81.25,84.93,0
77,81.16,84.85,0
77,81.08,84.77,0
78,81.02,84.70,0
78,80.96,84.63,0
77,80.88,84.56,0
78,80.82,84.49,0
77,80.75,84.42,0
76,80.65,84.33,0
77,80.58,84.26,0
78,80.53,84.20,0
76,80.44,84.11,0
76,80.35,84.03,0
77,80.28,83.96,0
77,80.21,83.89,0
76,80.13,83.81,0
76,80.05,83.74,0
77,79.99,83.67,0
76,79.91,83.59,0
76,79.83,83.52,0
77,79.77,83.45,0
77,79.72,83.39,0
75,79.62,83.30,0
76,79.55,83.23,0
76,79.48,83.16,0
76,79.41,83.09,0
75,79.32,83.01,0
76,79.26,82.94,0
74,79.15,82.85,0
75,79.07,82.77,0
74,78.97,82.68,0
74,78.87,82.59,0
74,78.77,82.51,0
75,78.69,82.43,0
75,78.62,82.36,0
74,78.53,82.27,0
74,78.44,82.19,0
74,78.35,82.11,0
74,78.26,82.03,0
76,78.22,81.97,0
74,78.13,81.89,0
74,78.05,81.81,0
74,77.97,81.73,0
76,77.93,81.67,0
74,77.85,81.60,0
74,77.77,81.52,0
74,77.70,81.45,0
74,77.62,81.37,0
74,77.55,81.30,0
74,77.48,81.23,0
74,77.41,81.15,0
72,77.30,81.06,0
75,77.26,81.00,0
75,77.21,80.94,0
74,77.15,80.87,0
74,77.08,80.80,0
74,77.02,80.73,0
74,76.96,80.67,0
73,76.88,80.59,0
72,76.79,80.50,0
74,76.73,80.44,0
74,76.67,80.38,0
74,76.62,80.31,0
74,76.57,80.25,0
73,76.50,80.18,0
73,76.43,80.10,0
75,76.40,80.05,0
74,76.35,79.99,0
73,76.28,79.92,0
73,76.22,79.85,0
73,76.15,79.78,0
73,76.09,79.72,0
73,76.03,79.65,0
73,75.97,79.58,0
72,75.89,79.51,0
72,75.81,79.43,0
72,75.74,79.36,0
72,75.66,79.28,0
73,75.61,79.22,0
72,75.54,79.15,0
72,75.46,79.08,0
71,75.38,79.00,0
72,75.31,78.93,0
72,75.24,78.86,0
72,75.18,78.79,0
72,75.11,78.72,0
72,75.05,78.65,0
71,74.97,78.58,0
70,74.87,78.49,0
73,74.83,78.44,0
71,74.76,78.36,0
70,74.66,78.28,0
70,74.57,78.20,0
71,74.50,78.12,0
71,74.43,78.05,0
70,74.34,77.97,0
70,74.25,77.89,0
71,74.19,77.82,0
71,74.12,77.76,0
70,74.04,77.68,0
70,73.96,77.60,0
71,73.90,77.54,0
70,73.82,77.46,0
70,73.75,77.39,0
70,73.67,77.31,0
70,73.60,77.24,0
70,73.53,77.17,0
70,73.45,77.09,0
70,73.39,77.02,0
70,73.32,76.95,0
70,73.25,76.88,0
70,73.19,76.81,0
70,73.12,76.75,0
70,73.06,76.68,0
70,73.00,76.61,0
70,72.94,76.55,0
69,72.86,76.47,0
70,72.80,76.41,0
70,72.75,76.34,0
70,72.69,76.28,0
70,72.64,76.22,0
71,72.61,76.16,0
70,72.55,76.10,0
70,72.50,76.04,0
70,72.45,75.98,0
70,72.40,75.92,0
67,72.30,75.83,0
70,72.25,75.77,0
69,72.18,75.71,0
69,72.12,75.64,0
68,72.04,75.56,0
70,72.00,75.51,0
69,71.94,75.44,0
68,71.86,75.37,0
68,71.78,75.29,0
70,71.75,75.24,0
69,71.69,75.18,0
68,71.62,75.11,0
69,71.57,75.05,0
69,71.51,74.98,0
68,71.44,74.91,0
68,71.37,74.85,0
68,71.31,74.78,0
68,71.24,74.71,0
69,71.20,74.65,0
68,71.13,74.59,0
68,71.07,74.52,0
68,71.01,74.45,0
67,70.93,74.38,0
67,70.85,74.31,0
70,70.83,74.26,0
67,70.76,74.19,0
67,70.68,74.12,0
68,70.63,74.06,0
67,70.55,73.99,0
67,70.48,73.92,0
67,70.41,73.85,0
68,70.37,73.79,0
69,70.34,73.74,0
66,70.25,73.66,0
66,70.17,73.59,0
66,70.08,73.51,0
67,70.02,73.45,0
66,69.94,73.37,0
66,69.86,73.30,0
67,69.80,73.24,0
67,69.75,73.17,0
66,69.67,73.10,0
66,69.60,73.03,0
66,69.53,72.96,0
66,69.46,72.89,0
66,69.39,72.82,0
66,69.32,72.75,0
65,69.23,72.68,0
64,69.13,72.59,0
66,69.07,72.52,0
66,69.01,72.46,0
66,68.95,72.39,0
66,68.89,72.33,0
66,68.83,72.27,0
66,68.77,72.20,0
65,68.70,72.13,0
66,68.64,72.07,0
66,68.59,72.01,0
65,68.52,71.94,0
65,68.45,71.87,0
65,68.38,71.80,0
64,68.29,71.72,0
64,68.21,71.65,0
65,68.14,71.58,0
66,68.10,71.52,0
64,68.02,71.45,0
64,67.94,71.37,0
64,67.86,71.30,0
64,67.78,71.23,0
64,67.70,71.15,0
64,67.63,71.08,0
64,67.56,71.01,0
64,67.49,70.94,0
65,67.44,70.88,0
64,67.37,70.81,0
64,67.30,70.75,0
66,67.28,70.70,0
64,67.21,70.63,0
64,67.15,70.57,0
64,67.08,70.50,0
66,67.06,70.45,0
64,67.00,70.39,0
64,66.94,70.33,0
64,66.88,70.26,0
64,66.82,70.20,0
64,66.77,70.14,0
64,66.71,70.08,0
64,66.66,70.02,0
62,66.56,69.94,0
64,66.51,69.88,0
63,66.44,69.81,0
63,66.37,69.74,0
62,66.29,69.66,0
64,66.24,69.61,0
64,66.20,69.55,0
62,66.11,69.47,0
65,66.09,69.43,0
62,66.01,69.36,0
62,65.93,69.28,0
63,65.87,69.22,0
65,65.85,69.18,0
61,65.75,69.09,0
62,65.68,69.02,0
63,65.63,68.96,0
62,65.55,68.89,0
62,65.48,68.83,0
62,65.41,68.76,0
62,65.34,68.69,0
62,65.28,68.62,0
62,65.21,68.56,0
61,65.13,68.48,0
62,65.07,68.42,0
62,65.00,68.35,0
62,64.94,68.29,0
62,64.88,68.23,0
62,64.83,68.16,0
62,64.77,68.10,0
62,64.72,68.04,0
62,64.66,67.98,0
61,64.59,67.91,0
61,64.52,67.84,0
60,64.43,67.76,0
61,64.36,67.70,0
62,64.31,67.64,0
61,64.24,67.57,0
61,64.18,67.51,0
60,64.10,67.43,0
61,64.03,67.37,0
61,63.97,67.30,0
60,63.89,67.23,0
60,63.82,67.16,0
61,63.76,67.10,0
61,63.70,67.04,0
61,63.65,66.97,0
60,63.58,66.91,0
61,63.53,66.85,0
60,63.45,66.78,0
60,63.39,66.71,0
60,63.32,66.64,0
60,63.25,66.58,0
60,63.19,66.51,0
60,63.12,66.45,0
60,63.06,66.38,0
60,63.00,66.32,0
60,62.94,66.25,0
60,62.88,66.19,0
59,62.80,66.12,0
61,62.77,66.07,0
60,62.71,66.01,0
60,62.66,65.95,0
60,62.60,65.89,0
60,62.55,65.83,0
60,62.50,65.77,0
58,62.41,65.69,0
60,62.36,65.64,0
59,62.30,65.57,0
60,62.25,65.51,0
58,62.16,65.44,0
59,62.10,65.37,0
59,62.04,65.31,0
58,61.96,65.24,0
58,61.88,65.17,0
59,61.82,65.10,0
59,61.77,65.04,0
58,61.69,64.97,0
58,61.62,64.90,0
59,61.56,64.84,0
58,61.49,64.78,0
61,61.48,64.74,0
58,61.41,64.67,0
58,61.34,64.60,0
60,61.32,64.56,0
60,61.29,64.51,0
58,61.23,64.45,0
59,61.18,64.39,0
58,61.12,64.33,0
60,61.10,64.28,0
58,61.03,64.22,0
58,60.97,64.16,0
58,60.91,64.10,0
57,60.84,64.03,0
58,60.78,63.97,0
58,60.72,63.91,0
58,60.67,63.85,0
58,60.61,63.79,0
58,60.56,63.73,0
57,60.49,63.66,0
57,60.42,63.60,0
58,60.37,63.54,0
58,60.33,63.49,0
58,60.28,63.43,0
57,60.21,63.37,0
57,60.15,63.30,0
57,60.09,63.24,0
56,60.00,63.17,0
59,59.98,63.13,0
57,59.92,63.07,0
56,59.85,62.99,0
57,59.79,62.93,0
59,59.77,62.90,0
57,59.72,62.84,0
57,59.66,62.78,0
57,59.61,62.72,0
57,59.56,62.66,0
56,59.49,62.60,0
56,59.42,62.53,0
57,59.37,62.48,0
57,59.32,62.42,0
57,59.28,62.37,0
56,59.21,62.30,0
56,59.15,62.24,0
57,59.10,62.19,0
57,59.06,62.14,0
56,59.00,62.07,0
57,58.96,62.02,0
56,58.90,61.96,0
56,58.84,61.90,0
56,58.79,61.84,0
56,58.73,61.79,0
56,58.68,61.73,0
56,58.62,61.67,0
56,58.57,61.61,0
56,58.52,61.56,0
56,58.47,61.50,0
56,58.42,61.45,0
56,58.37,61.39,0
56,58.32,61.34,0
56,58.28,61.29,0
54,58.19,61.21,0
54,58.11,61.14,0
55,58.04,61.08,0
56,58.00,61.03,0
56,57.96,60.98,0
56,57.92,60.93,0
55,57.87,60.87,0
55,57.81,60.81,0
54,57.73,60.74,0
56,57.70,60.69,0
54,57.62,60.63,0
55,57.57,60.57,0
55,57.52,60.52,0
54,57.45,60.45,0
55,57.40,60.40,0
54,57.33,60.33,0
54,57.27,60.27,0
54,57.20,60.21,0
54,57.14,60.14,0
54,57.07,60.08,0
55,57.03,60.03,0
54,56.97,59.97,0
55,56.93,59.92,0
54,56.87,59.86,0
56,56.86,59.82,0
54,56.80,59.77,0
53,56.72,59.70,0
54,56.67,59.64,0
55,56.64,59.59,0
54,56.58,59.54,0
54,56.53,59.48,0
55,56.50,59.44,0
54,56.45,59.38,0
54,56.40,59.33,0
57,56.41,59.31,0
55,56.38,59.26,0
54,56.34,59.21,0
54,56.29,59.16,0
54,56.24,59.11,0
55,56.22,59.07,0
54,56.18,59.02,0
54,56.13,58.97,0
54,56.09,58.92,0
55,56.07,58.88,0
55,56.05,58.84,0
54,56.01,58.79,0
54,55.97,58.74,0
53,55.91,58.68,0
53,55.85,58.63,0
54,55.81,58.58,0
51,55.71,58.51,0
55,55.70,58.47,0
53,55.65,58.42,0
54,55.61,58.37,0
53,55.56,58.32,0
53,55.51,58.26,0
53,55.46,58.21,0
54,55.43,58.17,0
54,55.40,58.13,0
54,55.37,58.09,0
54,55.35,58.05,0
54,55.32,58.01,0
54,55.29,57.97,0
53,55.25,57.92,0
53,55.20,57.87,0
54,55.18,57.83,0
54,55.15,57.79,0
53,55.11,57.74,0
53,55.07,57.69,0
53,55.03,57.65,0
54,55.01,57.61,0
54,54.99,57.57,0
54,54.97,57.54,0
54,54.95,57.50,0
54,54.93,57.47,0
54,54.91,57.43,0
53,54.87,57.39,0
54,54.85,57.36,0
54,54.84,57.32,0
53,54.80,57.28,0
52,54.74,57.23,0
54,54.73,57.19,0
54,54.72,57.16,0
53,54.68,57.12,0
53,54.65,57.08,0
54,54.63,57.05,0
52,54.58,57.00,0
54,54.57,56.97,0
52,54.52,56.92,0
52,54.47,56.87,0
54,54.46,56.84,0
52,54.41,56.79,0
52,54.36,56.74,0
52,54.31,56.70,0
52,54.27,56.65,0
52,54.22,56.60,0
52,54.18,56.56,0
52,54.13,56.51,0
52,54.09,56.47,0
51,54.03,56.41,0
55,54.05,56.40,0
52,54.01,56.35,0
52,53.97,56.31,0
52,53.93,56.27,0
52,53.89,56.22,0
52,53.85,56.18,0
52,53.82,56.14,0
53,53.80,56.11,0
54,53.80,56.09,0
52,53.77,56.05,0
52,53.73,56.01,0
52,53.70,55.97,0
52,53.66,55.93,0
52,53.63,55.89,0
52,53.60,55.85,0
53,53.59,55.82,0
52,53.55,55.78,0
52,53.52,55.74,0
51,53.47,55.70,0
52,53.44,55.66,0
52,53.41,55.62,0
52,53.39,55.59,0
50,53.32,55.53,0
51,53.27,55.49,0
52,53.25,55.45,0
52,53.22,55.42,0
50,53.16,55.36,0
51,53.11,55.32,0
52,53.09,55.29,0
52,53.07,55.25,0
50,53.01,55.20,0
52,52.99,55.17,0
53,52.99,55.15,0
50,52.93,55.09,0
50,52.87,55.04,0
52,52.85,55.01,0
52,52.84,54.98,0
50,52.78,54.93,0
50,52.72,54.88,0
51,52.69,54.85,0
51,52.66,54.81,0
51,52.62,54.77,0
50,52.57,54.72,0
52,52.56,54.69,0
50,52.51,54.65,0
50,52.46,54.60,0
50,52.41,54.55,0
50,52.36,54.51,0
50,52.31,54.46,0
50,52.27,54.42,0
50,52.22,54.38,0
50,52.18,54.33,0
50,52.13,54.29,0
50,52.09,54.25,0
50,52.05,54.20,0
51,52.03,54.17,0
50,51.99,54.13,0
50,51.95,54.09,0
50,51.91,54.05,0
50,51.87,54.01,0
52,51.87,53.99,0
52,51.88,53.97,0
50,51.84,53.93,0
50,51.80,53.89,0
50,51.76,53.85,0
50,51.73,53.81,0
51,51.72,53.78,0
50,51.68,53.74,0
50,51.65,53.71,0
50,51.61,53.67,0
50,51.58,53.63,0
51,51.57,53.61,0
50,51.54,53.57,0
48,51.47,53.51,0
49,51.42,53.47,0
50,51.39,53.43,0
50,51.36,53.40,0
50,51.34,53.37,0
50,51.31,53.33,0
50,51.28,53.30,0
49,51.24,53.26,0
50,51.21,53.22,0
49,51.17,53.18,0
50,51.14,53.15,0
49,51.10,53.11,0
50,51.08,53.08,0
49,51.04,53.04,0
50,51.02,53.01,0
50,51.00,52.98,0
50,50.98,52.95,0
50,50.96,52.92,0
49,50.92,52.88,0
49,50.88,52.84,0
49,50.84,52.80,0
49,50.81,52.76,0
49,50.77,52.73,0
52,50.79,52.72,0
50,50.78,52.69,0
50,50.76,52.66,0
49,50.73,52.63,0
50,50.71,52.60,0
49,50.68,52.56,0
49,50.64,52.53,0
49,50.61,52.49,0
50,50.60,52.47,0
49,50.57,52.43,0
50,50.56,52.41,0
51,50.57,52.40,0
49,50.53,52.36,0
48,50.48,52.32,0
49,50.45,52.29,0
49,50.42,52.25,0
50,50.42,52.23,0
48,50.37,52.19,0
48,50.32,52.15,0
49,50.29,52.11,0
48,50.25,52.07,0
48,50.20,52.03,0
48,50.16,51.99,0
51,50.18,51.98,0
49,50.15,51.95,0
48,50.11,51.91,0
48,50.07,51.87,0
49,50.05,51.84,0
49,50.02,51.82,0
48,49.98,51.78,0
49,49.96,51.75,0
49,49.95,51.72,0
49,49.93,51.70,0
48,49.89,51.66,0
47,49.83,51.61,0
49,49.81,51.59,0
48,49.78,51.55,0
48,49.74,51.51,0
47,49.69,51.47,0
49,49.67,51.44,0
50,49.68,51.43,0
48,49.65,51.40,0
47,49.59,51.35,0
48,49.56,51.32,0
48,49.53,51.29,0
48,49.50,51.25,0
47,49.45,51.21,0
49,49.44,51.19,0
48,49.41,51.16,0
50,49.42,51.14,0
47,49.38,51.10,0
48,49.35,51.07,0
48,49.32,51.04,0
47,49.27,51.00,0
47,49.23,50.96,0
48,49.20,50.93,0
48,49.18,50.90,0
49,49.18,50.88,0
49,49.17,50.86,0
48,49.15,50.84,0
50,49.17,50.83,0
50,49.18,50.82,0
49,49.18,50.80,0
48,49.16,50.77,0
48,49.13,50.74,0
50,49.15,50.74,0
48,49.13,50.71,0
48,49.10,50.68,0
49,49.10,50.67,0
50,49.12,50.66,0
49,49.12,50.64,0
49,49.12,50.63,0
50,49.13,50.62,0
48,49.11,50.59,0
49,49.11,50.58,0
49,49.11,50.56,0
54,49.20,50.60,0
49,49.20,50.58,0
49,49.20,50.56,0
49,49.19,50.55,0
50,49.21,50.54,0
48,49.18,50.52,0
49,49.18,50.50,0
50,49.20,50.50,0
50,49.21,50.49,0
50,49.23,50.49,0
50,49.24,50.48,0
50,49.26,50.48,0
50,49.27,50.47,0
50,49.29,50.47,0
51,49.32,50.47,0
51,49.36,50.48,0
49,49.35,50.46,0
50,49.36,50.46,0
50,49.37,50.46,0
50,49.39,50.45,0
50,49.40,50.45,0
50,49.41,50.44,0
50,49.42,50.44,0
52,49.48,50.45,0
51,49.51,50.46,0
50,49.52,50.45,0
50,49.53,50.45,0
52,49.57,50.47,0
50,49.58,50.46,0
50,49.59,50.46,0
50,49.60,50.45,0
49,49.59,50.44,0
50,49.60,50.43,0
50,49.60,50.43,0
50,49.61,50.42,0
51,49.64,50.43,0
50,49.65,50.43,0
49,49.63,50.41,0
50,49.64,50.41,0
50,49.65,50.40,0
50,49.66,50.40,0
50,49.66,50.39,0
50,49.67,50.39,0
50,49.68,50.39,0
50,49.68,50.38,0
50,49.69,50.38,0
50,49.69,50.38,0
50,49.70,50.37,0
50,49.71,50.37,0
50,49.71,50.36,0
50,49.72,50.36,0
50,49.72,50.36,0
50,49.73,50.35,0
50,49.74,50.35,0
49,49.72,50.34,0
50,49.73,50.33,0
50,49.73,50.33,0
51,49.76,50.34,0
51,49.78,50.34,0
51,49.81,50.35,0
50,49.81,50.35,0
50,49.81,50.34,0
50,49.82,50.34,0
50,49.82,50.34,0
50,49.82,50.33,0
50,49.83,50.33,0
51,49.85,50.34,0
52,49.89,50.35,0
51,49.92,50.36,0
50,49.92,50.36,0
51,49.94,50.36,0
51,49.96,50.37,0
52,50.00,50.38,0
50,50.00,50.38,0
51,50.02,50.39,0
51,50.04,50.39,0
52,50.08,50.41,0
50,50.08,50.41,0
50,50.08,50.40,0
50,50.08,50.40,0
52,50.11,50.41,0
50,50.11,50.41,0
51,50.13,50.41,0
52,50.17,50.43,0
52,50.20,50.45,0
52,50.24,50.46,0
51,50.26,50.47,0
51,50.27,50.47,0
52,50.30,50.49,0
52,50.34,50.50,0
52,50.37,50.52,0
52,50.40,50.53,0
52,50.44,50.55,0
52,50.47,50.56,0
52,50.50,50.58,0
53,50.55,50.60,0
53,50.60,50.62,0
52,50.63,50.64,0
52,50.65,50.65,0
51,50.66,50.66,0
52,50.69,50.67,0
52,50.71,50.68,0
53,50.76,50.71,0
52,50.78,50.72,0
53,50.83,50.74,0
52,50.85,50.75,0
52,50.87,50.77,0
54,50.94,50.80,0
52,50.96,50.81,0
52,50.98,50.82,0
52,51.00,50.83,0
52,51.02,50.85,0
52,51.04,50.86,0
52,51.06,50.87,0
54,51.12,50.90,0
55,51.19,50.94,0
51,51.19,50.94,0
52,51.21,50.95,0
53,51.24,50.97,0
54,51.30,51.00,0
54,51.35,51.03,0
52,51.36,51.04,0
54,51.42,51.07,0
54,51.47,51.10,0
53,51.50,51.12,0
54,51.55,51.15,0
54,51.60,51.18,0
54,51.65,51.21,0
54,51.69,51.23,0
54,51.74,51.26,0
54,51.79,51.29,0
51,51.77,51.29,0
54,51.81,51.31,0
54,51.86,51.34,0
54,51.90,51.37,0
54,51.94,51.39,0
54,51.98,51.42,0
54,52.02,51.44,0
54,52.06,51.47,0
54,52.10,51.50,0
56,52.18,51.54,0
53,52.20,51.56,0
53,52.21,51.57,0
54,52.25,51.59,0
57,52.34,51.65,0
54,52.38,51.67,0
53,52.39,51.69,0
53,52.40,51.70,0
53,52.41,51.71,0
54,52.45,51.73,0
54,52.48,51.76,0
55,52.53,51.79,0
54,52.56,51.81,0
54,52.59,51.83,0
55,52.63,51.86,0
55,52.68,51.90,0
55,52.73,51.93,0
56,52.79,51.97,0
56,52.86,52.01,0
56,52.92,52.05,0
55,52.96,52.08,0
56,53.02,52.12,0
56,53.08,52.16,0
55,53.12,52.18,0
56,53.18,52.22,0
56,53.23,52.26,0
58,53.33,52.32,0
57,53.40,52.36,0
59,53.51,52.43,0
56,53.56,52.47,0
56,53.61,52.50,0
57,53.68,52.55,0
58,53.77,52.60,0
57,53.83,52.65,0
58,53.92,52.70,0
59,54.02,52.76,0
57,54.08,52.80,0
58,54.15,52.86,0
58,54.23,52.91,0
60,54.35,52.98,0
59,54.44,53.04,0
58,54.51,53.09,0
59,54.60,53.15,0
60,54.71,53.22,0
59,54.80,53.27,0
59,54.88,53.33,0
60,54.98,53.40,0
61,55.10,53.47,0
61,55.22,53.55,0
62,55.36,53.63,0
61,55.47,53.71,0
62,55.60,53.79,0
62,55.73,53.87,0
62,55.85,53.95,0
62,55.98,54.03,0
64,56.14,54.13,0
64,56.29,54.23,0
66,56.49,54.35,0
66,56.68,54.47,0
66,56.86,54.58,0
66,57.05,54.70,0
67,57.25,54.82,0
68,57.46,54.95,0
69,57.69,55.09,0
68,57.90,55.22,0
68,58.10,55.35,0
69,58.32,55.48,0
69,58.53,55.62,0
68,58.72,55.74,0
69,58.93,55.88,0
68,59.11,56.00,0
69,59.31,56.13,0
70,59.52,56.27,0
69,59.71,56.39,0
70,59.92,56.53,0
70,60.12,56.66,0
70,60.31,56.80,0
70,60.51,56.93,0
70,60.70,57.06,0
70,60.88,57.19,0
71,61.09,57.33,0
72,61.30,57.47,0
74,61.56,57.64,0
72,61.77,57.78,0
74,62.01,57.95,0
72,62.21,58.09,0
73,62.43,58.24,0
72,62.62,58.37,0
