Teste de posicionamento 2(EMG ao centro do bíceps (Vermelho A, Verde B) + Ref no cotovelo) - 16/09/2024 - teste4 - 5 contrações
long frequencia = 1000;                 //frequência de aquisição do sinal, neste caso, 1000 sinais por segundo
float fator1 = 0.02, fator2 = 0.01;
float incerteza = 0.13;
float pico_basal = 130; // Mínimo para ser considerado um pico de contração
int filtro_horizontal=200000; //intervalo de 200ms valores não pode ter mais de 1 contração

Biceps_D,mediaMovel_1,mediaMovel_2,Contracao
38,0.76,0.38,0
37,1.48,0.75,0
39,2.24,1.13,0
38,2.95,1.50,0
37,3.63,1.85,0
37,4.30,2.20,0
41,5.03,2.59,0
38,5.69,2.95,0
41,6.40,3.33,0
38,7.03,3.67,0
38,7.65,4.02,0
38,8.26,4.36,0
39,8.87,4.70,0
38,9.45,5.04,0
38,10.03,5.37,0
38,10.58,5.69,0
38,11.13,6.01,0
39,11.69,6.34,0
38,12.22,6.66,0
39,12.75,6.98,0
39,13.28,7.30,0
38,13.77,7.61,0
38,14.26,7.92,0
38,14.73,8.22,0
39,15.22,8.52,0
39,15.69,8.83,0
38,16.14,9.12,0
38,16.58,9.41,0
39,17.02,9.71,0
38,17.44,9.99,0
39,17.87,10.28,0
38,18.28,10.56,0
38,18.67,10.83,0
37,19.04,11.09,0
38,19.42,11.36,0
38,19.79,11.63,0
38,20.15,11.89,0
37,20.49,12.14,0
38,20.84,12.40,0
38,21.18,12.66,0
38,21.52,12.91,0
39,21.87,13.17,0
38,22.19,13.42,0
38,22.51,13.67,0
38,22.82,13.91,0
37,23.10,14.14,0
40,23.44,14.40,0
38,23.73,14.63,0
37,24.00,14.86,0
37,24.26,15.08,0
39,24.55,15.32,0
38,24.82,15.55,0
38,25.08,15.77,0
38,25.34,15.99,0
38,25.60,16.21,0
37,25.82,16.42,0
38,26.07,16.64,0
37,26.29,16.84,0
37,26.50,17.04,0
37,26.71,17.24,0
38,26.94,17.45,0
38,27.16,17.65,0
38,27.37,17.86,0
38,27.59,18.06,0
37,27.77,18.25,0
37,27.96,18.44,0
38,28.16,18.63,0
38,28.36,18.82,0
37,28.53,19.01,0
36,28.68,19.18,0
36,28.83,19.34,0
38,29.01,19.53,0
37,29.17,19.71,0
39,29.37,19.90,0
37,29.52,20.07,0
38,29.69,20.25,0
37,29.83,20.42,0
38,30.00,20.59,0
37,30.14,20.76,0
37,30.27,20.92,0
37,30.41,21.08,0
37,30.54,21.24,0
37,30.67,21.40,0
38,30.82,21.56,0
37,30.94,21.72,0
37,31.06,21.87,0
35,31.14,22.00,0
37,31.26,22.15,0
38,31.39,22.31,0
37,31.50,22.46,0
37,31.61,22.60,0
37,31.72,22.75,0
38,31.85,22.90,0
38,31.97,23.05,0
38,32.09,23.20,0
37,32.19,23.34,0
38,32.31,23.48,0
37,32.40,23.62,0
39,32.53,23.77,0
37,32.62,23.91,0
36,32.69,24.03,0
37,32.77,24.16,0
36,32.84,24.27,0
36,32.90,24.39,0
36,32.96,24.51,0
37,33.05,24.63,0
37,33.12,24.76,0
36,33.18,24.87,0
38,33.28,25.00,0
37,33.35,25.12,0
38,33.45,25.25,0
37,33.52,25.37,0
36,33.57,25.47,0
37,33.63,25.59,0
37,33.70,25.70,0
36,33.75,25.80,0
36,33.79,25.91,0
37,33.86,26.02,0
40,33.98,26.16,0
36,34.02,26.26,0
36,34.06,26.35,0
36,34.10,26.45,0
36,34.14,26.55,0
36,34.17,26.64,0
36,34.21,26.73,0
36,34.25,26.83,0
35,34.26,26.91,0
36,34.30,27.00,0
36,34.33,27.09,0
37,34.38,27.19,0
36,34.42,27.28,0
36,34.45,27.36,0
36,34.48,27.45,0
37,34.53,27.55,0
33,34.50,27.60,0
37,34.55,27.69,0
38,34.62,27.80,0
36,34.65,27.88,0
36,34.67,27.96,0
36,34.70,28.04,0
36,34.73,28.12,0
35,34.73,28.19,0
36,34.76,28.27,0
36,34.78,28.34,0
36,34.81,28.42,0
35,34.81,28.49,0
36,34.83,28.56,0
36,34.86,28.64,0
36,34.88,28.71,0
35,34.88,28.77,0
34,34.86,28.83,0
36,34.89,28.90,0
36,34.91,28.97,0
36,34.93,29.04,0
34,34.91,29.09,0
36,34.93,29.16,0
34,34.92,29.21,0
35,34.92,29.26,0
34,34.90,29.31,0
36,34.92,29.38,0
36,34.94,29.44,0
35,34.94,29.50,0
36,34.96,29.56,0
36,34.99,29.63,0
36,35.01,29.69,0
35,35.01,29.75,0
34,34.99,29.79,0
36,35.01,29.85,0
36,35.03,29.91,0
35,35.03,29.96,0
38,35.08,30.04,0
36,35.10,30.10,0
36,35.12,30.16,0
36,35.14,30.22,0
39,35.22,30.31,0
36,35.23,30.36,0
37,35.27,30.43,0
36,35.28,30.49,0
36,35.30,30.54,0
36,35.31,30.60,0
36,35.32,30.65,0
38,35.38,30.72,0
37,35.41,30.79,0
36,35.42,30.84,0
36,35.43,30.89,0
37,35.46,30.95,0
37,35.50,31.01,0
36,35.51,31.06,0
36,35.52,31.11,0
36,35.52,31.16,0
36,35.53,31.21,0
36,35.54,31.26,0
35,35.53,31.29,0
36,35.54,31.34,0
36,35.55,31.39,0
36,35.56,31.43,0
35,35.55,31.47,0
36,35.56,31.51,0
36,35.57,31.56,0
36,35.58,31.60,0
35,35.56,31.64,0
36,35.57,31.68,0
36,35.58,31.72,0
35,35.57,31.76,0
36,35.58,31.80,0
36,35.59,31.84,0
36,35.59,31.88,0
34,35.56,31.90,0
34,35.53,31.93,0
36,35.54,31.97,0
36,35.55,32.01,0
34,35.52,32.03,0
34,35.49,32.05,0
35,35.48,32.08,0
35,35.47,32.11,0
34,35.44,32.12,0
34,35.41,32.14,0
36,35.42,32.18,0
35,35.41,32.21,0
34,35.39,32.23,0
37,35.42,32.28,0
36,35.43,32.31,0
36,35.44,32.35,0
34,35.41,32.37,0
34,35.38,32.38,0
39,35.46,32.45,0
34,35.43,32.46,0
34,35.40,32.48,0
36,35.41,32.51,0
35,35.40,32.54,0
35,35.39,32.56,0
34,35.37,32.58,0
34,35.34,32.59,0
40,35.43,32.67,0
35,35.42,32.69,0
34,35.40,32.70,0
34,35.37,32.72,0
36,35.38,32.75,0
34,35.35,32.76,0
36,35.37,32.79,0
34,35.34,32.81,0
31,35.25,32.79,0
34,35.23,32.80,0
34,35.20,32.81,0
36,35.22,32.84,0
35,35.21,32.87,0
35,35.21,32.89,0
36,35.23,32.92,0
34,35.20,32.93,0
33,35.16,32.93,0
34,35.13,32.94,0
34,35.11,32.95,0
34,35.09,32.96,0
35,35.09,32.98,0
34,35.07,32.99,0
36,35.08,33.02,0
36,35.10,33.05,0
36,35.12,33.08,0
34,35.10,33.09,0
36,35.12,33.12,0
35,35.11,33.14,0
35,35.11,33.16,0
36,35.13,33.19,0
36,35.15,33.21,0
36,35.16,33.24,0
34,35.14,33.25,0
34,35.12,33.26,0
34,35.10,33.26,0
35,35.09,33.28,0
34,35.07,33.29,0
34,35.05,33.30,0
34,35.03,33.30,0
35,35.03,33.32,0
34,35.01,33.33,0
35,35.01,33.34,0
34,34.99,33.35,0
34,34.97,33.36,0
34,34.95,33.36,0
36,34.97,33.39,0
36,34.99,33.41,0
35,34.99,33.43,0
34,34.97,33.44,0
33,34.93,33.43,0
34,34.91,33.44,0
34,34.89,33.44,0
35,34.90,33.46,0
33,34.86,33.45,0
35,34.86,33.47,0
35,34.86,33.49,0
36,34.89,33.51,0
36,34.91,33.54,0
36,34.93,33.56,0
34,34.91,33.56,0
37,34.95,33.60,0
36,34.97,33.62,0
36,35.00,33.65,0
35,35.00,33.66,0
36,35.02,33.68,0
36,35.04,33.71,0
34,35.01,33.71,0
36,35.03,33.73,0
36,35.05,33.76,0
36,35.07,33.78,0
36,35.09,33.80,0
34,35.07,33.80,0
36,35.09,33.82,0
36,35.11,33.85,0
36,35.12,33.87,0
36,35.14,33.89,0
37,35.18,33.92,0
36,35.20,33.94,0
34,35.17,33.94,0
34,35.15,33.94,0
36,35.16,33.96,0
36,35.18,33.98,0
35,35.18,33.99,0
36,35.19,34.01,0
36,35.21,34.03,0
36,35.23,34.05,0
34,35.20,34.05,0
35,35.20,34.06,0
36,35.21,34.08,0
35,35.21,34.09,0
34,35.19,34.09,0
36,35.20,34.11,0
36,35.22,34.13,0
36,35.23,34.15,0
36,35.25,34.16,0
36,35.26,34.18,0
36,35.28,34.20,0
35,35.27,34.21,0
36,35.29,34.23,0
36,35.30,34.24,0
36,35.32,34.26,0
35,35.31,34.27,0
36,35.32,34.29,0
38,35.38,34.32,0
36,35.39,34.34,0
35,35.38,34.35,0
34,35.35,34.34,0
36,35.37,34.36,0
36,35.38,34.38,0
36,35.39,34.39,0
36,35.40,34.41,0
36,35.42,34.42,0
35,35.41,34.43,0
36,35.42,34.45,0
36,35.43,34.46,0
42,35.56,34.54,0
35,35.55,34.54,0
34,35.52,34.54,0
34,35.49,34.53,0
36,35.50,34.55,0
35,35.49,34.55,0
34,35.46,34.54,0
36,35.47,34.56,0
36,35.48,34.57,0
35,35.47,34.58,0
34,35.44,34.57,0
36,35.45,34.59,0
36,35.46,34.60,0
35,35.46,34.60,0
34,35.43,34.60,0
36,35.44,34.61,0
36,35.45,34.63,0
35,35.44,34.63,0
36,35.45,34.64,0
36,35.46,34.66,0
36,35.47,34.67,0
36,35.48,34.68,0
36,35.49,34.70,0
36,35.50,34.71,0
36,35.51,34.72,0
36,35.52,34.74,0
37,35.55,34.76,0
36,35.56,34.77,0
36,35.57,34.78,0
36,35.58,34.80,0
35,35.57,34.80,0
36,35.58,34.81,0
37,35.60,34.83,0
39,35.67,34.87,0
36,35.68,34.88,0
36,35.69,34.90,0
36,35.69,34.91,0
36,35.70,34.92,0
37,35.72,34.94,0
36,35.73,34.95,0
35,35.72,34.95,0
38,35.76,34.98,0
35,35.75,34.98,0
35,35.73,34.98,0
37,35.76,35.00,0
36,35.76,35.01,0
36,35.77,35.02,0
36,35.77,35.03,0
36,35.77,35.04,0
36,35.78,35.05,0
36,35.78,35.06,0
37,35.81,35.08,0
36,35.81,35.09,0
37,35.84,35.11,0
36,35.84,35.12,0
36,35.84,35.12,0
35,35.83,35.12,0
36,35.83,35.13,0
36,35.83,35.14,0
36,35.84,35.15,0
36,35.84,35.16,0
37,35.86,35.18,0
35,35.85,35.17,0
36,35.85,35.18,0
36,35.85,35.19,0
36,35.85,35.20,0
36,35.86,35.21,0
36,35.86,35.22,0
36,35.86,35.22,0
37,35.89,35.24,0
36,35.89,35.25,0
35,35.87,35.25,0
36,35.87,35.25,0
37,35.90,35.27,0
38,35.94,35.30,0
37,35.96,35.32,0
36,35.96,35.32,0
36,35.96,35.33,0
36,35.96,35.34,0
38,36.00,35.36,0
38,36.04,35.39,0
37,36.06,35.40,0
36,36.06,35.41,0
36,36.06,35.42,0
38,36.10,35.44,0
37,36.12,35.46,0
36,36.11,35.46,0
36,36.11,35.47,0
38,36.15,35.49,0
36,36.15,35.50,0
36,36.14,35.50,0
36,36.14,35.51,0
36,36.14,35.51,0
37,36.15,35.53,0
36,36.15,35.53,0
36,36.15,35.54,0
38,36.19,35.56,0
35,36.16,35.56,0
36,36.16,35.56,0
36,36.16,35.57,0
36,36.15,35.57,0
36,36.15,35.57,0
36,36.15,35.58,0
36,36.14,35.58,0
36,36.14,35.59,0
35,36.12,35.58,0
36,36.12,35.59,0
38,36.15,35.61,0
36,36.15,35.61,0
36,36.15,35.62,0
38,36.18,35.64,0
37,36.20,35.65,0
38,36.24,35.68,0
39,36.29,35.71,0
42,36.41,35.77,0
42,36.52,35.84,0
37,36.53,35.85,0
38,36.56,35.87,0
38,36.59,35.89,0
38,36.61,35.91,0
37,36.62,35.92,0
38,36.65,35.94,0
40,36.72,35.98,0
38,36.74,36.00,0
37,36.75,36.01,0
38,36.77,36.03,0
38,36.80,36.05,0
37,36.80,36.06,0
38,36.82,36.08,0
38,36.85,36.10,0
38,36.87,36.12,0
36,36.85,36.12,0
38,36.88,36.14,0
38,36.90,36.16,0
37,36.90,36.17,0
36,36.88,36.16,0
37,36.89,36.17,0
39,36.93,36.20,0
37,36.93,36.21,0
36,36.91,36.21,0
38,36.93,36.22,0
38,36.95,36.24,0
37,36.95,36.25,0
37,36.96,36.26,0
37,36.96,36.26,0
38,36.98,36.28,0
37,36.98,36.29,0
38,37.00,36.31,0
38,37.02,36.32,0
40,37.08,36.36,0
42,37.18,36.42,0
37,37.17,36.42,0
37,37.17,36.43,0
39,37.21,36.45,0
38,37.22,36.47,0
37,37.22,36.47,0
38,37.23,36.49,0
37,37.23,36.49,0
37,37.22,36.50,0
40,37.28,36.53,0
38,37.29,36.55,0
39,37.33,36.57,0
38,37.34,36.59,0
38,37.35,36.60,0
38,37.37,36.62,0
40,37.42,36.65,0
38,37.43,36.66,0
38,37.44,36.68,0
38,37.45,36.69,0
39,37.49,36.71,0
38,37.50,36.73,0
38,37.51,36.74,0
38,37.52,36.75,0
40,37.57,36.78,0
38,37.57,36.80,0
40,37.62,36.83,0
38,37.63,36.84,0
39,37.66,36.86,0
38,37.66,36.87,0
38,37.67,36.88,0
38,37.68,36.90,0
37,37.66,36.90,0
38,37.67,36.91,0
38,37.68,36.92,0
39,37.70,36.94,0
38,37.71,36.95,0
38,37.72,36.96,0
38,37.72,36.97,0
40,37.77,37.00,0
38,37.77,37.01,0
38,37.78,37.02,0
38,37.78,37.03,0
38,37.78,37.04,0
38,37.79,37.05,0
38,37.79,37.06,0
38,37.80,37.07,0
39,37.82,37.09,0
39,37.85,37.11,0
40,37.89,37.14,0
38,37.89,37.15,0
38,37.89,37.15,0
39,37.91,37.17,0
38,37.92,37.18,0
38,37.92,37.19,0
38,37.92,37.20,0
38,37.92,37.20,0
38,37.92,37.21,0
38,37.92,37.22,0
38,37.93,37.23,0
38,37.93,37.24,0
38,37.93,37.24,0
38,37.93,37.25,0
38,37.93,37.26,0
38,37.93,37.27,0
40,37.97,37.29,0
38,37.97,37.30,0
39,38.00,37.32,0
40,38.04,37.34,0
38,38.03,37.35,0
38,38.03,37.36,0
40,38.07,37.38,0
38,38.07,37.39,0
38,38.07,37.40,0
38,38.07,37.40,0
40,38.11,37.43,0
38,38.11,37.43,0
39,38.12,37.45,0
38,38.12,37.45,0
39,38.14,37.47,0
38,38.14,37.48,0
44,38.25,37.54,0
38,38.25,37.55,0
39,38.26,37.56,0
38,38.26,37.56,0
37,38.23,37.56,0
38,38.23,37.56,0
39,38.24,37.58,0
39,38.26,37.59,0
39,38.27,37.61,0
39,38.29,37.62,0
39,38.30,37.63,0
39,38.32,37.65,0
38,38.31,37.65,0
40,38.34,37.67,0
40,38.38,37.70,0
39,38.39,37.71,0
37,38.36,37.70,0
39,38.37,37.72,0
39,38.39,37.73,0
41,38.44,37.76,0
38,38.43,37.76,0
39,38.44,37.78,0
38,38.43,37.78,0
38,38.42,37.78,0
39,38.44,37.79,0
38,38.43,37.80,0
39,38.44,37.81,0
39,38.45,37.82,0
39,38.46,37.83,0
40,38.49,37.85,0
38,38.48,37.85,0
40,38.51,37.88,0
40,38.54,37.90,0
40,38.57,37.92,0
38,38.56,37.92,0
40,38.59,37.94,0
38,38.58,37.94,0
38,38.56,37.94,0
38,38.55,37.94,0
41,38.60,37.97,0
41,38.65,38.00,0
40,38.68,38.02,0
38,38.66,38.02,0
41,38.71,38.05,0
40,38.74,38.07,0
40,38.76,38.09,0
40,38.79,38.11,0
39,38.79,38.12,0
39,38.79,38.13,0
40,38.82,38.15,0
38,38.80,38.14,0
40,38.83,38.16,0
40,38.85,38.18,0
40,38.87,38.20,0
38,38.86,38.20,0
40,38.88,38.22,0
40,38.90,38.23,0
38,38.88,38.23,0
39,38.89,38.24,0
40,38.91,38.26,0
38,38.89,38.25,0
38,38.87,38.25,0
40,38.89,38.27,0
39,38.90,38.28,0
40,38.92,38.29,0
40,38.94,38.31,0
38,38.92,38.31,0
39,38.92,38.31,0
38,38.90,38.31,0
40,38.93,38.33,0
38,38.91,38.33,0
39,38.91,38.33,0
38,38.89,38.33,0
40,38.91,38.35,0
38,38.90,38.34,0
39,38.90,38.35,0
40,38.92,38.36,0
40,38.94,38.38,0
42,39.00,38.42,0
40,39.02,38.43,0
40,39.04,38.45,0
40,39.06,38.46,0
39,39.06,38.47,0
39,39.06,38.48,0
40,39.08,38.49,0
40,39.10,38.51,0
40,39.11,38.52,0
39,39.11,38.53,0
42,39.17,38.56,0
40,39.19,38.57,0
39,39.18,38.58,0
39,39.18,38.58,0
40,39.20,38.60,0
40,39.21,38.61,0
41,39.25,38.63,0
40,39.26,38.65,0
40,39.28,38.66,0
40,39.29,38.68,0
40,39.31,38.69,0
40,39.32,38.70,0
43,39.39,38.74,0
42,39.45,38.78,0
41,39.48,38.80,0
39,39.47,38.80,0
41,39.50,38.82,0
40,39.51,38.84,0
41,39.54,38.86,0
40,39.55,38.87,0
41,39.58,38.89,0
41,39.60,38.91,0
41,39.63,38.93,0
40,39.64,38.94,0
41,39.67,38.96,0
40,39.67,38.97,0
40,39.68,38.98,0
44,39.77,39.03,0
41,39.79,39.05,0
42,39.83,39.08,0
40,39.84,39.09,0
41,39.86,39.11,0
45,39.96,39.17,0
42,40.00,39.20,0
42,40.04,39.23,0
42,40.08,39.25,0
42,40.12,39.28,0
41,40.14,39.30,0
42,40.18,39.33,0
43,40.23,39.36,0
42,40.27,39.39,0
40,40.26,39.39,0
40,40.26,39.40,0
39,40.23,39.40,0
42,40.27,39.42,0
42,40.30,39.45,0
40,40.30,39.45,0
41,40.31,39.47,0
41,40.32,39.49,0
42,40.36,39.51,0
40,40.35,39.52,0
42,40.38,39.54,0
42,40.42,39.56,0
40,40.41,39.57,0
41,40.42,39.58,0
41,40.43,39.60,0
40,40.42,39.60,0
40,40.41,39.61,0
42,40.45,39.63,0
42,40.48,39.65,0
41,40.49,39.67,0
40,40.48,39.67,0
42,40.51,39.69,0
41,40.52,39.71,0
42,40.55,39.73,0
40,40.54,39.73,0
41,40.55,39.74,0
42,40.58,39.77,0
41,40.58,39.78,0
40,40.57,39.78,0
42,40.60,39.80,0
42,40.63,39.83,0
41,40.64,39.84,0
42,40.66,39.86,0
44,40.73,39.90,0
41,40.74,39.91,0
40,40.72,39.91,0
40,40.71,39.91,0
40,40.69,39.91,0
40,40.68,39.92,0
42,40.70,39.94,0
41,40.71,39.95,0
40,40.70,39.95,0
42,40.72,39.97,0
40,40.71,39.97,0
40,40.69,39.97,0
42,40.72,39.99,0
42,40.75,40.01,0
42,40.77,40.03,0
42,40.80,40.05,0
42,40.82,40.07,0
41,40.82,40.08,0
42,40.85,40.10,0
44,40.91,40.14,0
42,40.93,40.15,0
42,40.95,40.17,0
42,40.97,40.19,0
43,41.01,40.22,0
42,41.03,40.24,0
44,41.09,40.27,0
45,41.17,40.32,0
42,41.19,40.34,0
42,41.20,40.35,0
44,41.26,40.39,0
42,41.28,40.41,0
43,41.31,40.43,0
44,41.36,40.47,0
43,41.40,40.49,0
47,41.51,40.56,0
44,41.56,40.59,0
42,41.57,40.61,0
44,41.62,40.64,0
45,41.68,40.69,0
44,41.73,40.72,0
43,41.75,40.74,0
44,41.80,40.77,0
45,41.86,40.82,0
42,41.87,40.83,0
44,41.91,40.86,0
44,41.95,40.89,0
45,42.01,40.93,0
45,42.07,40.97,0
44,42.11,41.00,0
43,42.13,41.02,0
44,42.17,41.05,0
44,42.20,41.08,0
44,42.24,41.11,0
46,42.31,41.16,0
45,42.37,41.20,0
44,42.40,41.23,0
43,42.41,41.24,0
45,42.46,41.28,0
45,42.51,41.32,0
44,42.54,41.35,0
44,42.57,41.37,0
45,42.62,41.41,0
44,42.65,41.43,0
46,42.72,41.48,0
46,42.78,41.53,0
45,42.83,41.56,0
45,42.87,41.59,0
44,42.89,41.62,0
50,43.03,41.70,0
47,43.11,41.76,0
45,43.15,41.79,0
47,43.23,41.84,0
46,43.28,41.88,0
48,43.38,41.94,0
47,43.45,41.99,0
46,43.50,42.03,0
46,43.55,42.07,0
47,43.62,42.12,0
46,43.67,42.16,0
46,43.71,42.20,0
46,43.76,42.24,0
46,43.81,42.28,0
46,43.85,42.31,0
46,43.89,42.35,0
42,43.85,42.35,0
47,43.92,42.39,0
46,43.96,42.43,0
46,44.00,42.46,0
46,44.04,42.50,0
46,44.08,42.53,0
46,44.12,42.57,0
46,44.16,42.60,0
46,44.19,42.64,0
48,44.27,42.69,0
46,44.30,42.72,0
46,44.34,42.76,0
46,44.37,42.79,0
47,44.42,42.83,0
46,44.45,42.86,0
46,44.49,42.89,0
46,44.52,42.93,0
48,44.59,42.98,0
48,44.65,43.03,0
47,44.70,43.07,0
46,44.73,43.10,0
47,44.77,43.13,0
48,44.84,43.18,0
48,44.90,43.23,0
46,44.92,43.26,0
47,44.96,43.30,0
46,44.98,43.32,0
46,45.00,43.35,0
47,45.04,43.39,0
47,45.08,43.42,0
52,45.22,43.51,0
49,45.30,43.56,0
47,45.33,43.60,0
49,45.40,43.65,0
48,45.46,43.70,0
46,45.47,43.72,0
47,45.50,43.75,0
48,45.55,43.79,0
48,45.60,43.84,0
47,45.63,43.87,0
47,45.65,43.90,0
50,45.74,43.96,0
50,45.82,44.02,0
50,45.91,44.08,0
49,45.97,44.13,0
48,46.01,44.17,0
50,46.09,44.23,0
54,46.25,44.32,0
52,46.36,44.40,0
51,46.46,44.47,0
56,46.65,44.58,0
50,46.71,44.64,0
52,46.82,44.71,0
50,46.88,44.76,0
50,46.95,44.82,0
52,47.05,44.89,0
51,47.13,44.95,0
52,47.22,45.02,0
52,47.32,45.09,0
51,47.39,45.15,0
50,47.44,45.20,0
52,47.54,45.26,0
52,47.63,45.33,0
52,47.71,45.40,0
51,47.78,45.45,0
50,47.82,45.50,0
52,47.91,45.56,0
50,47.95,45.61,0
50,47.99,45.65,0
50,48.03,45.70,0
52,48.11,45.76,0
52,48.19,45.82,0
51,48.24,45.87,0
53,48.34,45.95,0
52,48.41,46.01,0
52,48.48,46.07,0
51,48.53,46.11,0
52,48.60,46.17,0
51,48.65,46.22,0
51,48.70,46.27,0
52,48.76,46.33,0
53,48.85,46.39,0
53,48.93,46.46,0
52,48.99,46.52,0
50,49.01,46.55,0
51,49.05,46.59,0
52,49.11,46.65,0
50,49.13,46.68,0
52,49.19,46.74,0
53,49.26,46.80,0
52,49.32,46.85,0
52,49.37,46.90,0
52,49.42,46.95,0
52,49.48,47.00,0
53,49.55,47.06,0
54,49.64,47.13,0
52,49.68,47.18,0
53,49.75,47.24,0
51,49.77,47.28,0
56,49.90,47.36,0
54,49.98,47.43,0
54,50.06,47.50,0
55,50.16,47.57,0
56,50.28,47.66,0
54,50.35,47.72,0
55,50.44,47.79,0
54,50.52,47.85,0
54,50.58,47.92,0
56,50.69,48.00,0
55,50.78,48.07,0
54,50.84,48.13,0
54,50.91,48.18,0
54,50.97,48.24,0
55,51.05,48.31,0
58,51.19,48.41,0
52,51.20,48.44,0
54,51.26,48.50,0
57,51.38,48.58,0
61,51.57,48.71,0
56,51.66,48.78,0
56,51.74,48.85,0
56,51.83,48.92,0
56,51.91,48.99,0
54,51.95,49.04,0
58,52.07,49.13,0
58,52.19,49.22,0
57,52.29,49.30,0
58,52.40,49.39,0
56,52.48,49.45,0
57,52.57,49.53,0
58,52.67,49.61,0
60,52.82,49.72,0
62,53.00,49.84,0
62,53.18,49.96,0
62,53.36,50.08,0
62,53.53,50.20,0
65,53.76,50.35,0
61,53.91,50.46,0
62,54.07,50.57,0
63,54.25,50.70,0
61,54.38,50.80,0
62,54.54,50.91,0
64,54.72,51.04,0
68,54.99,51.21,0
68,55.25,51.38,0
70,55.55,51.57,0
70,55.83,51.75,0
67,56.06,51.90,0
67,56.28,52.05,0
66,56.47,52.19,0
68,56.70,52.35,0
70,56.97,52.53,0
68,57.19,52.68,0
66,57.36,52.82,0
67,57.56,52.96,0
66,57.73,53.09,0
66,57.89,53.22,0
66,58.05,53.34,0
68,58.25,53.49,0
68,58.45,53.64,0
68,58.64,53.78,0
66,58.79,53.90,0
68,58.97,54.04,0
65,59.09,54.15,0
68,59.27,54.29,0
69,59.46,54.44,0
68,59.63,54.57,0
72,59.88,54.75,0
72,60.12,54.92,0
68,60.28,55.05,0
71,60.50,55.21,0
69,60.67,55.35,0
68,60.81,55.48,0
71,61.02,55.63,0
72,61.24,55.79,0
71,61.43,55.95,0
69,61.58,56.08,0
70,61.75,56.22,0
70,61.92,56.35,0
70,62.08,56.49,0
69,62.22,56.62,0
72,62.41,56.77,0
74,62.64,56.94,0
72,62.83,57.09,0
70,62.97,57.22,0
73,63.17,57.38,0
76,63.43,57.57,0
71,63.58,57.70,0
74,63.79,57.86,0
72,63.96,58.00,0
73,64.14,58.15,0
71,64.27,58.28,0
70,64.39,58.40,0
73,64.56,58.55,0
73,64.73,58.69,0
74,64.91,58.84,0
76,65.14,59.01,0
76,65.35,59.18,0
74,65.53,59.33,0
76,65.74,59.50,0
74,65.90,59.64,0
77,66.12,59.82,0
78,66.36,60.00,0
74,66.51,60.14,0
76,66.70,60.30,0
75,66.87,60.45,0
76,67.05,60.60,0
74,67.19,60.74,0
76,67.37,60.89,0
77,67.56,61.05,0
76,67.73,61.20,0
76,67.89,61.35,0
79,68.12,61.52,0
79,68.33,61.70,0
80,68.57,61.88,0
78,68.76,62.04,0
80,68.98,62.22,0
81,69.22,62.41,0
83,69.50,62.62,0
84,69.79,62.83,0
79,69.97,62.99,0
83,70.23,63.19,0
88,70.59,63.44,0
88,70.93,63.68,0
84,71.20,63.89,0
83,71.43,64.08,0
82,71.64,64.26,0
82,71.85,64.44,0
84,72.09,64.63,0
83,72.31,64.81,0
83,72.53,65.00,0
84,72.76,65.19,0
84,72.98,65.37,0
84,73.20,65.56,0
82,73.38,65.73,0
84,73.59,65.91,0
84,73.80,66.09,0
85,74.02,66.28,0
88,74.30,66.50,0
84,74.49,66.67,0
84,74.68,66.84,0
87,74.93,67.05,0
88,75.19,67.25,0
86,75.41,67.44,0
89,75.68,67.66,0
86,75.89,67.84,0
90,76.17,68.06,0
92,76.49,68.30,0
94,76.84,68.56,0
92,77.14,68.79,0
91,77.42,69.02,0
92,77.71,69.25,0
94,78.03,69.49,0
92,78.31,69.72,0
90,78.55,69.92,0
92,78.82,70.14,0
91,79.06,70.35,0
91,79.30,70.56,0
93,79.57,70.78,0
93,79.84,71.00,0
96,80.16,71.25,0
95,80.46,71.49,0
92,80.69,71.70,0
99,81.06,71.97,0
101,81.46,72.26,0
93,81.69,72.47,0
95,81.95,72.69,0
98,82.27,72.95,0
97,82.57,73.19,0
94,82.80,73.39,0
96,83.06,73.62,0
95,83.30,73.83,0
96,83.55,74.06,0
97,83.82,74.28,0
98,84.11,74.52,0
98,84.39,74.76,0
96,84.62,74.97,0
97,84.87,75.19,0
96,85.09,75.40,0
103,85.45,75.67,0
101,85.76,75.93,0
100,86.04,76.17,0
98,86.28,76.39,0
101,86.58,76.63,0
102,86.88,76.89,0
103,87.21,77.15,0
101,87.48,77.39,0
105,87.83,77.66,0
101,88.10,77.90,0
103,88.39,78.15,0
110,88.83,78.46,0
111,89.27,78.79,0
114,89.76,79.14,0
109,90.15,79.44,0
109,90.53,79.74,0
107,90.86,80.01,0
109,91.22,80.30,0
109,91.57,80.59,0
109,91.92,80.87,0
106,92.20,81.12,0
107,92.50,81.38,0
109,92.83,81.66,0
105,93.07,81.89,0
105,93.31,82.12,0
105,93.55,82.35,0
105,93.77,82.58,0
107,94.04,82.82,0
107,94.30,83.06,0
106,94.53,83.29,0
107,94.78,83.53,0
109,95.07,83.78,0
109,95.34,84.04,0
108,95.60,84.28,0
109,95.87,84.52,0
107,96.09,84.75,0
107,96.31,84.97,0
109,96.56,85.21,0
109,96.81,85.45,0
109,97.05,85.68,0
108,97.27,85.91,0
107,97.47,86.12,0
109,97.70,86.35,0
109,97.92,86.57,0
108,98.13,86.79,0
107,98.30,86.99,0
109,98.52,87.21,0
107,98.69,87.41,0
108,98.87,87.61,0
108,99.06,87.82,0
108,99.23,88.02,0
111,99.47,88.25,0
109,99.66,88.46,0
111,99.89,88.68,0
111,100.11,88.90,0
111,100.33,89.13,0
109,100.50,89.32,0
112,100.73,89.55,0
111,100.94,89.77,0
109,101.10,89.96,0
108,101.23,90.14,0
108,101.37,90.32,0
110,101.54,90.51,0
110,101.71,90.71,0
110,101.88,90.90,0
109,102.02,91.08,0
110,102.18,91.27,0
108,102.30,91.44,0
110,102.45,91.62,0
109,102.58,91.80,0
109,102.71,91.97,0
110,102.86,92.15,0
111,103.02,92.34,0
108,103.12,92.50,0
110,103.26,92.67,0
112,103.43,92.86,0
112,103.60,93.06,0
112,103.77,93.25,0
110,103.89,93.41,0
111,104.04,93.59,0
114,104.24,93.79,0
117,104.49,94.02,0
114,104.68,94.22,0
116,104.91,94.44,0
114,105.09,94.64,0
112,105.23,94.81,0
117,105.46,95.03,0
115,105.65,95.23,0
115,105.84,95.43,0
114,106.00,95.62,0
112,106.12,95.78,0
111,106.22,95.93,0
112,106.34,96.09,0
112,106.45,96.25,0
114,106.60,96.43,0
113,106.73,96.60,0
112,106.83,96.75,0
112,106.94,96.90,0
111,107.02,97.04,0
113,107.14,97.20,0
112,107.24,97.35,0
111,107.31,97.49,0
111,107.39,97.62,0
111,107.46,97.76,0
111,107.53,97.89,0
110,107.58,98.01,0
110,107.63,98.13,0
110,107.67,98.25,0
112,107.76,98.39,0
114,107.88,98.54,0
111,107.95,98.67,0
111,108.01,98.79,0
110,108.05,98.90,0
113,108.15,99.04,0
118,108.34,99.23,0
116,108.50,99.40,0
113,108.59,99.54,0
112,108.66,99.66,0
111,108.70,99.77,0
112,108.77,99.90,0
111,108.81,100.01,0
111,108.86,100.12,0
111,108.90,100.23,0
111,108.94,100.33,0
113,109.02,100.46,0
113,109.10,100.59,0
112,109.16,100.70,0
113,109.24,100.82,0
114,109.33,100.95,0
112,109.39,101.07,0
112,109.44,101.17,0
113,109.51,101.29,0
111,109.54,101.39,0
111,109.57,101.49,0
111,109.60,101.58,0
111,109.63,101.68,0
113,109.69,101.79,0
111,109.72,101.88,0
112,109.76,101.98,0
112,109.81,102.08,0
111,109.83,102.17,0
110,109.84,102.25,0
109,109.82,102.32,0
111,109.84,102.40,0
112,109.89,102.50,0
111,109.91,102.58,0
112,109.95,102.68,0
111,109.97,102.76,0
111,109.99,102.84,0
111,110.01,102.93,0
109,109.99,102.99,0
111,110.01,103.07,0
114,110.09,103.18,0
113,110.15,103.27,0
112,110.19,103.36,0
111,110.20,103.44,0
112,110.24,103.52,0
113,110.29,103.62,0
114,110.37,103.72,0
113,110.42,103.82,0
111,110.43,103.89,0
113,110.48,103.98,0
112,110.51,104.06,0
113,110.56,104.15,0
111,110.57,104.22,0
111,110.58,104.28,0
111,110.59,104.35,0
112,110.62,104.43,0
109,110.59,104.47,0
110,110.57,104.53,0
109,110.54,104.57,0
110,110.53,104.63,0
109,110.50,104.67,0
109,110.47,104.71,0
109,110.44,104.76,0
109,110.41,104.80,0
109,110.38,104.84,0
109,110.36,104.88,0
110,110.35,104.93,0
109,110.32,104.98,0
109,110.30,105.02,0
108,110.25,105.05,0
109,110.23,105.09,0
108,110.18,105.11,0
109,110.16,105.15,0
110,110.15,105.20,0
107,110.09,105.22,0
109,110.07,105.26,0
107,110.01,105.27,0
108,109.97,105.30,0
109,109.95,105.34,0
109,109.93,105.38,0
107,109.87,105.39,0
108,109.83,105.42,0
109,109.82,105.45,0
107,109.76,105.47,0
107,109.71,105.48,0
108,109.67,105.51,0
107,109.62,105.52,0
107,109.57,105.54,0
109,109.55,105.57,0
107,109.50,105.59,0
107,109.45,105.60,0
107,109.40,105.62,0
107,109.36,105.63,0
107,109.31,105.64,0
108,109.28,105.67,0
106,109.22,105.67,0
107,109.17,105.68,0
106,109.11,105.69,0
105,109.03,105.68,0
106,108.97,105.68,0
107,108.93,105.70,0
105,108.85,105.69,0
105,108.77,105.68,0
105,108.70,105.68,0
105,108.62,105.67,0
104,108.53,105.65,0
105,108.46,105.65,0
105,108.39,105.64,0
105,108.32,105.63,0
105,108.26,105.63,0
104,108.17,105.61,0
104,108.09,105.59,0
104,108.01,105.58,0
104,107.93,105.56,0
103,107.83,105.54,0
104,107.75,105.52,0
103,107.66,105.50,0
105,107.60,105.49,0
103,107.51,105.47,0
103,107.42,105.44,0
105,107.37,105.44,0
104,107.30,105.42,0
103,107.22,105.40,0
103,107.13,105.37,0
103,107.05,105.35,0
103,106.97,105.33,0
103,106.89,105.30,0
102,106.79,105.27,0
102,106.70,105.24,0
103,106.62,105.22,0
103,106.55,105.19,0
101,106.44,105.15,0
103,106.37,105.13,0
103,106.30,105.11,0
102,106.22,105.08,0
101,106.11,105.04,0
101,106.01,105.00,0
102,105.93,104.97,0
102,105.85,104.94,0
101,105.75,104.90,0
101,105.66,104.86,0
101,105.57,104.82,0
100,105.46,104.77,0
101,105.37,104.73,0
99,105.24,104.68,0
100,105.13,104.63,0
100,105.03,104.58,0
100,104.93,104.54,0
99,104.81,104.48,0
99,104.70,104.43,0
100,104.60,104.38,0
100,104.51,104.34,0
100,104.42,104.30,0
100,104.33,104.25,0
99,104.22,104.20,0
98,104.10,104.14,0
99,104.00,104.09,0
100,103.92,104.05,0
99,103.82,104.00,0
98,103.70,103.94,0
98,103.59,103.88,0
100,103.52,103.84,0
98,103.41,103.78,0
99,103.32,103.73,0
98,103.21,103.67,0
99,103.13,103.63,0
98,103.03,103.57,0
97,102.91,103.51,0
98,102.81,103.45,0
98,102.71,103.40,0
96,102.58,103.32,0
97,102.47,103.26,0
97,102.36,103.20,0
95,102.21,103.11,0
97,102.10,103.05,0
98,102.02,103.00,0
97,101.92,102.94,0
97,101.82,102.88,0
96,101.71,102.81,0
95,101.57,102.74,0
96,101.46,102.67,0
98,101.39,102.62,0
96,101.28,102.56,0
96,101.18,102.49,0
96,101.08,102.43,0
97,100.99,102.37,0
98,100.93,102.33,0
95,100.82,102.25,0
96,100.72,102.19,0
96,100.62,102.13,0
95,100.51,102.06,0
96,100.42,102.00,0
95,100.31,101.93,0
95,100.21,101.86,0
94,100.08,101.78,0
95,99.98,101.71,0
95,99.88,101.65,0
95,99.78,101.58,0
95,99.69,101.51,0
95,99.59,101.45,0
96,99.52,101.39,0
95,99.43,101.33,0
95,99.34,101.27,0
95,99.26,101.20,0
95,99.17,101.14,0
95,99.09,101.08,0
94,98.99,101.01,0
95,98.91,100.95,0
95,98.83,100.89,0
96,98.77,100.84,0
94,98.68,100.77,0
94,98.58,100.70,0
93,98.47,100.63,0
93,98.36,100.55,0
94,98.27,100.49,0
94,98.19,100.42,0
93,98.09,100.35,0
94,98.00,100.28,0
95,97.94,100.23,0
93,97.84,100.16,0
93,97.75,100.09,0
93,97.65,100.02,0
93,97.56,99.95,0
94,97.49,99.89,0
95,97.44,99.84,0
92,97.33,99.76,0
92,97.22,99.68,0
92,97.12,99.60,0
93,97.04,99.54,0
92,96.94,99.46,0
92,96.84,99.39,0
92,96.74,99.31,0
92,96.65,99.24,0
92,96.55,99.17,0
92,96.46,99.10,0
93,96.39,99.04,0
92,96.30,98.97,0
92,96.22,98.90,0
90,96.09,98.81,0
92,96.01,98.74,0
92,95.93,98.67,0
91,95.83,98.60,0
92,95.76,98.53,0
92,95.68,98.46,0
92,95.61,98.40,0
94,95.58,98.36,0
89,95.44,98.26,0
92,95.38,98.20,0
91,95.29,98.13,0
91,95.20,98.06,0
90,95.10,97.98,0
92,95.04,97.92,0
91,94.96,97.85,0
87,94.80,97.74,0
90,94.70,97.66,0
90,94.61,97.58,0
90,94.51,97.51,0
90,94.42,97.43,0
88,94.30,97.34,0
88,94.17,97.25,0
89,94.07,97.16,0
88,93.94,97.07,0
90,93.87,97.00,0
90,93.79,96.93,0
89,93.69,96.85,0
88,93.58,96.76,0
90,93.51,96.70,0
88,93.40,96.61,0
90,93.33,96.54,0
90,93.26,96.48,0
90,93.20,96.41,0
90,93.13,96.35,0
88,93.03,96.26,0
90,92.97,96.20,0
90,92.91,96.14,0
88,92.81,96.06,0
88,92.72,95.98,0
88,92.62,95.90,0
88,92.53,95.82,0
89,92.46,95.75,0
89,92.39,95.68,0
88,92.30,95.61,0
88,92.22,95.53,0
87,92.11,95.45,0
88,92.03,95.37,0
89,91.97,95.31,0
86,91.85,95.21,0
88,91.77,95.14,0
88,91.70,95.07,0
87,91.60,94.99,0
88,91.53,94.92,0
87,91.44,94.84,0
89,91.39,94.78,0
88,91.32,94.71,0
88,91.26,94.65,0
88,91.19,94.58,0
88,91.13,94.51,0
87,91.05,94.44,0
87,90.96,94.37,0
86,90.87,94.28,0
89,90.83,94.23,0
87,90.75,94.16,0
87,90.68,94.08,0
87,90.60,94.01,0
87,90.53,93.94,0
86,90.44,93.86,0
86,90.35,93.79,0
86,90.26,93.71,0
87,90.20,93.64,0
86,90.12,93.56,0
86,90.03,93.49,0
86,89.95,93.41,0
85,89.85,93.33,0
86,89.78,93.26,0
85,89.68,93.17,0
86,89.61,93.10,0
85,89.51,93.02,0
85,89.42,92.94,0
86,89.36,92.87,0
86,89.29,92.80,0
86,89.22,92.73,0
86,89.16,92.67,0
85,89.08,92.59,0
84,88.97,92.50,0
85,88.89,92.43,0
84,88.80,92.35,0
84,88.70,92.26,0
84,88.61,92.18,0
86,88.55,92.12,0
85,88.48,92.05,0
84,88.39,91.97,0
85,88.33,91.90,0
84,88.24,91.82,0
85,88.17,91.75,0
84,88.09,91.67,0
84,88.01,91.60,0
84,87.93,91.52,0
83,87.83,91.43,0
84,87.75,91.36,0
84,87.68,91.29,0
85,87.63,91.22,0
83,87.53,91.14,0
84,87.46,91.07,0
85,87.41,91.01,0
84,87.34,90.94,0
83,87.26,90.86,0
84,87.19,90.79,0
84,87.13,90.72,0
85,87.09,90.67,0
84,87.02,90.60,0
84,86.96,90.53,0
84,86.90,90.47,0
85,86.87,90.41,0
83,86.79,90.34,0
84,86.73,90.28,0
86,86.72,90.23,0
83,86.64,90.16,0
84,86.59,90.10,0
82,86.50,90.02,0
82,86.41,89.94,0
87,86.42,89.91,0
84,86.37,89.85,0
84,86.33,89.79,0
83,86.26,89.72,0
83,86.19,89.66,0
82,86.11,89.58,0
82,86.03,89.50,0
83,85.97,89.44,0
83,85.91,89.37,0
82,85.83,89.30,0
81,85.73,89.22,0
82,85.66,89.14,0
82,85.59,89.07,0
82,85.51,89.00,0
82,85.44,88.93,0
81,85.35,88.85,0
81,85.27,88.77,0
82,85.20,88.71,0
82,85.14,88.64,0
80,85.04,88.55,0
81,84.95,88.48,0
82,84.90,88.41,0
80,84.80,88.33,0
81,84.72,88.26,0
80,84.63,88.17,0
82,84.57,88.11,0
82,84.52,88.05,0
81,84.45,87.98,0
80,84.36,87.90,0
81,84.30,87.83,0
80,84.21,87.75,0
80,84.13,87.68,0
80,84.04,87.60,0
81,83.98,87.53,0
80,83.90,87.46,0
79,83.81,87.37,0
80,83.73,87.30,0
81,83.67,87.24,0
79,83.58,87.15,0
80,83.51,87.08,0
82,83.48,87.03,0
80,83.41,86.96,0
80,83.34,86.89,0
79,83.25,86.81,0
82,83.23,86.76,0
81,83.18,86.71,0
80,83.12,86.64,0
79,83.04,86.56,0
81,83.00,86.51,0
80,82.94,86.44,0
79,82.86,86.37,0
79,82.78,86.29,0
80,82.73,86.23,0
79,82.65,86.16,0
80,82.60,86.10,0
78,82.51,86.02,0
77,82.40,85.93,0
79,82.33,85.86,0
80,82.28,85.80,0
79,82.22,85.73,0
79,82.15,85.66,0
79,82.09,85.60,0
78,82.01,85.52,0
78,81.93,85.45,0
79,81.87,85.38,0
80,81.83,85.33,0
78,81.75,85.25,0
79,81.70,85.19,0
79,81.65,85.13,0
80,81.61,85.08,0
78,81.54,85.01,0
78,81.47,84.94,0
77,81.38,84.86,0
80,81.35,84.81,0
78,81.29,84.74,0
78,81.22,84.67,0
78,81.16,84.61,0
78,81.09,84.54,0
78,81.03,84.48,0
78,80.97,84.41,0
78,80.91,84.35,0
78,80.85,84.28,0
78,80.80,84.22,0
78,80.74,84.16,0
77,80.66,84.09,0
78,80.61,84.03,0
76,80.52,83.95,0
79,80.49,83.90,0
78,80.44,83.84,0
77,80.37,83.77,0
78,80.32,83.71,0
78,80.28,83.65,0
77,80.21,83.59,0
77,80.15,83.52,0
76,80.06,83.45,0
78,80.02,83.39,0
78,79.98,83.34,0
78,79.94,83.28,0
76,79.86,83.21,0
79,79.85,83.17,0
78,79.81,83.12,0
76,79.73,83.05,0
76,79.66,82.98,0
77,79.61,82.92,0
77,79.55,82.86,0
76,79.48,82.79,0
77,79.43,82.73,0
75,79.34,82.65,0
77,79.30,82.60,0
78,79.27,82.55,0
76,79.21,82.49,0
76,79.14,82.42,0
76,79.08,82.36,0
76,79.02,82.29,0
76,78.96,82.23,0
78,78.94,82.19,0
76,78.88,82.13,0
75,78.80,82.05,0
76,78.75,81.99,0
76,78.69,81.93,0
76,78.64,81.87,0
76,78.58,81.82,0
76,78.53,81.76,0
76,78.48,81.70,0
76,78.43,81.64,0
79,78.44,81.62,0
76,78.39,81.56,0
76,78.35,81.51,0
76,78.30,81.45,0
75,78.23,81.39,0
76,78.19,81.33,0
75,78.13,81.27,0
76,78.08,81.22,0
76,78.04,81.16,0
74,77.96,81.09,0
76,77.92,81.04,0
78,77.92,81.01,0
76,77.88,80.96,0
75,77.83,80.90,0
74,77.75,80.83,0
75,77.69,80.77,0
75,77.64,80.72,0
74,77.57,80.65,0
75,77.52,80.59,0
77,77.51,80.56,0
76,77.48,80.51,0
74,77.41,80.45,0
74,77.34,80.38,0
76,77.31,80.34,0
74,77.25,80.27,0
74,77.18,80.21,0
74,77.12,80.15,0
75,77.07,80.10,0
74,77.01,80.04,0
74,76.95,79.98,0
74,76.89,79.92,0
73,76.82,79.85,0
74,76.76,79.79,0
74,76.70,79.73,0
74,76.65,79.67,0
73,76.58,79.61,0
74,76.53,79.55,0
74,76.48,79.50,0
72,76.39,79.42,0
73,76.32,79.36,0
74,76.27,79.30,0
74,76.23,79.25,0
74,76.18,79.20,0
73,76.12,79.14,0
73,76.06,79.07,0
72,75.97,79.00,0
72,75.90,78.93,0
73,75.84,78.87,0
72,75.76,78.80,0
72,75.69,78.74,0
72,75.61,78.67,0
72,75.54,78.60,0
72,75.47,78.54,0
72,75.40,78.47,0
72,75.33,78.41,0
73,75.28,78.35,0
72,75.22,78.29,0
72,75.15,78.23,0
72,75.09,78.16,0
73,75.05,78.11,0
73,75.01,78.06,0
72,74.95,78.00,0
71,74.87,77.93,0
72,74.81,77.87,0
72,74.76,77.81,0
72,74.70,77.75,0
72,74.65,77.70,0
72,74.59,77.64,0
72,74.54,77.58,0
70,74.45,77.51,0
72,74.40,77.45,0
72,74.35,77.40,0
70,74.27,77.32,0
71,74.20,77.26,0
72,74.16,77.21,0
72,74.11,77.16,0
70,74.03,77.08,0
72,73.99,77.03,0
74,73.99,77.00,0
72,73.95,76.95,0
72,73.91,76.90,0
72,73.87,76.85,0
72,73.84,76.81,0
72,73.80,76.76,0
72,73.76,76.71,0
72,73.73,76.66,0
72,73.69,76.62,0
71,73.64,76.56,0
70,73.57,76.50,0
71,73.52,76.44,0
72,73.49,76.40,0
72,73.46,76.35,0
70,73.39,76.29,0
70,73.32,76.23,0
71,73.27,76.17,0
70,73.21,76.11,0
74,73.22,76.09,0
72,73.20,76.05,0
71,73.16,76.00,0
70,73.09,75.94,0
70,73.03,75.88,0
69,72.95,75.81,0
71,72.91,75.76,0
71,72.87,75.72,0
72,72.85,75.68,0
74,72.88,75.66,0
71,72.84,75.61,0
70,72.78,75.56,0
70,72.73,75.50,0
70,72.67,75.45,0
70,72.62,75.39,0
70,72.57,75.34,0
72,72.56,75.31,0
70,72.50,75.25,0
69,72.43,75.19,0
70,72.39,75.14,0
69,72.32,75.08,0
69,72.25,75.02,0
70,72.21,74.97,0
73,72.22,74.95,0
70,72.18,74.90,0
68,72.09,74.83,0
70,72.05,74.78,0
71,72.03,74.74,0
70,71.99,74.69,0
69,71.93,74.64,0
70,71.89,74.59,0
69,71.83,74.54,0
72,71.84,74.51,0
69,71.78,74.45,0
69,71.73,74.40,0
69,71.67,74.35,0
68,71.60,74.28,0
68,71.53,74.22,0
68,71.46,74.16,0
69,71.41,74.11,0
68,71.34,74.05,0
68,71.27,73.98,0
68,71.21,73.92,0
69,71.16,73.88,0
68,71.10,73.82,0
68,71.04,73.76,0
66,70.94,73.68,0
68,70.88,73.62,0
68,70.82,73.57,0
67,70.74,73.50,0
68,70.69,73.45,0
68,70.63,73.39,0
68,70.58,73.34,0
66,70.49,73.27,0
66,70.40,73.19,0
68,70.35,73.14,0
67,70.29,73.08,0
66,70.20,73.01,0
68,70.16,72.96,0
67,70.09,72.90,0
68,70.05,72.85,0
66,69.97,72.78,0
66,69.89,72.71,0
68,69.85,72.67,0
67,69.80,72.61,0
66,69.72,72.54,0
66,69.65,72.48,0
66,69.57,72.41,0
66,69.50,72.35,0
66,69.43,72.29,0
66,69.36,72.22,0
66,69.30,72.16,0
66,69.23,72.10,0
66,69.16,72.04,0
66,69.10,71.98,0
66,69.04,71.92,0
66,68.98,71.86,0
66,68.92,71.80,0
66,68.86,71.74,0
66,68.80,71.69,0
66,68.75,71.63,0
64,68.65,71.55,0
66,68.60,71.50,0
66,68.55,71.44,0
65,68.48,71.38,0
65,68.41,71.31,0
66,68.36,71.26,0
66,68.31,71.21,0
66,68.27,71.16,0
64,68.18,71.08,0
65,68.12,71.02,0
65,68.05,70.96,0
67,68.03,70.92,0
68,68.03,70.89,0
65,67.97,70.84,0
64,67.89,70.77,0
66,67.85,70.72,0
66,67.82,70.67,0
65,67.76,70.62,0
66,67.73,70.57,0
66,67.69,70.52,0
66,67.66,70.48,0
66,67.62,70.43,0
64,67.55,70.37,0
66,67.52,70.33,0
64,67.45,70.26,0
64,67.38,70.20,0
63,67.29,70.13,0
64,67.23,70.07,0
66,67.20,70.03,0
66,67.18,69.99,0
66,67.16,69.95,0
64,67.09,69.89,0
66,67.07,69.85,0
66,67.05,69.81,0
66,67.03,69.77,0
66,67.01,69.73,0
65,66.97,69.69,0
65,66.93,69.64,0
67,66.93,69.61,0
65,66.89,69.57,0
64,66.83,69.51,0
64,66.78,69.46,0
65,66.74,69.41,0
70,66.81,69.42,0
65,66.77,69.37,0
65,66.73,69.33,0
64,66.68,69.28,0
66,66.67,69.24,0
64,66.61,69.19,0
64,66.56,69.14,0
65,66.53,69.10,0
63,66.46,69.04,0
64,66.41,68.99,0
64,66.36,68.94,0
64,66.31,68.89,0
64,66.27,68.84,0
64,66.22,68.79,0
64,66.18,68.74,0
64,66.13,68.69,0
64,66.09,68.65,0
64,66.05,68.60,0
64,66.01,68.55,0
64,65.97,68.51,0
64,65.93,68.46,0
64,65.89,68.42,0
62,65.81,68.36,0
64,65.78,68.31,0
65,65.76,68.28,0
64,65.73,68.24,0
62,65.65,68.17,0
64,65.62,68.13,0
63,65.57,68.08,0
64,65.53,68.04,0
64,65.50,68.00,0
64,65.47,67.96,0
62,65.40,67.90,0
62,65.34,67.84,0
62,65.27,67.78,0
62,65.20,67.72,0
62,65.14,67.67,0
64,65.12,67.63,0
62,65.06,67.57,0
63,65.01,67.53,0
63,64.97,67.48,0
62,64.91,67.43,0
64,64.90,67.39,0
64,64.88,67.36,0
62,64.82,67.31,0
62,64.76,67.25,0
64,64.75,67.22,0
63,64.71,67.18,0
62,64.66,67.13,0
64,64.65,67.10,0
64,64.63,67.06,0
64,64.62,67.03,0
62,64.57,66.98,0
61,64.50,66.92,0
64,64.49,66.89,0
64,64.48,66.87,0
62,64.43,66.82,0
62,64.38,66.77,0
62,64.33,66.72,0
64,64.33,66.69,0
62,64.28,66.65,0
62,64.23,66.60,0
63,64.21,66.56,0
63,64.18,66.53,0
62,64.14,66.48,0
63,64.12,66.45,0
64,64.12,66.42,0
64,64.11,66.40,0
62,64.07,66.36,0
62,64.03,66.31,0
62,63.99,66.27,0
62,63.95,66.23,0
62,63.91,66.18,0
62,63.87,66.14,0
63,63.85,66.11,0
62,63.82,66.07,0
62,63.78,66.03,0
64,63.79,66.01,0
63,63.77,65.98,0
62,63.73,65.94,0
65,63.76,65.93,0
62,63.72,65.89,0
62,63.69,65.85,0
63,63.68,65.82,0
61,63.62,65.77,0
62,63.59,65.74,0
62,63.56,65.70,0
63,63.55,65.67,0
61,63.50,65.63,0
62,63.47,65.59,0
62,63.44,65.55,0
62,63.41,65.52,0
64,63.42,65.50,0
61,63.37,65.46,0
63,63.36,65.43,0
62,63.34,65.40,0
61,63.29,65.36,0
61,63.24,65.31,0
61,63.20,65.27,0
62,63.18,65.24,0
64,63.19,65.22,0
62,63.17,65.19,0
61,63.12,65.15,0
62,63.10,65.12,0
64,63.12,65.11,0
60,63.06,65.06,0
60,63.00,65.00,0
61,62.96,64.96,0
60,62.90,64.92,0
60,62.84,64.87,0
60,62.78,64.82,0
61,62.75,64.78,0
60,62.69,64.73,0
60,62.64,64.68,0
62,62.63,64.66,0
65,62.67,64.66,0
63,62.68,64.64,0
61,62.65,64.61,0
62,62.63,64.58,0
61,62.60,64.55,0
61,62.57,64.51,0
62,62.56,64.49,0
60,62.51,64.44,0
64,62.54,64.44,0
60,62.49,64.39,0
60,62.44,64.35,0
62,62.43,64.32,0
61,62.40,64.29,0
62,62.39,64.27,0
60,62.34,64.23,0
60,62.30,64.18,0
59,62.23,64.13,0
62,62.23,64.11,0
62,62.22,64.09,0
62,62.22,64.07,0
63,62.23,64.06,0
63,62.25,64.05,0
62,62.24,64.03,0
61,62.22,64.00,0
60,62.17,63.96,0
60,62.13,63.92,0
60,62.09,63.88,0
59,62.03,63.83,0
61,62.00,63.80,0
60,61.96,63.76,0
60,61.93,63.72,0
60,61.89,63.69,0
60,61.85,63.65,0
60,61.81,63.61,0
62,61.82,63.60,0
60,61.78,63.56,0
59,61.72,63.52,0
59,61.67,63.47,0
60,61.64,63.44,0
62,61.64,63.42,0
59,61.59,63.38,0
60,61.56,63.34,0
60,61.53,63.31,0
60,61.50,63.28,0
59,61.45,63.23,0
58,61.38,63.18,0
60,61.35,63.15,0
60,61.32,63.12,0
59,61.28,63.08,0
60,61.25,63.05,0
60,61.23,63.02,0
58,61.16,62.97,0
59,61.12,62.93,0
60,61.10,62.90,0
58,61.03,62.85,0
60,61.01,62.82,0
60,60.99,62.79,0
60,60.97,62.76,0
60,60.95,62.74,0
60,60.94,62.71,0
60,60.92,62.68,0
58,60.86,62.64,0
59,60.82,62.60,0
60,60.80,62.57,0
60,60.79,62.55,0
59,60.75,62.51,0
60,60.74,62.49,0
60,60.72,62.46,0
60,60.71,62.44,0
60,60.69,62.41,0
60,60.68,62.39,0
60,60.67,62.36,0
60,60.65,62.34,0
61,60.66,62.33,0
60,60.65,62.30,0
60,60.63,62.28,0
60,60.62,62.26,0
60,60.61,62.24,0
60,60.60,62.21,0
59,60.56,62.18,0
59,60.53,62.15,0
60,60.52,62.13,0
58,60.47,62.09,0
57,60.40,62.04,0
60,60.40,62.02,0
60,60.39,62.00,0
60,60.38,61.98,0
60,60.37,61.96,0
61,60.38,61.95,0
60,60.38,61.93,0
60,60.37,61.91,0
62,60.40,61.91,0
61,60.41,61.90,0
60,60.41,61.88,0
60,60.40,61.86,0
58,60.35,61.82,0
60,60.34,61.80,0
60,60.34,61.79,0
60,60.33,61.77,0
61,60.34,61.76,0
60,60.34,61.74,0
60,60.33,61.73,0
60,60.32,61.71,0
58,60.28,61.67,0
60,60.27,61.65,0
60,60.26,61.64,0
59,60.24,61.61,0
60,60.23,61.60,0
59,60.21,61.57,0
59,60.19,61.54,0
60,60.18,61.53,0
58,60.14,61.49,0
60,60.14,61.48,0
59,60.11,61.45,0
59,60.09,61.43,0
61,60.11,61.42,0
60,60.11,61.41,0
58,60.06,61.38,0
60,60.06,61.36,0
58,60.02,61.33,0
60,60.02,61.32,0
58,59.98,61.28,0
58,59.94,61.25,0
58,59.90,61.22,0
59,59.88,61.20,0
58,59.85,61.16,0
58,59.81,61.13,0
60,59.81,61.12,0
58,59.78,61.09,0
58,59.74,61.06,0
58,59.71,61.03,0
54,59.59,60.96,0
59,59.58,60.94,0
58,59.55,60.91,0
58,59.52,60.88,0
58,59.49,60.85,0
58,59.46,60.82,0
58,59.43,60.79,0
58,59.40,60.77,0
58,59.37,60.74,0
58,59.35,60.71,0
56,59.28,60.66,0
58,59.25,60.64,0
58,59.23,60.61,0
57,59.18,60.57,0
58,59.16,60.55,0
58,59.14,60.52,0
56,59.07,60.48,0
59,59.07,60.46,0
58,59.05,60.44,0
58,59.03,60.41,0
57,58.99,60.38,0
58,58.97,60.36,0
58,58.95,60.33,0
57,58.91,60.30,0
56,58.85,60.26,0
57,58.82,60.22,0
56,58.76,60.18,0
56,58.70,60.14,0
57,58.67,60.11,0
56,58.62,60.07,0
56,58.56,60.03,0
58,58.55,60.01,0
57,58.52,59.98,0
58,58.51,59.96,0
58,58.50,59.94,0
58,58.49,59.92,0
57,58.46,59.89,0
57,58.43,59.86,0
58,58.42,59.84,0
56,58.38,59.80,0
57,58.35,59.77,0
57,58.32,59.75,0
57,58.29,59.72,0
58,58.29,59.70,0
58,58.28,59.69,0
57,58.26,59.66,0
58,58.25,59.64,0
57,58.23,59.62,0
56,58.18,59.58,0
60,58.22,59.58,0
58,58.21,59.57,0
56,58.17,59.53,0
57,58.15,59.51,0
56,58.10,59.47,0
57,58.08,59.45,0
57,58.06,59.42,0
56,58.02,59.39,0
59,58.04,59.38,0
57,58.02,59.36,0
56,57.98,59.33,0
57,57.96,59.30,0
57,57.94,59.28,0
57,57.92,59.26,0
56,57.88,59.23,0
56,57.84,59.19,0
56,57.81,59.16,0
57,57.79,59.14,0
58,57.79,59.13,0
56,57.76,59.10,0
56,57.72,59.07,0
56,57.69,59.04,0
56,57.66,59.00,0
56,57.62,58.97,0
57,57.61,58.95,0
58,57.62,58.95,0
58,57.63,58.94,0
58,57.63,58.93,0
59,57.66,58.93,0
57,57.65,58.91,0
58,57.65,58.90,0
58,57.66,58.89,0
60,57.71,58.90,0
58,57.71,58.89,0
58,57.72,58.88,0
58,57.73,58.87,0
57,57.71,58.86,0
58,57.72,58.85,0
58,57.72,58.84,0
60,57.77,58.85,0
59,57.79,58.85,0
59,57.82,58.85,0
60,57.86,58.86,0
60,57.90,58.88,0
60,57.94,58.89,0
59,57.97,58.89,0
58,57.97,58.88,0
60,58.01,58.89,0
59,58.03,58.89,0
60,58.07,58.90,0
64,58.19,58.95,0
58,58.18,58.94,0
59,58.20,58.94,0
58,58.19,58.94,0
58,58.19,58.93,0
60,58.23,58.94,0
58,58.22,58.93,0
58,58.22,58.92,0
58,58.21,58.91,0
58,58.21,58.90,0
58,58.20,58.89,0
58,58.20,58.88,0
58,58.20,58.87,0
58,58.19,58.86,0
58,58.19,58.86,0
58,58.18,58.85,0
55,58.12,58.81,0
58,58.12,58.80,0
59,58.14,58.80,0
60,58.17,58.81,0
58,58.17,58.81,0
58,58.17,58.80,0
58,58.16,58.79,0
60,58.20,58.80,0
60,58.24,58.81,0
60,58.27,58.83,0
58,58.27,58.82,0
60,58.30,58.83,0
58,58.29,58.82,0
60,58.33,58.83,0
60,58.36,58.85,0
60,58.39,58.86,0
57,58.37,58.84,0
57,58.34,58.82,0
58,58.33,58.81,0
61,58.39,58.83,0
60,58.42,58.85,0
59,58.43,58.85,0
60,58.46,58.86,0
67,58.63,58.94,0
60,58.66,58.95,0
60,58.69,58.96,0
59,58.69,58.96,0
60,58.72,58.97,0
60,58.74,58.98,0
60,58.77,58.99,0
62,58.83,59.02,0
60,58.86,59.03,0
59,58.86,59.03,0
59,58.86,59.03,0
61,58.91,59.05,0
60,58.93,59.06,0
60,58.95,59.07,0
60,58.97,59.08,0
61,59.01,59.10,0
60,59.03,59.11,0
59,59.03,59.11,0
59,59.03,59.11,0
60,59.05,59.11,0
59,59.05,59.11,0
60,59.07,59.12,0
59,59.07,59.12,0
59,59.06,59.12,0
60,59.08,59.13,0
58,59.06,59.12,0
60,59.08,59.13,0
60,59.10,59.13,0
60,59.12,59.14,0
59,59.11,59.14,0
59,59.11,59.14,0
59,59.11,59.14,0
60,59.13,59.15,0
60,59.14,59.16,0
58,59.12,59.14,0
60,59.14,59.15,0
58,59.12,59.14,0
60,59.13,59.15,0
58,59.11,59.14,0
60,59.13,59.15,0
62,59.19,59.18,0
60,59.20,59.18,0
60,59.22,59.19,0
60,59.23,59.20,0
63,59.31,59.24,0
60,59.32,59.25,0
60,59.34,59.25,0
61,59.37,59.27,0
60,59.38,59.28,0
60,59.40,59.29,0
60,59.41,59.29,0
60,59.42,59.30,0
61,59.45,59.32,0
58,59.42,59.30,0
60,59.43,59.31,0
60,59.45,59.32,0
60,59.46,59.32,0
60,59.47,59.33,0
60,59.48,59.34,0
61,59.51,59.35,0
60,59.52,59.36,0
58,59.49,59.35,0
60,59.50,59.35,0
59,59.49,59.35,0
59,59.48,59.35,0
58,59.45,59.33,0
62,59.50,59.36,0
62,59.55,59.39,0
63,59.62,59.42,0
62,59.67,59.45,0
62,59.71,59.47,0
65,59.82,59.53,0
66,59.94,59.59,0
62,59.98,59.62,0
62,60.02,59.64,0
62,60.06,59.66,0
62,60.10,59.69,0
64,60.18,59.73,0
62,60.22,59.75,0
61,60.23,59.77,0
62,60.27,59.79,0
63,60.32,59.82,0
62,60.36,59.84,0
62,60.39,59.86,0
62,60.42,59.89,0
61,60.43,59.90,0
62,60.46,59.92,0
64,60.53,59.96,0
62,60.56,59.98,0
60,60.55,59.98,0
61,60.56,59.99,0
60,60.55,59.99,0
59,60.52,59.98,0
62,60.55,60.00,0
62,60.58,60.02,0
62,60.61,60.04,0
64,60.67,60.08,0
62,60.70,60.10,0
61,60.71,60.11,0
62,60.73,60.13,0
60,60.72,60.13,0
62,60.74,60.14,0
63,60.79,60.17,0
64,60.85,60.21,0
63,60.90,60.24,0
62,60.92,60.26,0
63,60.96,60.28,0
65,61.04,60.33,0
65,61.12,60.38,0
63,61.16,60.40,0
62,61.17,60.42,0
62,61.19,60.44,0
64,61.25,60.47,0
64,61.30,60.51,0
65,61.38,60.55,0
67,61.49,60.62,0
63,61.52,60.64,0
68,61.65,60.71,0
74,61.90,60.85,0
69,62.04,60.93,0
66,62.12,60.98,0
67,62.21,61.04,0
70,62.37,61.13,0
69,62.50,61.21,0
68,62.61,61.28,0
68,62.72,61.34,0
68,62.83,61.41,0
67,62.91,61.46,0
68,63.01,61.53,0
68,63.11,61.59,0
71,63.27,61.69,0
69,63.38,61.76,0
68,63.48,61.82,0
68,63.57,61.89,0
70,63.69,61.97,0
73,63.88,62.08,0
71,64.02,62.17,0
72,64.18,62.27,0
68,64.26,62.32,0
71,64.39,62.41,0
72,64.55,62.51,0
68,64.62,62.56,0
70,64.72,62.63,0
70,64.83,62.71,0
68,64.89,62.76,0
68,64.95,62.81,0
68,65.01,62.87,0
70,65.11,62.94,0
68,65.17,62.99,0
70,65.27,63.06,0
70,65.36,63.13,0
70,65.46,63.20,0
70,65.55,63.26,0
70,65.64,63.33,0
76,65.84,63.46,0
76,66.05,63.58,0
74,66.21,63.69,0
78,66.44,63.83,0
78,66.67,63.97,0
75,66.84,64.08,0
74,66.98,64.18,0
74,67.12,64.28,0
72,67.22,64.36,0
76,67.40,64.47,0
78,67.61,64.61,0
74,67.74,64.70,0
74,67.86,64.80,0
74,67.98,64.89,0
75,68.12,64.99,0
76,68.28,65.10,0
79,68.50,65.24,0
81,68.75,65.40,0
82,69.01,65.56,0
80,69.23,65.71,0
76,69.37,65.81,0
78,69.54,65.93,0
78,69.71,66.05,0
78,69.87,66.17,0
82,70.12,66.33,0
81,70.33,66.48,0
82,70.57,66.63,0
81,70.78,66.77,0
79,70.94,66.90,0
79,71.10,67.02,0
80,71.28,67.15,0
81,71.47,67.29,0
81,71.66,67.42,0
80,71.83,67.55,0
82,72.03,67.69,0
79,72.17,67.81,0
79,72.31,67.92,0
81,72.48,68.05,0
80,72.63,68.17,0
79,72.76,68.28,0
80,72.91,68.39,0
82,73.09,68.53,0
84,73.31,68.69,0
80,73.44,68.80,0
80,73.57,68.91,0
85,73.80,69.07,0
82,73.96,69.20,0
82,74.13,69.33,0
82,74.28,69.46,0
84,74.48,69.60,0
84,74.67,69.74,0
82,74.81,69.87,0
82,74.96,69.99,0
87,75.20,70.16,0
85,75.39,70.31,0
85,75.59,70.45,0
84,75.76,70.59,0
86,75.96,70.74,0
87,76.18,70.91,0
84,76.34,71.04,0
84,76.49,71.17,0
82,76.60,71.28,0
85,76.77,71.41,0
86,76.95,71.56,0
88,77.17,71.72,0
92,77.47,71.93,0
90,77.72,72.11,0
87,77.91,72.26,0
85,78.05,72.38,0
89,78.27,72.55,0
89,78.48,72.71,0
86,78.63,72.85,0
90,78.86,73.02,0
89,79.06,73.18,0
87,79.22,73.32,0
86,79.36,73.44,0
90,79.57,73.61,0
87,79.72,73.74,0
95,80.02,73.95,0
98,80.38,74.20,0
96,80.70,74.41,0
92,80.92,74.59,0
94,81.18,74.78,0
94,81.44,74.98,0
94,81.69,75.17,0
93,81.92,75.34,0
91,82.10,75.50,0
94,82.34,75.69,0
94,82.57,75.87,0
93,82.78,76.04,0
99,83.10,76.27,0
104,83.52,76.55,0
97,83.79,76.75,0
98,84.08,76.96,0
96,84.31,77.15,0
95,84.53,77.33,0
102,84.88,77.58,0
101,85.20,77.81,0
97,85.44,78.01,0
100,85.73,78.23,0
101,86.03,78.45,0
101,86.33,78.68,0
102,86.64,78.91,0
97,86.85,79.09,0
97,87.05,79.27,0
98,87.27,79.46,0
99,87.51,79.65,0
97,87.70,79.83,0
98,87.90,80.01,0
100,88.15,80.21,0
99,88.36,80.40,0
105,88.70,80.64,0
106,89.04,80.90,0
102,89.30,81.11,0
99,89.50,81.29,0
99,89.69,81.46,0
99,89.87,81.64,0
98,90.03,81.80,0
101,90.25,82.00,0
103,90.51,82.21,0
102,90.74,82.40,0
101,90.94,82.59,0
100,91.12,82.76,0
99,91.28,82.93,0
99,91.44,83.09,0
101,91.63,83.27,0
102,91.84,83.45,0
99,91.98,83.61,0
99,92.12,83.76,0
99,92.26,83.91,0
100,92.41,84.08,0
98,92.52,84.21,0
102,92.71,84.39,0
105,92.96,84.60,0
103,93.16,84.78,0
108,93.46,85.01,0
111,93.81,85.27,0
117,94.27,85.59,0
119,94.77,85.93,0
109,95.05,86.16,0
113,95.41,86.43,0
113,95.76,86.69,0
113,96.11,86.95,0
117,96.52,87.25,0
117,96.93,87.55,0
116,97.31,87.84,0
116,97.69,88.12,0
111,97.95,88.35,0
117,98.34,88.63,0
117,98.71,88.92,0
115,99.03,89.18,0
117,99.39,89.46,0
118,99.77,89.74,0
116,100.09,90.00,0
114,100.37,90.24,0
115,100.66,90.49,0
114,100.93,90.73,0
113,101.17,90.95,0
112,101.39,91.16,0
117,101.70,91.42,0
113,101.92,91.63,0
115,102.19,91.87,0
116,102.46,92.11,0
114,102.69,92.33,0
112,102.88,92.52,0
118,103.18,92.78,0
118,103.48,93.03,0
114,103.69,93.24,0
114,103.89,93.45,0
116,104.14,93.67,0
117,104.39,93.91,0
116,104.63,94.13,0
115,104.83,94.34,0
119,105.12,94.58,0
114,105.29,94.78,0
115,105.49,94.98,0
116,105.70,95.19,0
117,105.93,95.41,0
114,106.09,95.59,0
118,106.32,95.82,0
116,106.52,96.02,0
118,106.75,96.24,0
116,106.93,96.44,0
127,107.33,96.74,0
119,107.57,96.97,0
123,107.88,97.23,0
120,108.12,97.45,0
120,108.36,97.68,0
118,108.55,97.88,0
118,108.74,98.08,0
117,108.90,98.27,0
122,109.17,98.51,0
118,109.34,98.71,0
118,109.52,98.90,0
120,109.72,99.11,0
120,109.93,99.32,0
118,110.09,99.51,0
119,110.27,99.70,0
126,110.58,99.96,0
129,110.95,100.25,0
124,111.21,100.49,0
124,111.47,100.73,0
125,111.74,100.97,0
126,112.03,101.22,0
125,112.28,101.46,0
126,112.56,101.70,0
123,112.77,101.92,0
122,112.95,102.12,0
123,113.15,102.32,0
124,113.37,102.54,0
124,113.58,102.76,0
125,113.81,102.98,0
125,114.04,103.20,0
128,114.31,103.45,0
128,114.59,103.69,0
127,114.84,103.93,0
126,115.06,104.15,0
126,115.28,104.36,0
125,115.47,104.57,0
124,115.64,104.77,0
128,115.89,105.00,0
129,116.15,105.24,0
127,116.37,105.46,0
128,116.60,105.68,0
129,116.85,105.91,0
128,117.07,106.13,0
126,117.25,106.33,0
125,117.41,106.52,0
125,117.56,106.71,0
126,117.73,106.90,0
127,117.91,107.10,0
127,118.09,107.30,0
125,118.23,107.48,0
127,118.41,107.67,0
125,118.54,107.84,0
126,118.69,108.03,0
125,118.82,108.19,0
125,118.94,108.36,0
125,119.06,108.53,0
124,119.16,108.68,0
127,119.32,108.87,0
127,119.47,109.05,0
124,119.56,109.20,0
123,119.63,109.34,0
125,119.74,109.49,0
128,119.90,109.68,0
127,120.04,109.85,0
126,120.16,110.01,0
125,120.26,110.16,0
123,120.31,110.29,0
125,120.41,110.44,0
123,120.46,110.56,0
125,120.55,110.71,0
124,120.62,110.84,0
123,120.67,110.96,0
124,120.73,111.09,0
127,120.86,111.25,0
124,120.92,111.38,0
124,120.98,111.51,0
124,121.04,111.63,0
123,121.08,111.74,0
123,121.12,111.86,0
123,121.16,111.97,0
124,121.22,112.09,0
123,121.25,112.20,0
123,121.29,112.31,0
123,121.32,112.41,0
123,121.35,112.52,0
121,121.35,112.60,0
121,121.34,112.69,0
123,121.37,112.79,0
123,121.41,112.89,0
123,121.44,112.99,0
121,121.43,113.07,0
121,121.42,113.15,0
123,121.45,113.25,0
121,121.44,113.33,0
121,121.43,113.41,0
121,121.43,113.48,0
121,121.42,113.56,0
121,121.41,113.63,0
120,121.38,113.69,0
121,121.37,113.77,0
120,121.35,113.83,0
121,121.34,113.90,0
121,121.33,113.97,0
119,121.29,114.02,0
120,121.26,114.08,0
121,121.25,114.15,0
121,121.25,114.22,0
119,121.20,114.27,0
119,121.16,114.32,0
119,121.12,114.36,0
119,121.07,114.41,0
118,121.01,114.44,0
119,120.97,114.49,0
120,120.95,114.55,0
117,120.87,114.57,0
117,120.80,114.59,0
119,120.76,114.64,0
118,120.71,114.67,0
117,120.63,114.70,0
117,120.56,114.72,0
118,120.51,114.75,0
117,120.44,114.77,0
117,120.37,114.80,0
119,120.34,114.84,0
117,120.27,114.86,0
118,120.23,114.89,0
118,120.18,114.92,0
116,120.10,114.93,0
116,120.02,114.94,0
117,119.96,114.96,0
117,119.90,114.98,0
117,119.84,115.00,0
115,119.74,115.00,0
117,119.69,115.02,0
115,119.60,115.02,0
115,119.50,115.02,0
115,119.41,115.02,0
116,119.35,115.03,0
115,119.26,115.03,0
115,119.17,115.03,0
113,119.05,115.01,0
114,118.95,115.00,0
116,118.89,115.01,0
114,118.79,115.00,0
114,118.70,114.99,0
113,118.58,114.97,0
113,118.47,114.95,0
113,118.36,114.93,0
116,118.31,114.94,0
115,118.25,114.94,0
114,118.16,114.93,0
113,118.06,114.92,0
114,117.98,114.91,0
115,117.92,114.91,0
115,117.86,114.91,0
113,117.76,114.89,0
113,117.67,114.87,0
113,117.57,114.85,0
113,117.48,114.83,0
111,117.35,114.79,0
113,117.27,114.78,0
113,117.18,114.76,0
112,117.08,114.73,0
113,117.00,114.71,0
111,116.88,114.68,0
111,116.76,114.64,0
112,116.66,114.61,0
111,116.55,114.58,0
111,116.44,114.54,0
111,116.33,114.51,0
111,116.22,114.47,0
111,116.12,114.44,0
109,115.98,114.38,0
112,115.90,114.36,0
111,115.80,114.32,0
110,115.68,114.28,0
109,115.55,114.23,0
111,115.46,114.20,0
107,115.29,114.12,0
109,115.16,114.07,0
109,115.04,114.02,0
109,114.92,113.97,0
109,114.80,113.92,0
110,114.71,113.88,0
110,114.61,113.84,0
109,114.50,113.80,0
111,114.43,113.77,0
109,114.32,113.72,0
108,114.19,113.66,0
109,114.09,113.62,0
108,113.97,113.56,0
109,113.87,113.51,0
108,113.75,113.46,0
108,113.64,113.41,0
107,113.50,113.34,0
109,113.41,113.30,0
107,113.29,113.23,0
108,113.18,113.18,0
108,113.08,113.13,0
108,112.97,113.08,0
108,112.88,113.03,0
107,112.76,112.97,0
107,112.64,112.91,0
107,112.53,112.85,0
105,112.38,112.77,0
107,112.27,112.71,0
107,112.17,112.66,0
107,112.06,112.60,0
106,111.94,112.53,0
105,111.80,112.46,0
105,111.67,112.38,0
105,111.53,112.31,0
105,111.40,112.24,0
106,111.29,112.17,0
105,111.17,112.10,0
105,111.05,112.03,0
105,110.92,111.96,0
105,110.81,111.89,0
105,110.69,111.82,0
104,110.56,111.74,0
104,110.42,111.67,0
104,110.30,111.59,0
104,110.17,111.51,0
104,110.05,111.44,0
104,109.93,111.36,0
103,109.79,111.28,0
102,109.63,111.19,0
103,109.50,111.11,0
103,109.37,111.03,0
104,109.26,110.96,0
103,109.14,110.88,0
102,108.99,110.79,0
103,108.87,110.71,0
100,108.70,110.60,0
101,108.54,110.51,0
103,108.43,110.43,0
101,108.28,110.34,0
101,108.14,110.24,0
103,108.03,110.17,0
101,107.89,110.08,0
102,107.78,110.00,0
101,107.64,109.91,0
101,107.51,109.82,0
101,107.38,109.73,0
102,107.27,109.65,0
101,107.14,109.57,0
101,107.02,109.48,0
100,106.88,109.39,0
101,106.76,109.30,0
99,106.61,109.20,0
99,106.46,109.10,0
99,106.31,109.00,0
100,106.18,108.91,0
100,106.06,108.82,0
100,105.94,108.73,0
100,105.82,108.64,0
99,105.68,108.55,0
99,105.55,108.45,0
98,105.40,108.35,0
98,105.25,108.24,0
98,105.10,108.14,0
98,104.96,108.04,0
99,104.84,107.95,0
98,104.71,107.85,0
97,104.55,107.74,0
97,104.40,107.63,0
98,104.27,107.54,0
98,104.15,107.44,0
98,104.02,107.35,0
96,103.86,107.23,0
97,103.73,107.13,0
98,103.61,107.04,0
96,103.46,106.93,0
97,103.33,106.83,0
98,103.22,106.74,0
98,103.12,106.65,0
97,103.00,106.56,0
96,102.86,106.45,0
96,102.72,106.35,0
96,102.59,106.24,0
96,102.45,106.14,0
96,102.32,106.04,0
95,102.18,105.93,0
95,102.03,105.82,0
95,101.89,105.71,0
98,101.82,105.64,0
95,101.68,105.53,0
95,101.55,105.42,0
95,101.42,105.32,0
96,101.31,105.23,0
96,101.20,105.13,0
96,101.10,105.04,0
94,100.95,104.93,0
94,100.82,104.82,0
96,100.72,104.73,0
96,100.62,104.65,0
95,100.51,104.55,0
93,100.36,104.44,0
95,100.26,104.34,0
94,100.13,104.24,0
94,100.01,104.14,0
95,99.91,104.04,0
94,99.79,103.94,0
95,99.69,103.85,0
94,99.58,103.76,0
94,99.47,103.66,0
96,99.40,103.58,0
94,99.29,103.49,0
93,99.16,103.38,0
93,99.04,103.28,0
93,98.92,103.17,0
95,98.84,103.09,0
95,98.77,103.01,0
94,98.67,102.92,0
95,98.60,102.84,0
95,98.52,102.76,0
94,98.43,102.68,0
93,98.33,102.58,0
93,98.22,102.48,0
93,98.11,102.39,0
93,98.01,102.29,0
92,97.89,102.19,0
93,97.79,102.10,0
93,97.70,102.01,0
93,97.60,101.92,0
93,97.51,101.83,0
93,97.42,101.74,0
92,97.31,101.64,0
92,97.21,101.55,0
94,97.14,101.47,0
92,97.04,101.38,0
94,96.98,101.30,0
92,96.88,101.21,0
91,96.76,101.11,0
92,96.67,101.02,0
92,96.57,100.93,0
92,96.48,100.84,0
91,96.37,100.74,0
92,96.29,100.65,0
94,96.24,100.59,0
91,96.13,100.49,0
93,96.07,100.41,0
92,95.99,100.33,0
91,95.89,100.24,0
92,95.81,100.16,0
91,95.72,100.06,0
91,95.62,99.97,0
90,95.51,99.87,0
92,95.44,99.79,0
91,95.35,99.71,0
90,95.24,99.61,0
90,95.14,99.51,0
90,95.04,99.42,0
94,95.02,99.36,0
90,94.92,99.27,0
90,94.82,99.18,0
89,94.70,99.08,0
90,94.61,98.99,0
90,94.51,98.90,0
90,94.42,98.81,0
92,94.38,98.74,0
90,94.29,98.65,0
90,94.20,98.56,0
90,94.12,98.48,0
90,94.04,98.39,0
89,93.94,98.30,0
90,93.86,98.22,0
88,93.74,98.11,0
90,93.66,98.03,0
90,93.59,97.95,0
88,93.48,97.85,0
88,93.37,97.76,0
89,93.28,97.67,0
88,93.18,97.57,0
90,93.11,97.50,0
89,93.03,97.41,0
88,92.93,97.32,0
90,92.87,97.24,0
88,92.77,97.15,0
89,92.70,97.07,0
87,92.58,96.97,0
88,92.49,96.88,0
87,92.38,96.78,0
88,92.30,96.69,0
88,92.21,96.61,0
88,92.13,96.52,0
90,92.08,96.45,0
87,91.98,96.36,0
86,91.86,96.26,0
86,91.74,96.15,0
91,91.73,96.10,0
88,91.66,96.02,0
87,91.56,95.93,0
85,91.43,95.82,0
89,91.38,95.75,0
87,91.29,95.67,0
86,91.19,95.57,0
86,91.08,95.47,0
89,91.04,95.41,0
87,90.96,95.32,0
86,90.86,95.23,0
86,90.77,95.14,0
85,90.65,95.04,0
86,90.56,94.95,0
86,90.47,94.86,0
86,90.38,94.77,0
85,90.27,94.67,0
86,90.18,94.58,0
85,90.08,94.49,0
85,89.98,94.39,0
85,89.88,94.30,0
85,89.78,94.21,0
87,89.73,94.13,0
86,89.65,94.05,0
87,89.60,93.98,0
86,89.53,93.90,0
86,89.46,93.82,0
86,89.39,93.75,0
85,89.30,93.66,0
86,89.23,93.58,0
85,89.15,93.50,0
84,89.05,93.40,0
85,88.96,93.32,0
86,88.91,93.24,0
86,88.85,93.17,0
84,88.75,93.08,0
84,88.66,92.99,0
85,88.58,92.91,0
84,88.49,92.82,0
86,88.44,92.75,0
85,88.37,92.67,0
86,88.32,92.61,0
84,88.24,92.52,0
85,88.17,92.45,0
85,88.11,92.37,0
84,88.03,92.29,0
84,87.95,92.21,0
84,87.87,92.12,0
85,87.81,92.05,0
84,87.73,91.97,0
84,87.66,91.89,0
84,87.59,91.81,0
83,87.49,91.72,0
84,87.42,91.65,0
84,87.36,91.57,0
86,87.33,91.52,0
83,87.24,91.43,0
82,87.14,91.34,0
84,87.08,91.26,0
82,86.97,91.17,0
84,86.91,91.10,0
84,86.86,91.03,0
85,86.82,90.97,0
84,86.76,90.90,0
83,86.69,90.82,0
82,86.59,90.73,0
82,86.50,90.64,0
82,86.41,90.56,0
84,86.36,90.49,0
84,86.32,90.43,0
82,86.23,90.34,0
84,86.19,90.28,0
83,86.12,90.21,0
82,86.04,90.12,0
82,85.96,90.04,0
83,85.90,89.97,0
82,85.82,89.89,0
84,85.78,89.83,0
82,85.71,89.75,0
82,85.63,89.68,0
82,85.56,89.60,0
82,85.49,89.52,0
83,85.44,89.46,0
82,85.37,89.38,0
82,85.30,89.31,0
82,85.24,89.24,0
81,85.15,89.16,0
81,85.07,89.07,0
82,85.01,89.00,0
81,84.93,88.92,0
82,84.87,88.85,0
81,84.79,88.78,0
82,84.74,88.71,0
81,84.66,88.63,0
82,84.61,88.56,0
81,84.54,88.49,0
81,84.47,88.41,0
81,84.40,88.34,0
81,84.33,88.27,0
81,84.26,88.19,0
80,84.18,88.11,0
80,84.09,88.03,0
79,83.99,87.94,0
81,83.93,87.87,0
83,83.91,87.82,0
83,83.90,87.77,0
80,83.82,87.70,0
80,83.74,87.62,0
81,83.69,87.55,0
80,83.61,87.48,0
79,83.52,87.39,0
79,83.43,87.31,0
81,83.38,87.25,0
79,83.29,87.16,0
79,83.21,87.08,0
79,83.12,87.00,0
80,83.06,86.93,0
79,82.98,86.85,0
79,82.90,86.77,0
78,82.80,86.68,0
79,82.73,86.61,0
79,82.65,86.53,0
78,82.56,86.45,0
78,82.47,86.36,0
79,82.40,86.29,0
78,82.31,86.21,0
75,82.16,86.09,0
78,82.08,86.01,0
77,81.98,85.92,0
77,81.88,85.83,0
78,81.80,85.76,0
78,81.73,85.68,0
78,81.65,85.60,0
78,81.58,85.52,0
78,81.51,85.45,0
78,81.44,85.37,0
77,81.35,85.29,0
78,81.28,85.22,0
78,81.22,85.15,0
78,81.15,85.07,0
77,81.07,84.99,0
78,81.01,84.92,0
76,80.91,84.83,0
78,80.85,84.77,0
77,80.77,84.69,0
76,80.68,84.60,0
76,80.58,84.52,0
76,80.49,84.43,0
77,80.42,84.36,0
76,80.33,84.27,0
76,80.25,84.19,0
76,80.16,84.11,0
76,80.08,84.03,0
76,80.00,83.95,0
78,79.96,83.89,0
76,79.88,83.81,0
77,79.82,83.74,0
76,79.74,83.66,0
76,79.67,83.59,0
76,79.59,83.51,0
75,79.50,83.43,0
76,79.43,83.35,0
76,79.36,83.28,0
76,79.30,83.20,0
75,79.21,83.12,0
76,79.15,83.05,0
76,79.08,82.98,0
76,79.02,82.91,0
75,78.94,82.83,0
75,78.86,82.75,0
74,78.77,82.67,0
74,78.67,82.58,0
74,78.58,82.49,0
74,78.49,82.41,0
74,78.40,82.32,0
74,78.31,82.24,0
75,78.24,82.17,0
76,78.20,82.11,0
74,78.11,82.03,0
75,78.05,81.96,0
75,77.99,81.89,0
74,77.91,81.81,0
74,77.83,81.73,0
74,77.76,81.65,0
74,77.68,81.58,0
74,77.61,81.50,0
74,77.53,81.43,0
74,77.46,81.35,0
74,77.39,81.28,0
73,77.31,81.19,0
74,77.24,81.12,0
73,77.16,81.04,0
75,77.11,80.98,0
74,77.05,80.91,0
74,76.99,80.84,0
73,76.91,80.76,0
74,76.85,80.70,0
73,76.77,80.62,0
73,76.70,80.54,0
73,76.62,80.47,0
73,76.55,80.39,0
72,76.46,80.31,0
73,76.39,80.24,0
73,76.32,80.16,0
73,76.26,80.09,0
72,76.17,80.01,0
72,76.09,79.93,0
72,76.01,79.85,0
72,75.93,79.77,0
73,75.87,79.71,0
72,75.79,79.63,0
72,75.72,79.55,0
72,75.64,79.48,0
72,75.57,79.40,0
72,75.50,79.33,0
72,75.43,79.25,0
72,75.36,79.18,0
73,75.31,79.12,0
71,75.23,79.04,0
72,75.16,78.97,0
71,75.08,78.89,0
72,75.02,78.82,0
70,74.92,78.73,0
70,74.82,78.64,0
72,74.76,78.58,0
74,74.75,78.53,0
70,74.65,78.45,0
70,74.56,78.36,0
70,74.47,78.28,0
71,74.40,78.21,0
70,74.31,78.12,0
71,74.24,78.05,0
70,74.16,77.97,0
67,74.02,77.86,0
70,73.93,77.78,0
70,73.86,77.71,0
70,73.78,77.63,0
70,73.70,77.55,0
70,73.63,77.48,0
70,73.56,77.40,0
71,73.51,77.34,0
70,73.44,77.26,0
70,73.37,77.19,0
69,73.28,77.11,0
71,73.23,77.05,0
70,73.17,76.98,0
70,73.11,76.91,0
71,73.06,76.85,0
70,73.00,76.78,0
70,72.94,76.71,0
69,72.86,76.64,0
70,72.81,76.57,0
70,72.75,76.50,0
70,72.70,76.44,0
70,72.64,76.37,0
68,72.55,76.29,0
69,72.48,76.22,0
68,72.39,76.14,0
68,72.30,76.05,0
70,72.25,75.99,0
70,72.21,75.93,0
70,72.16,75.87,0
70,72.12,75.82,0
70,72.08,75.76,0
69,72.02,75.69,0
70,71.98,75.63,0
68,71.90,75.56,0
68,71.82,75.48,0
69,71.76,75.42,0
70,71.73,75.36,0
69,71.67,75.30,0
68,71.60,75.23,0
69,71.55,75.16,0
70,71.52,75.11,0
68,71.45,75.04,0
68,71.38,74.97,0
68,71.31,74.90,0
70,71.28,74.85,0
70,71.26,74.80,0
68,71.19,74.74,0
68,71.13,74.67,0
71,71.13,74.63,0
68,71.06,74.56,0
68,71.00,74.50,0
68,70.94,74.43,0
68,70.88,74.37,0
68,70.83,74.31,0
68,70.77,74.24,0
68,70.71,74.18,0
70,70.70,74.14,0
68,70.65,74.08,0
68,70.59,74.02,0
68,70.54,73.96,0
68,70.49,73.90,0
68,70.44,73.84,0
67,70.37,73.77,0
67,70.30,73.70,0
69,70.28,73.65,0
68,70.23,73.60,0
68,70.19,73.54,0
68,70.14,73.49,0
68,70.10,73.43,0
68,70.06,73.38,0
67,70.00,73.31,0
68,69.96,73.26,0
67,69.90,73.20,0
66,69.82,73.13,0
66,69.74,73.06,0
66,69.67,72.98,0
66,69.60,72.91,0
66,69.52,72.85,0
67,69.47,72.79,0
68,69.44,72.74,0
66,69.38,72.67,0
66,69.31,72.61,0
67,69.26,72.55,0
67,69.22,72.49,0
68,69.19,72.45,0
66,69.13,72.38,0
66,69.07,72.32,0
68,69.04,72.28,0
69,69.04,72.24,0
66,68.98,72.18,0
66,68.92,72.12,0
67,68.88,72.07,0
66,68.83,72.01,0
66,68.77,71.95,0
66,68.72,71.89,0
66,68.66,71.83,0
66,68.61,71.77,0
66,68.56,71.71,0
66,68.50,71.66,0
68,68.49,71.62,0
66,68.44,71.56,0
66,68.40,71.51,0
66,68.35,71.45,0
67,68.32,71.41,0
65,68.25,71.34,0
66,68.21,71.29,0
64,68.12,71.22,0
69,68.14,71.20,0
65,68.08,71.13,0
64,68.00,71.06,0
65,67.94,71.00,0
66,67.90,70.95,0
66,67.86,70.90,0
66,67.82,70.85,0
66,67.79,70.80,0
65,67.73,70.75,0
64,67.66,70.68,0
64,67.58,70.61,0
64,67.51,70.55,0
65,67.46,70.49,0
64,67.39,70.43,0
64,67.33,70.36,0
64,67.26,70.30,0
64,67.19,70.24,0
63,67.11,70.16,0
64,67.05,70.10,0
64,66.99,70.04,0
65,66.95,69.99,0
64,66.89,69.93,0
64,66.83,69.87,0
64,66.77,69.81,0
64,66.72,69.75,0
66,66.70,69.72,0
64,66.65,69.66,0
64,66.60,69.60,0
64,66.54,69.55,0
63,66.47,69.48,0
64,66.42,69.43,0
63,66.36,69.36,0
63,66.29,69.30,0
63,66.22,69.24,0
64,66.18,69.18,0
64,66.13,69.13,0
65,66.11,69.09,0
63,66.05,69.03,0
64,66.01,68.98,0
62,65.93,68.91,0
62,65.85,68.84,0
64,65.81,68.79,0
64,65.78,68.74,0
64,65.74,68.70,0
63,65.69,68.64,0
63,65.63,68.58,0
63,65.58,68.53,0
64,65.55,68.48,0
64,65.52,68.44,0
64,65.49,68.39,0
62,65.42,68.33,0
64,65.39,68.29,0
63,65.34,68.23,0
65,65.33,68.20,0
64,65.31,68.16,0
63,65.26,68.11,0
62,65.20,68.05,0
64,65.17,68.00,0
64,65.15,67.96,0
63,65.11,67.92,0
62,65.04,67.86,0
62,64.98,67.80,0
64,64.96,67.76,0
62,64.90,67.70,0
62,64.85,67.64,0
64,64.83,67.61,0
62,64.77,67.55,0
62,64.72,67.50,0
63,64.68,67.45,0
64,64.67,67.42,0
62,64.62,67.36,0
62,64.56,67.31,0
63,64.53,67.27,0
62,64.48,67.21,0
62,64.43,67.16,0
62,64.38,67.11,0
63,64.36,67.07,0
62,64.31,67.02,0
62,64.26,66.97,0
62,64.22,66.92,0
61,64.15,66.86,0
61,64.09,66.80,0
62,64.05,66.75,0
62,64.01,66.71,0
61,63.95,66.65,0
63,63.93,66.61,0
62,63.89,66.57,0
60,63.81,66.50,0
61,63.76,66.44,0
61,63.70,66.39,0
62,63.67,66.35,0
62,63.63,66.30,0
61,63.58,66.25,0
60,63.51,66.19,0
61,63.46,66.14,0
60,63.39,66.07,0
61,63.34,66.02,0
61,63.29,65.97,0
60,63.23,65.91,0
60,63.16,65.85,0
61,63.12,65.81,0
62,63.10,65.77,0
62,63.08,65.73,0
62,63.06,65.69,0
62,63.03,65.66,0
62,63.01,65.62,0
62,62.99,65.58,0
62,62.97,65.55,0
62,62.95,65.51,0
60,62.89,65.46,0
60,62.84,65.40,0
62,62.82,65.37,0
63,62.82,65.34,0
63,62.83,65.32,0
62,62.81,65.29,0
65,62.85,65.28,0
62,62.84,65.25,0
60,62.78,65.20,0
62,62.76,65.17,0
62,62.75,65.14,0
61,62.71,65.09,0
63,62.72,65.07,0
60,62.67,65.02,0
62,62.65,64.99,0
61,62.62,64.95,0
60,62.57,64.90,0
60,62.52,64.85,0
60,62.47,64.81,0
60,62.42,64.76,0
62,62.41,64.73,0
60,62.36,64.68,0
60,62.31,64.64,0
60,62.27,64.59,0
60,62.22,64.54,0
60,62.18,64.50,0
61,62.15,64.46,0
60,62.11,64.42,0
60,62.07,64.37,0
62,62.07,64.35,0
61,62.05,64.32,0
61,62.02,64.28,0
60,61.98,64.24,0
60,61.94,64.20,0
60,61.91,64.16,0
60,61.87,64.12,0
64,61.91,64.11,0
60,61.87,64.07,0
60,61.83,64.03,0
60,61.80,63.99,0
60,61.76,63.95,0
60,61.73,63.91,0
60,61.69,63.87,0
61,61.68,63.84,0
59,61.62,63.80,0
60,61.59,63.76,0
60,61.56,63.72,0
62,61.57,63.70,0
61,61.56,63.68,0
58,61.49,63.62,0
60,61.46,63.58,0
60,61.43,63.55,0
61,61.42,63.52,0
61,61.41,63.50,0
60,61.38,63.46,0
61,61.37,63.44,0
60,61.35,63.40,0
60,61.32,63.37,0
62,61.33,63.36,0
60,61.31,63.32,0
60,61.28,63.29,0
59,61.24,63.25,0
59,61.19,63.20,0
61,61.19,63.18,0
60,61.16,63.15,0
58,61.10,63.10,0
59,61.06,63.06,0
61,61.06,63.04,0
60,61.04,63.01,0
60,61.01,62.98,0
58,60.95,62.93,0
59,60.92,62.89,0
60,60.90,62.86,0
60,60.88,62.83,0
58,60.82,62.78,0
60,60.81,62.75,0
58,60.75,62.71,0
59,60.71,62.67,0
59,60.68,62.63,0
60,60.67,62.61,0
60,60.65,62.58,0
60,60.64,62.55,0
58,60.59,62.51,0
59,60.56,62.47,0
59,60.52,62.44,0
58,60.47,62.39,0
58,60.42,62.35,0
58,60.38,62.31,0
58,60.33,62.26,0
58,60.28,62.22,0
58,60.24,62.18,0
60,60.23,62.16,0
60,60.23,62.14,0
58,60.18,62.09,0
58,60.14,62.05,0
60,60.14,62.03,0
58,60.09,61.99,0
58,60.05,61.95,0
60,60.05,61.93,0
58,60.01,61.89,0
58,59.97,61.85,0
58,59.93,61.82,0
58,59.89,61.78,0
58,59.85,61.74,0
58,59.82,61.70,0
58,59.78,61.67,0
58,59.74,61.63,0
58,59.71,61.59,0
58,59.68,61.56,0
58,59.64,61.52,0
59,59.63,61.50,0
58,59.60,61.46,0
58,59.56,61.43,0
58,59.53,61.39,0
58,59.50,61.36,0
58,59.47,61.32,0
58,59.44,61.29,0
56,59.37,61.24,0
60,59.39,61.23,0
58,59.36,61.19,0
58,59.33,61.16,0
60,59.35,61.15,0
58,59.32,61.12,0
57,59.27,61.08,0
57,59.23,61.04,0
58,59.20,61.01,0
57,59.16,60.97,0
56,59.09,60.92,0
56,59.03,60.87,0
53,58.91,60.79,0
57,58.87,60.75,0
56,58.82,60.70,0
56,58.76,60.66,0
58,58.74,60.63,0
57,58.71,60.59,0
56,58.66,60.55,0
57,58.62,60.51,0
56,58.57,60.47,0
57,58.54,60.43,0
56,58.49,60.39,0
57,58.46,60.35,0
56,58.41,60.31,0
56,58.36,60.27,0
59,58.37,60.25,0
57,58.35,60.22,0
57,58.32,60.19,0
56,58.27,60.15,0
56,58.23,60.11,0
57,58.20,60.08,0
56,58.16,60.03,0
57,58.14,60.00,0
57,58.11,59.97,0
57,58.09,59.94,0
56,58.05,59.91,0
57,58.03,59.88,0
60,58.07,59.88,0
58,58.07,59.86,0
58,58.06,59.84,0
58,58.06,59.82,0
57,58.04,59.79,0
60,58.08,59.80,0
58,58.08,59.78,0
57,58.06,59.75,0
57,58.04,59.72,0
57,58.02,59.70,0
58,58.02,59.68,0
59,58.04,59.67,0
57,58.01,59.64,0
58,58.01,59.63,0
58,58.01,59.61,0
58,58.01,59.60,0
59,58.03,59.59,0
58,58.03,59.57,0
57,58.01,59.55,0
58,58.01,59.53,0
60,58.05,59.54,0
58,58.05,59.52,0
58,58.05,59.51,0
56,58.01,59.47,0
57,57.99,59.45,0
56,57.95,59.41,0
57,57.93,59.39,0
56,57.89,59.35,0
59,57.91,59.35,0
56,57.88,59.32,0
58,57.88,59.30,0
56,57.84,59.27,0
57,57.82,59.25,0
57,57.81,59.23,0
56,57.77,59.19,0
58,57.78,59.18,0
56,57.74,59.15,0
56,57.70,59.12,0
56,57.67,59.09,0
58,57.68,59.08,0
57,57.66,59.06,0
58,57.67,59.05,0
56,57.64,59.01,0
58,57.64,59.00,0
57,57.63,58.98,0
56,57.60,58.95,0
58,57.61,58.95,0
58,57.61,58.94,0
57,57.60,58.92,0
57,57.59,58.90,0
56,57.56,58.87,0
56,57.53,58.84,0
57,57.52,58.82,0
56,57.49,58.79,0
56,57.46,58.77,0
58,57.47,58.76,0
56,57.44,58.73,0
58,57.45,58.72,0
58,57.46,58.72,0
58,57.47,58.71,0
58,57.48,58.70,0
56,57.45,58.67,0
58,57.46,58.67,0
58,57.47,58.66,0
58,57.48,58.65,0
56,57.45,58.63,0
56,57.43,58.60,0
58,57.44,58.60,0
58,57.45,58.59,0
56,57.42,58.56,0
58,57.43,58.56,0
57,57.42,58.54,0
58,57.43,58.54,0
57,57.43,58.52,0
56,57.40,58.50,0
57,57.39,58.48,0
56,57.36,58.46,0
56,57.33,58.43,0
58,57.35,58.43,0
56,57.32,58.40,0
56,57.29,58.38,0
60,57.35,58.40,0
56,57.32,58.37,0
56,57.29,58.35,0
57,57.29,58.33,0
56,57.26,58.31,0
56,57.24,58.29,0
56,57.21,58.26,0
58,57.23,58.26,0
55,57.18,58.23,0
56,57.16,58.21,0
56,57.14,58.19,0
57,57.13,58.17,0
57,57.13,58.16,0
56,57.11,58.14,0
56,57.09,58.12,0
58,57.11,58.12,0
56,57.08,58.10,0
56,57.06,58.08,0
56,57.04,58.05,0
55,57.00,58.02,0
56,56.98,58.00,0
56,56.96,57.98,0
56,56.94,57.96,0
57,56.94,57.95,0
56,56.92,57.93,0
56,56.90,57.92,0
55,56.87,57.89,0
55,56.83,57.86,0
56,56.81,57.84,0
55,56.78,57.81,0
55,56.74,57.78,0
56,56.73,57.76,0
55,56.69,57.74,0
54,56.64,57.70,0
54,56.58,57.66,0
55,56.55,57.64,0
57,56.56,57.63,0
55,56.53,57.60,0
54,56.48,57.57,0
56,56.47,57.55,0
55,56.44,57.53,0
54,56.39,57.49,0
54,56.34,57.46,0
56,56.34,57.44,0
54,56.29,57.41,0
56,56.29,57.39,0
56,56.28,57.38,0
55,56.25,57.36,0
56,56.25,57.34,0
54,56.20,57.31,0
54,56.16,57.28,0
56,56.16,57.26,0
56,56.15,57.25,0
56,56.15,57.24,0
55,56.13,57.21,0
55,56.10,57.19,0
56,56.10,57.18,0
54,56.06,57.15,0
54,56.02,57.12,0
55,56.00,57.10,0
55,55.98,57.08,0
54,55.94,57.04,0
56,55.94,57.03,0
55,55.92,57.01,0
57,55.94,57.01,0
56,55.94,57.00,0
56,55.95,56.99,0
56,55.95,56.98,0
56,55.95,56.97,0
56,55.95,56.96,0
56,55.95,56.95,0
56,55.95,56.94,0
54,55.91,56.92,0
54,55.87,56.89,0
56,55.88,56.88,0
55,55.86,56.86,0
54,55.82,56.83,0
56,55.83,56.82,0
54,55.79,56.79,0
54,55.75,56.77,0
54,55.72,56.74,0
54,55.68,56.71,0
55,55.67,56.69,0
55,55.66,56.68,0
54,55.62,56.65,0
56,55.63,56.64,0
56,55.64,56.64,0
54,55.61,56.61,0
56,55.61,56.60,0
56,55.62,56.60,0
55,55.61,56.58,0
56,55.62,56.58,0
56,55.62,56.57,0
56,55.63,56.56,0
56,55.64,56.56,0
56,55.65,56.55,0
55,55.63,56.54,0
54,55.60,56.51,0
55,55.59,56.50,0
55,55.58,56.48,0
56,55.59,56.48,0
54,55.55,56.45,0
55,55.54,56.44,0
55,55.53,56.42,0
56,55.54,56.42,0
54,55.51,56.40,0
56,55.52,56.39,0
55,55.51,56.38,0
56,55.52,56.37,0
56,55.53,56.37,0
55,55.52,56.36,0
56,55.53,56.35,0
54,55.50,56.33,0
54,55.47,56.31,0
55,55.46,56.29,0
55,55.45,56.28,0
55,55.44,56.27,0
54,55.41,56.24,0
55,55.40,56.23,0
55,55.39,56.22,0
54,55.37,56.20,0
54,55.34,56.18,0
54,55.31,56.15,0
55,55.31,56.14,0
54,55.28,56.12,0
54,55.25,56.10,0
55,55.25,56.09,0
55,55.24,56.08,0
54,55.22,56.06,0
54,55.20,56.04,0
54,55.17,56.02,0
51,55.09,55.97,0
54,55.07,55.95,0
53,55.03,55.92,0
53,54.98,55.89,0
56,55.00,55.89,0
55,55.00,55.88,0
56,55.02,55.88,0
54,55.00,55.86,0
56,55.02,55.86,0
57,55.06,55.88,0
55,55.06,55.87,0
56,55.08,55.87,0
57,55.12,55.88,0
54,55.10,55.86,0
56,55.12,55.86,0
56,55.13,55.86,0
56,55.15,55.86,0
56,55.17,55.87,0
54,55.14,55.85,0
55,55.14,55.84,0
57,55.18,55.85,0
58,55.23,55.87,0
58,55.29,55.89,0
56,55.30,55.89,0
58,55.36,55.92,0
61,55.47,55.97,0
62,55.60,56.03,0
60,55.69,56.07,0
59,55.76,56.10,0
58,55.80,56.11,0
58,55.84,56.13,0
57,55.87,56.14,0
57,55.89,56.15,0
61,55.99,56.20,0
56,55.99,56.20,0
58,56.03,56.22,0
59,56.09,56.24,0
58,56.13,56.26,0
58,56.17,56.28,0
58,56.20,56.30,0
59,56.26,56.32,0
58,56.30,56.34,0
60,56.37,56.38,0
59,56.42,56.40,0
58,56.45,56.42,0
58,56.48,56.43,0
58,56.51,56.45,0
58,56.54,56.46,0
58,56.57,56.48,0
58,56.60,56.50,0
58,56.63,56.51,0
58,56.66,56.53,0
58,56.68,56.54,0
58,56.71,56.55,0
58,56.74,56.57,0
58,56.76,56.58,0
59,56.81,56.61,0
60,56.87,56.64,0
60,56.93,56.68,0
59,56.97,56.70,0
58,56.99,56.71,0
58,57.01,56.72,0
58,57.03,56.74,0
59,57.07,56.76,0
58,57.09,56.77,0
58,57.11,56.78,0
58,57.13,56.80,0
58,57.15,56.81,0
58,57.16,56.82,0
59,57.20,56.84,0
58,57.22,56.85,0
58,57.23,56.87,0
58,57.25,56.88,0
60,57.30,56.91,0
58,57.32,56.92,0
58,57.33,56.93,0
58,57.34,56.94,0
60,57.40,56.97,0
57,57.39,56.97,0
57,57.38,56.97,0
59,57.41,56.99,0
61,57.48,57.03,0
60,57.53,57.06,0
60,57.58,57.09,0
61,57.65,57.13,0
60,57.70,57.16,0
58,57.71,57.17,0
61,57.77,57.21,0
66,57.94,57.29,0
64,58.06,57.36,0
61,58.12,57.40,0
64,58.23,57.46,0
61,58.29,57.50,0
63,58.38,57.55,0
61,58.44,57.59,0
61,58.49,57.62,0
63,58.58,57.68,0
60,58.61,57.70,0
60,58.63,57.72,0
65,58.76,57.79,0
63,58.85,57.85,0
61,58.89,57.88,0
60,58.91,57.90,0
60,58.93,57.92,0
61,58.97,57.95,0
63,59.05,58.00,0
60,59.07,58.02,0
59,59.07,58.03,0
60,59.09,58.05,0
61,59.13,58.08,0
60,59.15,58.10,0
60,59.16,58.12,0
61,59.20,58.15,0
62,59.26,58.19,0
62,59.31,58.22,0
58,59.28,58.22,0
62,59.34,58.26,0
60,59.35,58.28,0
61,59.39,58.30,0
62,59.44,58.34,0
62,59.49,58.38,0
63,59.56,58.42,0
62,59.61,58.46,0
62,59.66,58.50,0
64,59.74,58.55,0
62,59.79,58.59,0
63,59.85,58.63,0
62,59.89,58.66,0
61,59.92,58.69,0
64,60.00,58.74,0
64,60.08,58.79,0
62,60.12,58.82,0
64,60.19,58.88,0
63,60.25,58.92,0
64,60.33,58.97,0
64,60.40,59.02,0
64,60.47,59.07,0
63,60.52,59.11,0
62,60.55,59.14,0
66,60.66,59.20,0
64,60.73,59.25,0
64,60.79,59.30,0
64,60.86,59.35,0
64,60.92,59.39,0
65,61.00,59.45,0
66,61.10,59.52,0
62,61.12,59.54,0
64,61.18,59.58,0
66,61.27,59.65,0
64,61.33,59.69,0
64,61.38,59.74,0
66,61.47,59.80,0
64,61.52,59.84,0
69,61.67,59.93,0
70,61.84,60.03,0
68,61.96,60.11,0
66,62.04,60.17,0
64,62.08,60.21,0
65,62.14,60.26,0
66,62.22,60.31,0
66,62.29,60.37,0
68,62.41,60.45,0
66,62.48,60.50,0
65,62.53,60.55,0
66,62.60,60.60,0
68,62.71,60.68,0
67,62.79,60.74,0
67,62.88,60.80,0
66,62.94,60.85,0
70,63.08,60.95,0
68,63.18,61.02,0
70,63.32,61.11,0
69,63.43,61.19,0
70,63.56,61.27,0
70,63.69,61.36,0
73,63.88,61.48,0
72,64.04,61.58,0
69,64.14,61.66,0
71,64.28,61.75,0
72,64.43,61.85,0
70,64.54,61.93,0
73,64.71,62.04,0
72,64.86,62.14,0
73,65.02,62.25,0
74,65.20,62.37,0
70,65.29,62.45,0
72,65.43,62.54,0
72,65.56,62.64,0
74,65.73,62.75,0
77,65.95,62.89,0
75,66.14,63.01,0
72,66.25,63.10,0
79,66.51,63.26,0
79,66.76,63.42,0
75,66.92,63.54,0
74,67.06,63.64,0
75,67.22,63.75,0
79,67.46,63.91,0
80,67.71,64.07,0
80,67.95,64.23,0
81,68.22,64.39,0
80,68.45,64.55,0
79,68.66,64.70,0
80,68.89,64.85,0
83,69.17,65.03,0
81,69.41,65.19,0
78,69.58,65.32,0
82,69.83,65.48,0
83,70.09,65.66,0
82,70.33,65.82,0
82,70.56,65.98,0
82,70.79,66.14,0
81,71.00,66.29,0
81,71.20,66.44,0
84,71.45,66.62,0
84,71.70,66.79,0
80,71.87,66.92,0
82,72.07,67.07,0
88,72.39,67.28,0
88,72.70,67.49,0
83,72.91,67.64,0
84,73.13,67.81,0
83,73.33,67.96,0
88,73.62,68.16,0
92,73.99,68.40,0
92,74.35,68.63,0
86,74.58,68.81,0
87,74.83,68.99,0
88,75.09,69.18,0
86,75.31,69.35,0
88,75.57,69.54,0
86,75.77,69.70,0
89,76.04,69.89,0
90,76.32,70.09,0
90,76.59,70.29,0
92,76.90,70.51,0
88,77.12,70.68,0
88,77.34,70.86,0
88,77.55,71.03,0
88,77.76,71.20,0
88,77.97,71.37,0
86,78.13,71.51,0
90,78.36,71.70,0
88,78.56,71.86,0
88,78.75,72.02,0
90,78.97,72.20,0
92,79.23,72.40,0
92,79.49,72.60,0
91,79.72,72.78,0
90,79.92,72.95,0
92,80.16,73.14,0
99,80.54,73.40,0
93,80.79,73.60,0
92,81.01,73.78,0
103,81.45,74.07,0
99,81.81,74.32,0
96,82.09,74.54,0
103,82.51,74.82,0
97,82.80,75.05,0
96,83.06,75.26,0
99,83.38,75.49,0
95,83.61,75.69,0
99,83.92,75.92,0
100,84.24,76.16,0
102,84.60,76.42,0
97,84.85,76.63,0
98,85.11,76.84,0
97,85.35,77.04,0
97,85.58,77.24,0
97,85.81,77.44,0
100,86.09,77.66,0
99,86.35,77.88,0
101,86.64,78.11,0
103,86.97,78.36,0
105,87.33,78.62,0
102,87.62,78.86,0
97,87.81,79.04,0
98,88.02,79.23,0
100,88.25,79.44,0
102,88.53,79.66,0
105,88.86,79.92,0
104,89.16,80.16,0
105,89.48,80.41,0
103,89.75,80.63,0
103,90.01,80.85,0
107,90.35,81.12,0
117,90.89,81.48,0
115,91.37,81.81,0
110,91.74,82.09,0
117,92.25,82.44,0
110,92.60,82.72,0
109,92.93,82.98,0
109,93.25,83.24,0
114,93.67,83.55,0
107,93.93,83.78,0
113,94.31,84.07,0
109,94.61,84.32,0
109,94.90,84.57,0
111,95.22,84.83,0
112,95.55,85.11,0
109,95.82,85.35,0
112,96.15,85.61,0
110,96.42,85.86,0
111,96.71,86.11,0
116,97.10,86.41,0
114,97.44,86.68,0
112,97.73,86.94,0
116,98.09,87.23,0
112,98.37,87.47,0
113,98.67,87.73,0
112,98.93,87.97,0
111,99.17,88.20,0
112,99.43,88.44,0
113,99.70,88.69,0
111,99.93,88.91,0
111,100.15,89.13,0
112,100.39,89.36,0
114,100.66,89.60,0
111,100.87,89.82,0
122,101.29,90.14,0
114,101.54,90.38,0
112,101.75,90.60,0
114,102.00,90.83,0
118,102.32,91.10,0
121,102.69,91.40,0
118,103.00,91.67,0
115,103.24,91.90,0
120,103.57,92.18,0
115,103.80,92.41,0
117,104.06,92.65,0
121,104.40,92.94,0
119,104.69,93.20,0
117,104.94,93.44,0
115,105.14,93.65,0
118,105.40,93.90,0
118,105.65,94.14,0
119,105.92,94.39,0
120,106.20,94.64,0
117,106.42,94.86,0
119,106.67,95.11,0
122,106.97,95.38,0
118,107.19,95.60,0
117,107.39,95.82,0
119,107.62,96.05,0
123,107.93,96.32,0
124,108.25,96.59,0
119,108.47,96.82,0
120,108.70,97.05,0
118,108.88,97.26,0
120,109.11,97.49,0
120,109.32,97.71,0
122,109.58,97.95,0
120,109.79,98.17,0
120,109.99,98.39,0
121,110.21,98.62,0
126,110.53,98.89,0
125,110.82,99.15,0
124,111.08,99.40,0
124,111.34,99.65,0
136,111.83,100.01,0
122,112.03,100.23,0
125,112.29,100.48,0
124,112.53,100.71,0
123,112.74,100.94,0
131,113.10,101.24,0
125,113.34,101.48,0
127,113.61,101.73,0
125,113.84,101.96,0
127,114.10,102.21,0
127,114.36,102.46,0
125,114.58,102.69,0
127,114.82,102.93,0
126,115.05,103.16,0
128,115.31,103.41,0
127,115.54,103.65,0
123,115.69,103.84,0
125,115.88,104.05,0
125,116.06,104.26,0
131,116.36,104.53,0
131,116.65,104.79,0
127,116.86,105.01,0
125,117.02,105.21,0
134,117.36,105.50,0
133,117.67,105.78,0
132,117.96,106.04,0
129,118.18,106.27,0
131,118.44,106.52,0
138,118.83,106.83,0
145,119.35,107.21,0
133,119.62,107.47,0
136,119.95,107.76,0
138,120.31,108.06,0
139,120.69,108.37,0
137,121.01,108.65,0
138,121.35,108.95,0
140,121.72,109.26,0
145,122.19,109.62,0
145,122.65,109.97,0
141,123.01,110.28,0
145,123.45,110.63,0
143,123.84,110.95,0
140,124.17,111.24,0
140,124.48,111.53,0
140,124.79,111.81,0
142,125.14,112.12,0
140,125.44,112.39,0
139,125.71,112.66,0
140,125.99,112.93,0
140,126.27,113.20,0
138,126.51,113.45,0
140,126.78,113.72,0
139,127.02,113.97,0
139,127.26,114.22,0
140,127.52,114.48,0
135,127.67,114.68,0
137,127.85,114.91,0
140,128.10,115.16,0
137,128.27,115.38,0
138,128.47,115.60,0
137,128.64,115.82,0
137,128.81,116.03,0
139,129.01,116.26,0
140,129.23,116.50,0
137,129.39,116.70,0
139,129.58,116.92,0
137,129.73,117.12,0
138,129.89,117.33,0
143,130.15,117.59,0
149,130.53,117.90,0
143,130.78,118.15,0
145,131.06,118.42,0
149,131.42,118.73,0
145,131.69,118.99,0
143,131.92,119.23,0
150,132.28,119.54,0
153,132.70,119.87,0
147,132.98,120.15,0
144,133.20,120.38,0
145,133.44,120.63,0
148,133.73,120.90,0
145,133.96,121.14,0
145,134.18,121.38,0
145,134.39,121.62,0
145,134.61,121.85,0
145,134.81,122.08,0
144,135.00,122.30,0
145,135.20,122.53,0
143,135.35,122.74,0
143,135.51,122.94,0
143,135.66,123.14,0
143,135.80,123.34,0
143,135.95,123.53,0
144,136.11,123.74,0
143,136.25,123.93,0
141,136.34,124.10,0
142,136.45,124.28,0
143,136.58,124.47,0
141,136.67,124.63,0
140,136.74,124.79,0
142,136.84,124.96,0
141,136.93,125.12,0
141,137.01,125.28,0
140,137.07,125.43,0
141,137.15,125.58,0
141,137.22,125.74,0
142,137.32,125.90,0
142,137.41,126.06,0
139,137.45,126.19,0
139,137.48,126.32,0
139,137.51,126.44,0
141,137.58,126.59,0
141,137.65,126.73,0
141,137.71,126.88,0
140,137.76,127.01,0
141,137.82,127.15,0
139,137.85,127.27,0
140,137.89,127.39,0
139,137.91,127.51,0
139,137.93,127.62,0
141,138.00,127.76,0
141,138.06,127.89,0
137,138.03,127.98,0
137,138.01,128.07,0
138,138.01,128.17,0
139,138.03,128.28,0
137,138.01,128.37,0
137,137.99,128.45,0
139,138.01,128.56,0
137,137.99,128.64,0
137,137.97,128.73,0
137,137.95,128.81,0
139,137.97,128.91,0
137,137.95,128.99,0
138,137.96,129.08,0
137,137.94,129.16,0
137,137.92,129.24,0
136,137.88,129.31,0
137,137.86,129.38,0
135,137.80,129.44,0
136,137.77,129.51,0
135,137.71,129.56,0
136,137.68,129.62,0
135,137.62,129.68,0
133,137.53,129.71,0
136,137.50,129.77,0
135,137.45,129.83,0
135,137.40,129.88,0
136,137.37,129.94,0
139,137.41,130.03,0
135,137.36,130.08,0
133,137.27,130.11,0
134,137.21,130.15,0
133,137.12,130.18,0
133,137.04,130.21,0
133,136.96,130.23,0
133,136.88,130.26,0
133,136.80,130.29,0
133,136.73,130.32,0
133,136.65,130.34,0
131,136.54,130.35,0
135,136.51,130.40,0
136,136.50,130.45,0
134,136.45,130.49,0
133,136.38,130.51,0
132,136.29,130.53,0
132,136.21,130.54,0
134,136.16,130.58,0
133,136.10,130.60,0
132,136.02,130.61,0
133,135.96,130.64,0
131,135.86,130.64,0
131,135.76,130.65,0
131,135.66,130.65,0
131,135.57,130.65,0
131,135.48,130.66,0
131,135.39,130.66,0
131,135.30,130.66,0
130,135.20,130.66,0
132,135.13,130.67,0
131,135.05,130.67,0
131,134.97,130.68,0
131,134.89,130.68,0
129,134.77,130.66,0
129,134.66,130.65,0
129,134.54,130.63,0
129,134.43,130.61,0
129,134.32,130.60,0
129,134.22,130.58,0
129,134.11,130.57,0
128,133.99,130.54,0
128,133.87,130.51,0
127,133.73,130.48,0
128,133.62,130.45,0
128,133.51,130.43,0
128,133.40,130.41,0
128,133.29,130.38,0
127,133.16,130.35,0
127,133.04,130.31,0
129,132.96,130.30,0
128,132.86,130.28,0
127,132.74,130.25,0
126,132.61,130.20,0
126,132.47,130.16,0
127,132.37,130.13,0
126,132.24,130.09,0
125,132.09,130.04,0
126,131.97,130.00,0
125,131.83,129.95,0
126,131.72,129.91,0
125,131.58,129.86,0
125,131.45,129.81,0
125,131.32,129.76,0
125,131.19,129.71,0
127,131.11,129.69,0
124,130.97,129.63,0
124,130.83,129.57,0
124,130.69,129.52,0
125,130.58,129.47,0
126,130.49,129.44,0
124,130.36,129.38,0
124,130.23,129.33,0
123,130.09,129.27,0
124,129.96,129.21,0
124,129.84,129.16,0
123,129.71,129.10,0
123,129.57,129.04,0
123,129.44,128.98,0
123,129.31,128.92,0
123,129.19,128.86,0
122,129.04,128.79,0
123,128.92,128.73,0
123,128.80,128.68,0
123,128.69,128.62,0
122,128.55,128.55,0
122,128.42,128.49,0
121,128.27,128.41,0
121,128.13,128.34,0
121,127.99,128.26,0
121,127.85,128.19,0
121,127.71,128.12,0
121,127.58,128.05,0
121,127.44,127.98,0
121,127.32,127.91,0
121,127.19,127.84,0
120,127.04,127.76,0
121,126.92,127.69,0
120,126.79,127.62,0
119,126.63,127.53,0
120,126.50,127.46,0
119,126.35,127.37,0
121,126.24,127.31,0
119,126.10,127.22,0
119,125.95,127.14,0
119,125.81,127.06,0
119,125.68,126.98,0
118,125.52,126.89,0
119,125.39,126.81,0
118,125.25,126.72,0
115,125.04,126.61,0
119,124.92,126.53,0
117,124.76,126.43,0
118,124.63,126.35,0
119,124.51,126.28,0
117,124.36,126.18,0
119,124.26,126.11,0
117,124.11,126.02,0
118,123.99,125.94,0
117,123.85,125.85,0
117,123.71,125.76,0
117,123.58,125.68,0
116,123.43,125.58,0
117,123.30,125.49,0
117,123.17,125.41,0
118,123.07,125.33,0
116,122.93,125.24,0
116,122.79,125.15,0
115,122.63,125.05,0
116,122.50,124.96,0
115,122.35,124.86,0
115,122.20,124.76,0
115,122.06,124.66,0
115,121.92,124.56,0
113,121.74,124.45,0
116,121.63,124.36,0
115,121.49,124.27,0
115,121.36,124.18,0
113,121.20,124.07,0
113,121.03,123.95,0
113,120.87,123.85,0
113,120.71,123.74,0
111,120.52,123.61,0
113,120.37,123.50,0
113,120.22,123.40,0
113,120.08,123.29,0
113,119.94,123.19,0
112,119.78,123.08,0
113,119.64,122.98,0
114,119.53,122.89,0
111,119.36,122.77,0
112,119.21,122.66,0
113,119.09,122.57,0
112,118.94,122.46,0
111,118.79,122.35,0
111,118.63,122.23,0
111,118.48,122.12,0
111,118.33,122.01,0
113,118.22,121.92,0
111,118.08,121.81,0
113,117.98,121.72,0
111,117.84,121.61,0
111,117.70,121.51,0
111,117.57,121.40,0
111,117.43,121.30,0
110,117.29,121.19,0
111,117.16,121.08,0
111,117.04,120.98,0
110,116.90,120.87,0
110,116.76,120.76,0
109,116.60,120.65,0
109,116.45,120.53,0
109,116.30,120.41,0
109,116.16,120.30,0
109,116.01,120.19,0
109,115.87,120.08,0
109,115.73,119.97,0
109,115.60,119.86,0
108,115.45,119.74,0
108,115.30,119.62,0
109,115.17,119.51,0
108,115.03,119.40,0
108,114.89,119.28,0
108,114.75,119.17,0
109,114.64,119.07,0
107,114.48,118.95,0
107,114.33,118.83,0
105,114.15,118.69,0
107,114.00,118.57,0
107,113.86,118.46,0
107,113.73,118.34,0
106,113.57,118.22,0
106,113.42,118.10,0
107,113.29,117.99,0
105,113.13,117.86,0
107,113.00,117.75,0
105,112.84,117.62,0
106,112.71,117.51,0
105,112.55,117.38,0
106,112.42,117.27,0
105,112.27,117.14,0
105,112.13,117.02,0
105,111.99,116.90,0
105,111.85,116.78,0
105,111.71,116.67,0
105,111.57,116.55,0
105,111.44,116.43,0
105,111.31,116.32,0
104,111.17,116.20,0
106,111.06,116.09,0
105,110.94,115.98,0
103,110.78,115.85,0
105,110.67,115.74,0
104,110.54,115.63,0
103,110.38,115.50,0
103,110.24,115.38,0
105,110.13,115.27,0
103,109.99,115.15,0
103,109.85,115.03,0
103,109.71,114.91,0
103,109.58,114.79,0
103,109.45,114.67,0
102,109.30,114.54,0
102,109.15,114.42,0
102,109.01,114.29,0
101,108.85,114.16,0
102,108.71,114.04,0
103,108.60,113.93,0
101,108.45,113.80,0
101,108.30,113.67,0
102,108.17,113.56,0
101,108.03,113.43,0
101,107.89,113.31,0
103,107.79,113.20,0
101,107.65,113.08,0
101,107.52,112.96,0
101,107.39,112.84,0
101,107.26,112.72,0
101,107.14,112.60,0
100,106.99,112.48,0
100,106.85,112.35,0
100,106.72,112.23,0
100,106.58,112.11,0
100,106.45,111.99,0
100,106.32,111.87,0
99,106.18,111.74,0
99,106.03,111.61,0
99,105.89,111.48,0
101,105.79,111.38,0
99,105.66,111.26,0
96,105.46,111.10,0
98,105.32,110.97,0
99,105.19,110.85,0
98,105.05,110.72,0
97,104.88,110.59,0
98,104.75,110.46,0
98,104.61,110.34,0
96,104.44,110.19,0
97,104.29,110.06,0
96,104.12,109.92,0
97,103.98,109.79,0
97,103.84,109.66,0
95,103.67,109.52,0
97,103.53,109.39,0
96,103.38,109.26,0
95,103.21,109.12,0
96,103.07,108.98,0
98,102.97,108.87,0
96,102.83,108.75,0
95,102.67,108.61,0
95,102.52,108.47,0
96,102.39,108.35,0
96,102.26,108.22,0
96,102.14,108.10,0
95,101.99,107.97,0
96,101.87,107.85,0
94,101.72,107.71,0
96,101.60,107.59,0
95,101.47,107.47,0
94,101.32,107.33,0
95,101.19,107.21,0
94,101.05,107.08,0
94,100.91,106.95,0
94,100.77,106.82,0
95,100.66,106.70,0
94,100.52,106.57,0
94,100.39,106.45,0
94,100.26,106.32,0
94,100.14,106.20,0
93,100.00,106.07,0
93,99.86,105.94,0
89,99.64,105.77,0
93,99.51,105.64,0
93,99.38,105.51,0
93,99.25,105.39,0
93,99.12,105.26,0
93,99.00,105.14,0
93,98.88,105.02,0
94,98.78,104.91,0
93,98.67,104.79,0
93,98.55,104.67,0
93,98.44,104.56,0
92,98.31,104.43,0
91,98.17,104.30,0
92,98.04,104.17,0
92,97.92,104.05,0
92,97.81,103.93,0
93,97.71,103.82,0
92,97.60,103.70,0
91,97.46,103.58,0
92,97.35,103.46,0
92,97.25,103.35,0
92,97.14,103.23,0
93,97.06,103.13,0
91,96.94,103.01,0
91,96.82,102.89,0
92,96.72,102.78,0
91,96.61,102.66,0
91,96.50,102.55,0
91,96.39,102.43,0
90,96.26,102.31,0
91,96.15,102.19,0
91,96.05,102.08,0
90,95.93,101.96,0
90,95.81,101.84,0
90,95.69,101.72,0
89,95.56,101.60,0
89,95.43,101.47,0
91,95.34,101.36,0
92,95.27,101.27,0
90,95.17,101.16,0
90,95.07,101.05,0
89,94.94,100.93,0
89,94.82,100.81,0
89,94.71,100.69,0
89,94.59,100.57,0
89,94.48,100.46,0
90,94.39,100.35,0
90,94.30,100.25,0
88,94.18,100.13,0
90,94.10,100.02,0
88,93.97,99.90,0
88,93.85,99.79,0
89,93.76,99.68,0
89,93.66,99.57,0
88,93.55,99.45,0
88,93.44,99.34,0
88,93.33,99.23,0
88,93.22,99.11,0
88,93.12,99.00,0
88,93.02,98.89,0
89,92.94,98.79,0
86,92.80,98.67,0
88,92.70,98.56,0
86,92.57,98.43,0
88,92.48,98.33,0
88,92.39,98.23,0
88,92.30,98.12,0
87,92.19,98.01,0
88,92.11,97.91,0
88,92.03,97.81,0
88,91.95,97.72,0
88,91.87,97.62,0
87,91.77,97.51,0
86,91.65,97.40,0
86,91.54,97.28,0
86,91.43,97.17,0
86,91.32,97.06,0
86,91.21,96.95,0
88,91.15,96.86,0
89,91.11,96.78,0
86,91.01,96.67,0
86,90.91,96.57,0
86,90.81,96.46,0
86,90.71,96.36,0
86,90.62,96.25,0
86,90.52,96.15,0
86,90.43,96.05,0
85,90.33,95.94,0
84,90.20,95.82,0
85,90.09,95.71,0
85,89.99,95.60,0
85,89.89,95.50,0
86,89.82,95.40,0
88,89.78,95.33,0
86,89.70,95.23,0
85,89.61,95.13,0
85,89.52,95.03,0
87,89.47,94.95,0
84,89.36,94.84,0
86,89.29,94.75,0
85,89.20,94.66,0
84,89.10,94.55,0
84,89.00,94.44,0
84,88.90,94.34,0
83,88.78,94.23,0
84,88.68,94.12,0
84,88.59,94.02,0
85,88.52,93.93,0
86,88.47,93.85,0
84,88.38,93.75,0
84,88.29,93.66,0
84,88.21,93.56,0
84,88.12,93.46,0
85,88.06,93.38,0
84,87.98,93.29,0
84,87.90,93.19,0
84,87.82,93.10,0
85,87.76,93.02,0
84,87.69,92.93,0
83,87.60,92.83,0
83,87.50,92.73,0
83,87.41,92.63,0
83,87.33,92.54,0
84,87.26,92.45,0
83,87.17,92.36,0
83,87.09,92.26,0
82,86.99,92.16,0
82,86.89,92.06,0
83,86.81,91.97,0
84,86.75,91.89,0
82,86.66,91.79,0
82,86.57,91.69,0
83,86.49,91.61,0
82,86.40,91.51,0
82,86.32,91.42,0
82,86.23,91.32,0
83,86.17,91.24,0
82,86.08,91.15,0
82,86.00,91.05,0
87,86.02,91.01,0
81,85.92,90.91,0
82,85.84,90.82,0
82,85.77,90.74,0
82,85.69,90.65,0
82,85.62,90.56,0
82,85.54,90.48,0
81,85.45,90.38,0
82,85.38,90.30,0
82,85.32,90.21,0
82,85.25,90.13,0
82,85.18,90.05,0
82,85.12,89.97,0
81,85.04,89.88,0
81,84.96,89.79,0
82,84.90,89.71,0
78,84.76,89.60,0
81,84.69,89.51,0
80,84.59,89.42,0
82,84.54,89.34,0
82,84.49,89.27,0
82,84.44,89.20,0
84,84.43,89.14,0
80,84.34,89.05,0
79,84.24,88.95,0
80,84.15,88.86,0
80,84.07,88.77,0
80,83.99,88.69,0
79,83.89,88.59,0
80,83.81,88.50,0
80,83.73,88.42,0
79,83.64,88.32,0
80,83.57,88.24,0
80,83.49,88.16,0
78,83.38,88.06,0
79,83.30,87.97,0
79,83.21,87.88,0
80,83.15,87.80,0
79,83.06,87.71,0
79,82.98,87.62,0
81,82.94,87.56,0
80,82.88,87.48,0
80,82.83,87.41,0
79,82.75,87.32,0
79,82.67,87.24,0
80,82.62,87.17,0
78,82.53,87.08,0
79,82.46,86.99,0
79,82.39,86.91,0
78,82.30,86.83,0
78,82.21,86.74,0
78,82.13,86.65,0
79,82.07,86.57,0
78,81.99,86.49,0
79,81.93,86.41,0
78,81.85,86.33,0
78,81.77,86.25,0
80,81.74,86.18,0
78,81.66,86.10,0
80,81.63,86.04,0
78,81.56,85.96,0
78,81.48,85.88,0
77,81.39,85.79,0
78,81.33,85.71,0
78,81.26,85.64,0
80,81.24,85.58,0
79,81.19,85.51,0
76,81.09,85.42,0
77,81.00,85.33,0
77,80.92,85.25,0
80,80.91,85.20,0
78,80.85,85.13,0
77,80.77,85.05,0
78,80.72,84.97,0
78,80.66,84.91,0
78,80.61,84.84,0
76,80.52,84.75,0
77,80.45,84.67,0
77,80.38,84.59,0
76,80.29,84.51,0
75,80.18,84.41,0
77,80.12,84.34,0
76,80.04,84.26,0
76,79.96,84.17,0
75,79.86,84.08,0
77,79.80,84.01,0
76,79.72,83.93,0
75,79.63,83.84,0
74,79.52,83.74,0
76,79.45,83.66,0
76,79.38,83.59,0
76,79.31,83.51,0
74,79.20,83.42,0
75,79.12,83.33,0
76,79.06,83.26,0
74,78.96,83.17,0
74,78.86,83.08,0
76,78.80,83.00,0
75,78.72,82.92,0
74,78.63,82.84,0
74,78.54,82.75,0
75,78.47,82.67,0
74,78.38,82.58,0
74,78.29,82.50,0
74,78.20,82.41,0
74,78.12,82.33,0
74,78.04,82.24,0
73,77.94,82.15,0
74,77.86,82.07,0
75,77.80,82.00,0
74,77.72,81.92,0
74,77.65,81.84,0
74,77.58,81.76,0
73,77.49,81.67,0
74,77.42,81.60,0
76,77.39,81.54,0
74,77.32,81.47,0
74,77.25,81.39,0
74,77.19,81.32,0
74,77.12,81.24,0
72,77.02,81.15,0
73,76.94,81.07,0
74,76.88,81.00,0
76,76.87,80.95,0
74,76.81,80.88,0
73,76.73,80.80,0
72,76.64,80.71,0
74,76.58,80.65,0
72,76.49,80.56,0
73,76.42,80.48,0
72,76.33,80.40,0
71,76.23,80.31,0
72,76.14,80.22,0
72,76.06,80.14,0
72,75.98,80.06,0
72,75.90,79.98,0
72,75.82,79.90,0
72,75.75,79.82,0
74,75.71,79.76,0
72,75.64,79.68,0
73,75.58,79.62,0
73,75.53,79.55,0
72,75.46,79.48,0
74,75.43,79.42,0
73,75.38,79.36,0
72,75.32,79.28,0
72,75.25,79.21,0
72,75.18,79.14,0
72,75.12,79.07,0
72,75.06,79.00,0
72,75.00,78.93,0
72,74.94,78.86,0
71,74.86,78.78,0
71,74.78,78.70,0
72,74.73,78.63,0
72,74.67,78.57,0
72,74.62,78.50,0
72,74.57,78.44,0
71,74.49,78.36,0
72,74.44,78.30,0
71,74.38,78.23,0
71,74.31,78.15,0
73,74.28,78.10,0
72,74.24,78.04,0
71,74.17,77.97,0
73,74.15,77.92,0
73,74.12,77.87,0
72,74.08,77.81,0
71,74.02,77.74,0
71,73.96,77.68,0
72,73.92,77.62,0
70,73.84,77.54,0
70,73.77,77.47,0
71,73.71,77.40,0
71,73.66,77.34,0
71,73.60,77.28,0
70,73.53,77.20,0
71,73.48,77.14,0
70,73.41,77.07,0
70,73.34,77.00,0
70,73.28,76.93,0
71,73.23,76.87,0
70,73.17,76.80,0
70,73.10,76.73,0
70,73.04,76.67,0
71,73.00,76.61,0
71,72.96,76.55,0
69,72.88,76.48,0
70,72.82,76.41,0
71,72.79,76.36,0
70,72.73,76.30,0
70,72.68,76.23,0
70,72.62,76.17,0
72,72.61,76.13,0
70,72.56,76.07,0
70,72.51,76.01,0
68,72.42,75.93,0
70,72.37,75.87,0
70,72.32,75.81,0
68,72.23,75.73,0
68,72.15,75.65,0
70,72.11,75.60,0
70,72.06,75.54,0
68,71.98,75.47,0
68,71.90,75.39,0
69,71.85,75.33,0
68,71.77,75.25,0
68,71.69,75.18,0
69,71.64,75.12,0
69,71.59,75.06,0
71,71.57,75.02,0
68,71.50,74.95,0
70,71.47,74.90,0
69,71.42,74.84,0
68,71.36,74.77,0
68,71.29,74.70,0
68,71.22,74.64,0
69,71.18,74.58,0
69,71.13,74.52,0
68,71.07,74.46,0
68,71.01,74.39,0
67,70.93,74.32,0
68,70.87,74.26,0
68,70.81,74.19,0
68,70.76,74.13,0
68,70.70,74.07,0
66,70.61,73.99,0
66,70.52,73.91,0
68,70.47,73.85,0
67,70.40,73.78,0
68,70.35,73.72,0
66,70.26,73.65,0
68,70.22,73.59,0
68,70.17,73.53,0
68,70.13,73.48,0
68,70.09,73.42,0
68,70.04,73.37,0
67,69.98,73.31,0
68,69.94,73.25,0
68,69.91,73.20,0
68,69.87,73.15,0
68,69.83,73.10,0
66,69.75,73.03,0
66,69.68,72.96,0
67,69.62,72.90,0
66,69.55,72.83,0
65,69.46,72.75,0
66,69.39,72.68,0
66,69.32,72.62,0
66,69.26,72.55,0
66,69.19,72.48,0
66,69.13,72.42,0
65,69.05,72.34,0
66,68.98,72.28,0
68,68.97,72.24,0
66,68.91,72.18,0
67,68.87,72.12,0
67,68.83,72.07,0
65,68.75,72.00,0
66,68.70,71.94,0
66,68.64,71.88,0
67,68.61,71.83,0
65,68.54,71.77,0
65,68.47,71.70,0
67,68.44,71.65,0
65,68.37,71.58,0
65,68.30,71.52,0
65,68.24,71.45,0
66,68.19,71.40,0
66,68.15,71.35,0
65,68.09,71.28,0
66,68.04,71.23,0
67,68.02,71.19,0
66,67.98,71.13,0
68,67.98,71.10,0
66,67.94,71.05,0
65,67.88,70.99,0
67,67.87,70.95,0
66,67.83,70.90,0
65,67.77,70.84,0
66,67.74,70.79,0
67,67.72,70.76,0
65,67.67,70.70,0
64,67.59,70.63,0
66,67.56,70.59,0
65,67.51,70.53,0
65,67.46,70.47,0
66,67.43,70.43,0
64,67.36,70.37,0
65,67.32,70.31,0
65,67.27,70.26,0
64,67.20,70.20,0
64,67.14,70.13,0
65,67.10,70.08,0
66,67.08,70.04,0
65,67.03,69.99,0
64,66.97,69.93,0
64,66.91,69.87,0
64,66.86,69.81,0
64,66.80,69.76,0
64,66.74,69.70,0
65,66.71,69.65,0
64,66.65,69.59,0
64,66.60,69.54,0
64,66.55,69.48,0
64,66.50,69.43,0
64,66.45,69.37,0
64,66.40,69.32,0
64,66.35,69.27,0
64,66.30,69.21,0
64,66.26,69.16,0
64,66.21,69.11,0
64,66.17,69.06,0
64,66.12,69.01,0
64,66.08,68.96,0
62,66.00,68.89,0
64,65.96,68.84,0
64,65.92,68.79,0
64,65.88,68.74,0
62,65.81,68.68,0
64,65.77,68.63,0
65,65.75,68.59,0
63,65.70,68.54,0
62,65.62,68.47,0
64,65.59,68.43,0
64,65.56,68.38,0
64,65.53,68.34,0
64,65.50,68.30,0
64,65.47,68.25,0
63,65.42,68.20,0
62,65.35,68.14,0
64,65.32,68.10,0
64,65.30,68.06,0
63,65.25,68.01,0
62,65.19,67.95,0
63,65.14,67.90,0
62,65.08,67.84,0
63,65.04,67.79,0
64,65.02,67.75,0
64,65.00,67.71,0
63,64.96,67.67,0
63,64.92,67.62,0
62,64.86,67.56,0
64,64.84,67.53,0
62,64.79,67.47,0
64,64.77,67.44,0
62,64.71,67.38,0
64,64.70,67.35,0
64,64.69,67.32,0
64,64.67,67.28,0
64,64.66,67.25,0
64,64.65,67.22,0
62,64.59,67.17,0
63,64.56,67.12,0
62,64.51,67.07,0
64,64.50,67.04,0
62,64.45,66.99,0
62,64.40,66.94,0
61,64.33,66.88,0
62,64.29,66.83,0
62,64.24,66.79,0
59,64.14,66.71,0
62,64.09,66.66,0
61,64.03,66.60,0
62,63.99,66.56,0
61,63.93,66.50,0
64,63.93,66.48,0
62,63.89,66.43,0
62,63.86,66.39,0
62,63.82,66.34,0
61,63.76,66.29,0
61,63.71,66.24,0
62,63.67,66.20,0
61,63.62,66.14,0
61,63.57,66.09,0
62,63.54,66.05,0
62,63.50,66.01,0
63,63.49,65.98,0
63,63.48,65.95,0
61,63.44,65.90,0
63,63.43,65.87,0
63,63.42,65.84,0
62,63.39,65.80,0
62,63.36,65.77,0
60,63.29,65.71,0
63,63.29,65.68,0
62,63.26,65.65,0
60,63.20,65.59,0
62,63.17,65.55,0
63,63.17,65.53,0
61,63.13,65.48,0
62,63.10,65.45,0
60,63.04,65.39,0
61,63.00,65.35,0
61,62.96,65.31,0
60,62.90,65.25,0
62,62.88,65.22,0
61,62.85,65.18,0
60,62.79,65.13,0
62,62.77,65.09,0
60,62.72,65.04,0
61,62.68,65.00,0
62,62.67,64.97,0
60,62.62,64.92,0
61,62.58,64.88,0
61,62.55,64.85,0
60,62.50,64.80,0
60,62.45,64.75,0
62,62.44,64.72,0
60,62.39,64.67,0
60,62.35,64.63,0
60,62.30,64.58,0
60,62.25,64.54,0
61,62.23,64.50,0
59,62.16,64.45,0
62,62.16,64.42,0
60,62.12,64.38,0
60,62.07,64.33,0
60,62.03,64.29,0
60,61.99,64.25,0
60,61.95,64.20,0
59,61.89,64.15,0
60,61.86,64.11,0
62,61.86,64.09,0
62,61.86,64.07,0
61,61.84,64.04,0
60,61.81,64.00,0
60,61.77,63.96,0
60,61.74,63.92,0
60,61.70,63.88,0
60,61.67,63.84,0
60,61.63,63.80,0
60,61.60,63.76,0
59,61.55,63.72,0
60,61.52,63.68,0
60,61.49,63.64,0
60,61.46,63.61,0
59,61.41,63.56,0
60,61.38,63.52,0
60,61.35,63.49,0
60,61.33,63.45,0
59,61.28,63.41,0
62,61.29,63.39,0
60,61.27,63.36,0
59,61.22,63.32,0
62,61.24,63.30,0
62,61.25,63.29,0
60,61.23,63.26,0
59,61.18,63.22,0
58,61.12,63.16,0
60,61.10,63.13,0
60,61.08,63.10,0
59,61.03,63.06,0
58,60.97,63.01,0
61,60.97,62.99,0
60,60.95,62.96,0
60,60.94,62.93,0
60,60.92,62.90,0
59,60.88,62.86,0
60,60.86,62.83,0
60,60.84,62.80,0
60,60.83,62.78,0
61,60.83,62.76,0
60,60.81,62.73,0
59,60.78,62.69,0
60,60.76,62.67,0
58,60.71,62.62,0
61,60.71,62.60,0
60,60.70,62.58,0
60,60.68,62.55,0
62,60.71,62.55,0
60,60.70,62.52,0
59,60.66,62.49,0
61,60.67,62.47,0
60,60.66,62.45,0
60,60.64,62.42,0
59,60.61,62.39,0
60,60.60,62.36,0
60,60.59,62.34,0
59,60.55,62.31,0
59,60.52,62.27,0
60,60.51,62.25,0
61,60.52,62.24,0
59,60.49,62.21,0
59,60.46,62.17,0
61,60.47,62.16,0
60,60.46,62.14,0
60,60.45,62.12,0
58,60.40,62.08,0
60,60.40,62.06,0
59,60.37,62.03,0
60,60.36,62.01,0
60,60.35,61.99,0
59,60.33,61.96,0
59,60.30,61.93,0
58,60.25,61.89,0
58,60.21,61.85,0
60,60.21,61.83,0
59,60.18,61.80,0
60,60.18,61.78,0
60,60.17,61.77,0
59,60.15,61.74,0
58,60.11,61.70,0
60,60.11,61.68,0
60,60.10,61.67,0
60,60.10,61.65,0
58,60.06,61.61,0
58,60.02,61.58,0
58,59.98,61.54,0
59,59.96,61.52,0
58,59.92,61.48,0
58,59.88,61.45,0
60,59.88,61.43,0
58,59.85,61.40,0
58,59.81,61.36,0
58,59.77,61.33,0
60,59.78,61.32,0
58,59.74,61.28,0
58,59.71,61.25,0
58,59.67,61.22,0
60,59.68,61.21,0
58,59.65,61.17,0
58,59.61,61.14,0
58,59.58,61.11,0
58,59.55,61.08,0
58,59.52,61.05,0
58,59.49,61.02,0
57,59.44,60.98,0
58,59.41,60.95,0
58,59.38,60.92,0
59,59.37,60.90,0
58,59.35,60.87,0
60,59.36,60.86,0
59,59.35,60.84,0
58,59.32,60.82,0
58,59.30,60.79,0
57,59.25,60.75,0
58,59.23,60.72,0
58,59.20,60.69,0
58,59.18,60.67,0
58,59.15,60.64,0
58,59.13,60.61,0
58,59.11,60.59,0
58,59.09,60.56,0
60,59.11,60.56,0
58,59.08,60.53,0
60,59.10,60.53,0
58,59.08,60.50,0
57,59.04,60.47,0
58,59.02,60.44,0
60,59.04,60.44,0
57,59.00,60.40,0
57,58.96,60.37,0
58,58.94,60.34,0
57,58.90,60.31,0
58,58.88,60.29,0
57,58.84,60.26,0
57,58.81,60.22,0
57,58.77,60.19,0
58,58.75,60.17,0
58,58.74,60.15,0
58,58.72,60.13,0
56,58.67,60.08,0
57,58.64,60.05,0
57,58.60,60.02,0
56,58.55,59.98,0
56,58.50,59.94,0
56,58.45,59.90,0
56,58.40,59.86,0
57,58.37,59.84,0
56,58.33,59.80,0
56,58.28,59.76,0
56,58.23,59.72,0
57,58.21,59.69,0
56,58.17,59.66,0
58,58.16,59.64,0
56,58.12,59.60,0
59,58.14,59.60,0
57,58.11,59.57,0
56,58.07,59.54,0
56,58.03,59.50,0
57,58.01,59.48,0
56,57.97,59.44,0
58,57.97,59.43,0
56,57.93,59.39,0
56,57.89,59.36,0
56,57.85,59.33,0
56,57.82,59.29,0
54,57.74,59.24,0
57,57.73,59.22,0
56,57.69,59.18,0
55,57.64,59.14,0
54,57.56,59.09,0
57,57.55,59.07,0
56,57.52,59.04,0
56,57.49,59.01,0
56,57.46,58.98,0
55,57.41,58.94,0
56,57.38,58.91,0
56,57.36,58.88,0
54,57.29,58.83,0
56,57.26,58.80,0
56,57.24,58.78,0
54,57.17,58.73,0
54,57.11,58.68,0
54,57.05,58.63,0
56,57.03,58.61,0
54,56.97,58.56,0
54,56.91,58.52,0
55,56.87,58.48,0
54,56.81,58.44,0
54,56.76,58.39,0
54,56.70,58.35,0
54,56.65,58.30,0
55,56.61,58.27,0
56,56.60,58.25,0
56,56.59,58.23,0
56,56.58,58.20,0
56,56.57,58.18,0
54,56.51,58.14,0
54,56.46,58.10,0
56,56.45,58.08,0
55,56.43,58.05,0
54,56.38,58.01,0
54,56.33,57.97,0
55,56.30,57.94,0
55,56.28,57.91,0
56,56.27,57.89,0
54,56.23,57.85,0
55,56.20,57.82,0
54,56.16,57.78,0
54,56.11,57.74,0
54,56.07,57.71,0
57,56.09,57.70,0
56,56.09,57.68,0
55,56.07,57.66,0
56,56.07,57.64,0
56,56.06,57.62,0
58,56.10,57.63,0
57,56.12,57.62,0
57,56.14,57.61,0
55,56.12,57.59,0
54,56.07,57.55,0
55,56.05,57.53,0
55,56.03,57.50,0
56,56.03,57.49,0
56,56.03,57.47,0
56,56.03,57.46,0
55,56.01,57.43,0
56,56.01,57.42,0
56,56.01,57.40,0
54,55.97,57.37,0
57,55.99,57.37,0
57,56.01,57.36,0
57,56.03,57.36,0
56,56.03,57.35,0
56,56.03,57.33,0
56,56.03,57.32,0
56,56.03,57.31,0
55,56.01,57.28,0
55,55.99,57.26,0
54,55.95,57.23,0
56,55.95,57.21,0
57,55.97,57.21,0
58,56.01,57.22,0
55,55.99,57.20,0
55,55.97,57.18,0
56,55.97,57.16,0
58,56.01,57.17,0
60,56.09,57.20,0
57,56.11,57.20,0
56,56.11,57.19,0
57,56.12,57.19,0
60,56.20,57.21,0
58,56.24,57.22,0
60,56.31,57.25,0
58,56.35,57.26,0
56,56.34,57.24,0
56,56.33,57.23,0
56,56.33,57.22,0
57,56.34,57.22,0
56,56.33,57.21,0
56,56.33,57.19,0
56,56.32,57.18,0
56,56.31,57.17,0
57,56.33,57.17,0
58,56.36,57.18,0
58,56.39,57.18,0
56,56.39,57.17,0
57,56.40,57.17,0
58,56.43,57.18,0
56,56.42,57.17,0
56,56.41,57.16,0
57,56.42,57.15,0
58,56.46,57.16,0
56,56.45,57.15,0
56,56.44,57.14,0
57,56.45,57.14,0
58,56.48,57.15,0
56,56.47,57.13,0
56,56.46,57.12,0
56,56.45,57.11,0
58,56.48,57.12,0
58,56.51,57.13,0
58,56.54,57.14,0
57,56.55,57.14,0
55,56.52,57.12,0
56,56.51,57.10,0
58,56.54,57.11,0
57,56.55,57.11,0
56,56.54,57.10,0
58,56.57,57.11,0
58,56.60,57.12,0
56,56.58,57.11,0
56,56.57,57.10,0
56,56.56,57.09,0
58,56.59,57.10,0
57,56.60,57.09,0
56,56.59,57.08,0
56,56.57,57.07,0
59,56.62,57.09,0
58,56.65,57.10,0
57,56.66,57.10,0
58,56.68,57.11,0
59,56.73,57.13,0
59,56.78,57.15,0
58,56.80,57.16,0
58,56.82,57.16,0
60,56.89,57.19,0
59,56.93,57.21,0
58,56.95,57.22,0
56,56.93,57.21,0
60,56.99,57.23,0
59,57.03,57.25,0
58,57.05,57.26,0
60,57.11,57.29,0
60,57.17,57.31,0
58,57.19,57.32,0
58,57.20,57.33,0
60,57.26,57.35,0
58,57.27,57.36,0
60,57.33,57.39,0
60,57.38,57.41,0
58,57.39,57.42,0
60,57.45,57.44,0
58,57.46,57.45,0
64,57.59,57.52,0
58,57.60,57.52,0
59,57.62,57.54,0
60,57.67,57.56,0
62,57.76,57.60,0
58,57.76,57.61,0
61,57.83,57.64,0
59,57.85,57.66,0
58,57.85,57.66,0
60,57.90,57.68,0
59,57.92,57.70,0
60,57.96,57.72,0
60,58.00,57.74,0
63,58.10,57.79,0
64,58.22,57.86,0
64,58.34,57.92,0
61,58.39,57.95,0
61,58.44,57.98,0
61,58.49,58.01,0
63,58.58,58.06,0
63,58.67,58.11,0
64,58.78,58.17,0
65,58.90,58.24,0
68,59.08,58.33,0
63,59.16,58.38,0
64,59.26,58.44,0
66,59.39,58.51,0
69,59.59,58.62,0
68,59.75,58.71,0
66,59.88,58.78,0
65,59.98,58.85,0
65,60.08,58.91,0
65,60.18,58.97,0
66,60.30,59.04,0
64,60.37,59.09,0
66,60.48,59.16,0
68,60.63,59.25,0
68,60.78,59.33,0
67,60.91,59.41,0
67,61.03,59.49,0
66,61.13,59.55,0
67,61.24,59.63,0
66,61.34,59.69,0
67,61.45,59.76,0
65,61.52,59.81,0
66,61.61,59.88,0
66,61.70,59.94,0
65,61.77,59.99,0
68,61.89,60.07,0
66,61.97,60.13,0
70,62.13,60.23,0
71,62.31,60.33,0
72,62.51,60.45,0
70,62.65,60.55,0
68,62.76,60.62,0
69,62.89,60.70,0
72,63.07,60.82,0
81,63.43,61.02,0
80,63.76,61.21,0
76,64.00,61.36,0
74,64.20,61.48,0
77,64.46,61.64,0
72,64.61,61.74,0
73,64.78,61.85,0
75,64.98,61.99,0
76,65.20,62.13,0
74,65.38,62.25,0
76,65.59,62.38,0
74,65.76,62.50,0
74,65.92,62.61,0
74,66.09,62.73,0
74,66.24,62.84,0
74,66.40,62.95,0
72,66.51,63.04,0
72,66.62,63.13,0
71,66.71,63.21,0
72,66.81,63.30,0
74,66.96,63.41,0
74,67.10,63.51,0
73,67.22,63.61,0
72,67.31,63.69,0
74,67.45,63.79,0
78,67.66,63.94,0
73,67.76,64.03,0
74,67.89,64.13,0
78,68.09,64.26,0
82,68.37,64.44,0
78,68.56,64.58,0
78,68.75,64.71,0
76,68.90,64.82,0
79,69.10,64.97,0
82,69.36,65.14,0
76,69.49,65.25,0
79,69.68,65.38,0
83,69.95,65.56,0
86,70.27,65.76,0
86,70.58,65.97,0
82,70.81,66.13,0
86,71.11,66.33,0
83,71.35,66.49,0
84,71.60,66.67,0
79,71.75,66.79,0
79,71.90,66.91,0
80,72.06,67.04,0
83,72.28,67.20,0
84,72.51,67.37,0
82,72.70,67.52,0
81,72.87,67.65,0
82,73.05,67.80,0
82,73.23,67.94,0
79,73.35,68.05,0
86,73.60,68.23,0
90,73.93,68.45,0
84,74.13,68.60,0
86,74.37,68.77,0
90,74.68,68.99,0
85,74.88,69.15,0
84,75.07,69.30,0
85,75.27,69.45,0
86,75.48,69.62,0
85,75.67,69.77,0
84,75.84,69.91,0
84,76.00,70.06,0
84,76.16,70.19,0
85,76.34,70.34,0
88,76.57,70.52,0
86,76.76,70.67,0
85,76.92,70.82,0
84,77.07,70.95,0
88,77.28,71.12,0
91,77.56,71.32,0
92,77.85,71.53,0
92,78.13,71.73,0
86,78.29,71.87,0
90,78.52,72.05,0
93,78.81,72.26,0
95,79.14,72.49,0
94,79.43,72.71,0
92,79.68,72.90,0
91,79.91,73.08,0
89,80.09,73.24,0
94,80.37,73.45,0
93,80.62,73.64,0
93,80.87,73.84,0
96,81.17,74.06,0
96,81.47,74.28,0
92,81.68,74.45,0
99,82.03,74.70,0
100,82.39,74.95,0
95,82.64,75.15,0
96,82.91,75.36,0
95,83.15,75.56,0
98,83.44,75.78,0
100,83.78,76.02,0
101,84.12,76.27,0
99,84.42,76.50,0
96,84.65,76.70,0
108,85.12,77.01,0
113,85.67,77.37,0
101,85.98,77.61,0
99,86.24,77.82,0
101,86.54,78.05,0
102,86.85,78.29,0
104,87.19,78.55,0
108,87.60,78.84,0
104,87.93,79.09,0
104,88.25,79.34,0
103,88.55,79.58,0
102,88.82,79.80,0
102,89.08,80.03,0
103,89.36,80.26,0
103,89.63,80.48,0
101,89.86,80.69,0
101,90.08,80.89,0
100,90.28,81.08,0
101,90.50,81.28,0
102,90.73,81.49,0
101,90.93,81.68,0
99,91.09,81.86,0
99,91.25,82.03,0
103,91.49,82.24,0
101,91.68,82.43,0
102,91.88,82.62,0
101,92.06,82.81,0
105,92.32,83.03,0
104,92.56,83.24,0
102,92.75,83.42,0
104,92.97,83.63,0
111,93.33,83.90,0
112,93.70,84.19,0
105,93.93,84.39,0
107,94.19,84.62,0
107,94.45,84.84,0
108,94.72,85.07,0
106,94.94,85.28,0
114,95.33,85.57,0
113,95.68,85.85,0
113,96.03,86.12,0
114,96.39,86.40,0
113,96.72,86.66,0
110,96.98,86.90,0
116,97.36,87.19,0
111,97.64,87.42,0
113,97.94,87.68,0
121,98.40,88.01,0
128,99.00,88.41,0
117,99.36,88.70,0
116,99.69,88.97,0
121,100.12,89.29,0
124,100.59,89.64,0
123,101.04,89.97,0
123,101.48,90.30,0
119,101.83,90.59,0
124,102.27,90.92,0
121,102.65,91.23,0
124,103.08,91.55,0
120,103.41,91.84,0
120,103.75,92.12,0
125,104.17,92.45,0
126,104.61,92.78,0
120,104.92,93.06,0
124,105.30,93.36,0
128,105.75,93.71,0
126,106.16,94.03,0
122,106.47,94.31,0
122,106.78,94.59,0
124,107.13,94.88,0
128,107.55,95.22,0
126,107.91,95.52,0
124,108.24,95.81,0
130,108.67,96.15,0
125,109.00,96.44,0
129,109.40,96.76,0
132,109.85,97.12,0
129,110.23,97.44,0
127,110.57,97.73,0
127,110.90,98.02,0
133,111.34,98.37,0
134,111.79,98.73,0
132,112.20,99.06,0
133,112.61,99.40,0
138,113.12,99.79,0
140,113.66,100.19,0
137,114.13,100.56,0
136,114.56,100.91,0
143,115.13,101.33,0
145,115.73,101.77,0
148,116.37,102.23,0
142,116.89,102.63,0
143,117.41,103.03,0
149,118.04,103.49,0
147,118.62,103.93,0
139,119.03,104.28,0
144,119.53,104.68,0
147,120.08,105.10,0
144,120.55,105.49,0
143,121.00,105.86,0
147,121.52,106.28,0
146,122.01,106.67,0
145,122.47,107.06,0
145,122.92,107.44,0
144,123.35,107.80,0
151,123.90,108.23,0
146,124.34,108.61,0
149,124.83,109.01,0
145,125.24,109.37,0
148,125.69,109.76,0
154,126.26,110.20,0
153,126.79,110.63,0
147,127.20,110.99,0
154,127.73,111.42,0
156,128.30,111.87,0
159,128.91,112.34,0
156,129.45,112.78,0
151,129.89,113.16,0
157,130.43,113.60,0
157,130.96,114.03,0
152,131.38,114.41,0
154,131.83,114.81,0
156,132.32,115.22,0
152,132.71,115.59,0
151,133.08,115.94,0
152,133.45,116.30,0
156,133.90,116.70,0
157,134.37,117.10,0
157,134.82,117.50,0
153,135.18,117.86,0
156,135.60,118.24,0
153,135.95,118.59,0
158,136.39,118.98,0
153,136.72,119.32,0
153,137.05,119.66,0
157,137.45,120.03,0
157,137.84,120.40,0
153,138.14,120.73,0
153,138.44,121.05,0
155,138.77,121.39,0
155,139.09,121.72,0
155,139.41,122.06,0
155,139.72,122.39,0
153,139.99,122.69,0
155,140.29,123.02,0
154,140.56,123.33,0
155,140.85,123.64,0
152,141.07,123.93,0
152,141.29,124.21,0
154,141.55,124.50,0
155,141.82,124.81,0
155,142.08,125.11,0
153,142.30,125.39,0
153,142.51,125.67,0
151,142.68,125.92,0
153,142.89,126.19,0
153,143.09,126.46,0
151,143.25,126.70,0
152,143.42,126.96,0
151,143.58,127.20,0
152,143.74,127.45,0
150,143.87,127.67,0
152,144.03,127.91,0
153,144.21,128.17,0
152,144.37,128.40,0
151,144.50,128.63,0
151,144.63,128.85,0
152,144.78,129.08,0
156,145.00,129.35,0
151,145.12,129.57,0
149,145.20,129.76,0
150,145.29,129.97,0
150,145.39,130.17,0
151,145.50,130.38,0
150,145.59,130.57,0
151,145.70,130.78,0
149,145.77,130.96,0
149,145.83,131.14,0
149,145.89,131.32,0
149,145.96,131.49,0
147,145.98,131.65,0
149,146.04,131.82,0
149,146.10,131.99,0
148,146.13,132.15,0
149,146.19,132.32,0
148,146.23,132.48,0
149,146.28,132.65,0
147,146.30,132.79,0
149,146.35,132.95,0
146,146.34,133.08,0
147,146.36,133.22,0
148,146.39,133.37,0
148,146.42,133.51,0
147,146.43,133.65,0
146,146.43,133.77,0
147,146.44,133.91,0
147,146.45,134.04,0
145,146.42,134.15,0
146,146.41,134.26,0
145,146.38,134.37,0
145,146.36,134.48,0
145,146.33,134.58,0
145,146.30,134.69,0
145,146.28,134.79,0
145,146.25,134.89,0
144,146.20,134.98,0
144,146.16,135.07,0
144,146.12,135.16,0
143,146.06,135.24,0
146,146.05,135.35,0
143,145.99,135.43,0
143,145.93,135.50,0
143,145.87,135.58,0
143,145.82,135.65,0
142,145.74,135.71,0
143,145.69,135.79,0
143,145.63,135.86,0
141,145.54,135.91,0
141,145.45,135.96,0
142,145.38,136.02,0
142,145.31,136.08,0
142,145.25,136.14,0
141,145.16,136.19,0
141,145.08,136.24,0
141,145.00,136.29,0
137,144.84,136.29,0
141,144.76,136.34,0
141,144.68,136.39,0
141,144.61,136.43,0
139,144.50,136.46,0
139,144.39,136.48,0
141,144.32,136.53,0
144,144.31,136.60,0
140,144.23,136.64,0
139,144.12,136.66,0
139,144.02,136.68,0
139,143.92,136.71,0
140,143.84,136.74,0
139,143.75,136.76,0
140,143.67,136.80,0
139,143.58,136.82,0
138,143.47,136.83,0
138,143.36,136.84,0
138,143.25,136.85,0
139,143.16,136.87,0
139,143.08,136.90,0
137,142.96,136.90,0
139,142.88,136.92,0
137,142.76,136.92,0
137,142.65,136.92,0
137,142.53,136.92,0
137,142.42,136.92,0
137,142.32,136.92,0
137,142.21,136.92,0
136,142.08,136.91,0
135,141.94,136.89,0
136,141.82,136.88,0
135,141.69,136.87,0
136,141.57,136.86,0
136,141.46,136.85,0
135,141.33,136.83,0
134,141.19,136.80,0
134,141.04,136.77,0
133,140.88,136.74,0
135,140.76,136.72,0
133,140.61,136.68,0
133,140.46,136.64,0
133,140.31,136.61,0
134,140.18,136.58,0
133,140.04,136.55,0
133,139.90,136.51,0
133,139.76,136.48,0
132,139.60,136.43,0
133,139.47,136.40,0
131,139.30,136.34,0
132,139.16,136.30,0
131,138.99,136.25,0
132,138.85,136.20,0
133,138.74,136.17,0
132,138.60,136.13,0
131,138.45,136.08,0
131,138.30,136.03,0
129,138.11,135.96,0
131,137.97,135.91,0
130,137.81,135.85,0
131,137.68,135.80,0
132,137.56,135.76,0
131,137.43,135.72,0
130,137.28,135.66,0
131,137.16,135.61,0
131,137.03,135.57,0
130,136.89,135.51,0
129,136.74,135.44,0
129,136.58,135.38,0
129,136.43,135.32,0
129,136.28,135.25,0
130,136.16,135.20,0
129,136.01,135.14,0
129,135.87,135.08,0
129,135.73,135.02,0
131,135.64,134.98,0
129,135.51,134.92,0
128,135.36,134.85,0
131,135.27,134.81,0
127,135.10,134.73,0
129,134.98,134.67,0
128,134.84,134.61,0
127,134.69,134.53,0
127,134.53,134.46,1
127,134.38,134.38,1
127,134.23,134.31,2
127,134.09,134.23,2
126,133.93,134.15,2
127,133.79,134.08,2
125,133.61,133.99,2
126,133.46,133.91,2
125,133.29,133.82,2
125,133.13,133.73,2
125,132.96,133.64,2
123,132.76,133.54,2
125,132.61,133.45,2
125,132.46,133.37,2
125,132.31,133.28,2
124,132.14,133.19,2
125,132.00,133.11,2
124,131.84,133.02,2
124,131.68,132.93,2
123,131.51,132.83,2
124,131.36,132.74,2
123,131.19,132.64,2
123,131.03,132.55,2
123,130.87,132.45,2
124,130.73,132.37,2
123,130.57,132.27,2
122,130.40,132.17,2
121,130.21,132.06,2
121,130.03,131.95,2
123,129.89,131.86,2
122,129.73,131.76,2
122,129.58,131.66,2
121,129.41,131.56,2
121,129.24,131.45,2
121,129.07,131.35,2
121,128.91,131.24,2
121,128.75,131.14,2
120,128.58,131.03,2
120,128.41,130.92,2
121,128.26,130.82,2
119,128.07,130.70,2
121,127.93,130.60,2
119,127.75,130.49,2
118,127.56,130.36,2
119,127.39,130.25,2
119,127.22,130.14,2
118,127.04,130.02,2
118,126.85,129.90,2
118,126.68,129.78,2
118,126.50,129.66,2
121,126.39,129.57,2
117,126.21,129.45,2
119,126.06,129.34,2
117,125.88,129.22,2
117,125.70,129.10,2
117,125.53,128.98,2
117,125.36,128.86,2
117,125.19,128.74,2
117,125.03,128.62,2
116,124.85,128.49,2
116,124.67,128.37,2
116,124.50,128.25,2
115,124.31,128.11,2
115,124.12,127.98,2
115,123.94,127.85,2
116,123.78,127.73,2
115,123.60,127.61,2
117,123.47,127.50,2
115,123.30,127.37,2
115,123.14,127.25,2
115,122.97,127.13,2
115,122.81,127.01,2
114,122.64,126.88,2
114,122.46,126.75,2
113,122.28,126.61,2
113,122.09,126.47,2
113,121.91,126.34,2
113,121.73,126.21,2
113,121.56,126.07,2
113,121.38,125.94,2
113,121.22,125.81,2
113,121.05,125.69,2
113,120.89,125.56,2
112,120.71,125.42,2
113,120.56,125.30,2
113,120.41,125.18,2
111,120.22,125.03,2
111,120.04,124.89,2
113,119.89,124.78,2
111,119.72,124.64,2
113,119.58,124.52,2
111,119.41,124.39,2
111,119.24,124.25,2
109,119.04,124.10,2
111,118.88,123.97,2
111,118.72,123.84,2
112,118.59,123.72,2
110,118.41,123.58,2
109,118.23,123.44,2
111,118.08,123.31,2
111,117.94,123.19,2
111,117.80,123.07,2
111,117.66,122.95,2
113,117.57,122.85,2
111,117.44,122.73,2
111,117.31,122.61,2
110,117.16,122.49,2
111,117.04,122.37,2
111,116.92,122.26,2
110,116.78,122.14,2
110,116.65,122.01,2
110,116.51,121.89,2
110,116.38,121.77,2
110,116.26,121.66,2
109,116.11,121.53,2
109,115.97,121.41,2
109,115.83,121.28,2
109,115.69,121.16,2
109,115.56,121.04,2
111,115.47,120.94,2
109,115.34,120.82,2
107,115.17,120.68,2
109,115.05,120.56,2
108,114.91,120.44,2
109,114.79,120.32,2
109,114.67,120.21,2
108,114.54,120.09,2
109,114.43,119.98,2
108,114.30,119.86,2
107,114.15,119.73,2
107,114.01,119.60,2
107,113.87,119.47,2
107,113.73,119.35,2
107,113.60,119.23,2
106,113.45,119.09,2
107,113.32,118.97,2
106,113.17,118.84,2
107,113.05,118.72,2
105,112.89,118.59,2
107,112.77,118.47,2
105,112.61,118.34,2
105,112.46,118.20,2
105,112.31,118.07,2
106,112.19,117.95,2
107,112.08,117.84,2
105,111.94,117.71,2
105,111.80,117.59,2
105,111.67,117.46,2
105,111.53,117.34,2
105,111.40,117.21,2
105,111.27,117.09,2
104,111.13,116.96,2
104,110.99,116.83,2
103,110.83,116.69,2
105,110.71,116.57,2
104,110.58,116.45,2
104,110.44,116.32,2
104,110.32,116.20,2
101,110.13,116.05,2
105,110.03,115.94,2
102,109.87,115.80,2
103,109.73,115.67,2
103,109.59,115.54,2
103,109.46,115.42,2
103,109.33,115.29,2
103,109.21,115.17,2
104,109.10,115.06,2
103,108.98,114.94,2
103,108.86,114.82,2
103,108.74,114.70,2
101,108.59,114.56,2
103,108.48,114.45,2
101,108.33,114.31,2
101,108.18,114.18,2
101,108.04,114.05,2
102,107.92,113.93,2
101,107.78,113.80,2
102,107.66,113.68,2
103,107.57,113.57,2
101,107.44,113.45,2
101,107.31,113.32,2
101,107.18,113.20,2
101,107.06,113.08,2
103,106.98,112.98,2
102,106.88,112.87,2
99,106.72,112.73,2
99,106.57,112.59,2
100,106.43,112.47,2
100,106.31,112.34,2
99,106.16,112.21,2
99,106.02,112.08,2
99,105.88,111.95,2
99,105.74,111.82,2
98,105.58,111.68,2
98,105.43,111.54,2
98,105.28,111.41,2
99,105.16,111.28,2
99,105.04,111.16,2
95,104.83,111.00,2
98,104.70,110.87,2
99,104.58,110.75,2
98,104.45,110.62,2
95,104.26,110.47,2
98,104.14,110.34,2
98,104.02,110.22,2
98,103.89,110.10,2
98,103.78,109.97,2
98,103.66,109.85,2
97,103.53,109.73,2
98,103.42,109.61,2
97,103.29,109.48,2
97,103.16,109.36,2
97,103.04,109.23,2
98,102.94,109.12,2
96,102.80,108.99,2
95,102.64,108.85,2
96,102.51,108.72,2
96,102.38,108.59,2
97,102.27,108.48,2
96,102.15,108.35,2
95,102.01,108.22,2
96,101.89,108.10,2
97,101.79,107.99,2
96,101.67,107.87,2
95,101.54,107.74,2
96,101.43,107.62,2
95,101.30,107.50,2
94,101.15,107.36,2
95,101.03,107.24,2
95,100.91,107.11,2
94,100.77,106.98,2
94,100.64,106.85,2
94,100.50,106.72,2
94,100.37,106.60,2
94,100.25,106.47,2
94,100.12,106.35,2
94,100.00,106.22,2
94,99.88,106.10,2
94,99.76,105.98,2
93,99.63,105.85,2
92,99.47,105.71,2
94,99.36,105.59,2
96,99.30,105.50,2
93,99.17,105.37,2
94,99.07,105.26,2
94,98.97,105.15,2
94,98.87,105.04,2
93,98.75,104.92,2
93,98.63,104.80,2
92,98.50,104.67,2
93,98.39,104.55,2
93,98.28,104.44,2
93,98.18,104.32,2
93,98.07,104.21,2
93,97.97,104.10,2
92,97.85,103.98,2
92,97.74,103.86,2
94,97.66,103.76,2
92,97.55,103.64,2
91,97.42,103.51,2
91,97.29,103.39,2
92,97.18,103.27,2
93,97.10,103.17,2
93,97.02,103.07,2
92,96.92,102.96,2
92,96.82,102.85,2
89,96.66,102.71,2
91,96.55,102.59,2
92,96.46,102.49,2
92,96.37,102.38,2
91,96.26,102.27,2
91,96.16,102.16,2
93,96.09,102.07,2
91,95.99,101.95,2
91,95.89,101.84,2
89,95.75,101.72,2
91,95.66,101.61,2
93,95.61,101.52,2
93,95.55,101.44,2
91,95.46,101.33,2
92,95.39,101.24,2
91,95.31,101.14,2
91,95.22,101.04,2
92,95.15,100.95,2
91,95.07,100.85,2
90,94.97,100.74,2
91,94.89,100.64,2
91,94.81,100.54,2
90,94.72,100.44,2
90,94.62,100.33,2
89,94.51,100.22,2
89,94.40,100.11,2
89,94.29,100.00,2
91,94.23,99.91,2
94,94.22,99.85,2
89,94.12,99.74,2
89,94.01,99.63,2
89,93.91,99.53,2
90,93.84,99.43,2
90,93.76,99.34,2
89,93.66,99.23,2
88,93.55,99.12,2
92,93.52,99.05,2
89,93.43,98.95,2
88,93.32,98.84,2
88,93.21,98.73,2
89,93.13,98.63,2
88,93.03,98.53,2
88,92.93,98.42,2
88,92.83,98.32,2
88,92.73,98.22,2
87,92.62,98.10,2
87,92.50,97.99,2
88,92.41,97.89,2
88,92.33,97.79,2
89,92.26,97.71,2
89,92.19,97.62,2
88,92.11,97.52,2
85,91.97,97.40,2
87,91.87,97.29,2
89,91.81,97.21,2
86,91.70,97.10,2
86,91.58,96.99,2
87,91.49,96.89,2
85,91.36,96.77,2
86,91.25,96.66,2
87,91.17,96.56,2
86,91.06,96.46,2
87,90.98,96.36,2
86,90.88,96.26,2
86,90.79,96.16,2
85,90.67,96.05,2
87,90.60,95.96,2
85,90.49,95.85,2
86,90.40,95.75,2
85,90.29,95.64,2
85,90.18,95.53,2
86,90.10,95.44,2
84,89.98,95.32,2
85,89.88,95.22,2
85,89.78,95.12,2
84,89.66,95.01,2
84,89.55,94.90,2
84,89.44,94.79,2
86,89.37,94.70,2
84,89.26,94.59,2
84,89.16,94.49,2
84,89.05,94.38,2
84,88.95,94.28,2
84,88.85,94.18,2
84,88.76,94.07,2
84,88.66,93.97,2
84,88.57,93.87,2
84,88.48,93.77,2
84,88.39,93.68,2
84,88.30,93.58,2
84,88.21,93.48,2
83,88.11,93.38,2
82,87.99,93.27,2
84,87.91,93.17,2
83,87.81,93.07,2
82,87.69,92.96,2
82,87.58,92.85,2
82,87.47,92.74,2
82,87.36,92.64,2
82,87.25,92.53,2
82,87.15,92.42,2
82,87.04,92.32,2
82,86.94,92.22,2
82,86.84,92.11,2
84,86.79,92.03,2
83,86.71,91.94,2
82,86.62,91.84,2
82,86.52,91.74,2
82,86.43,91.65,2
82,86.35,91.55,2
81,86.24,91.45,2
80,86.11,91.33,2
82,86.03,91.24,2
82,85.95,91.15,2
81,85.85,91.04,2
80,85.73,90.93,2
82,85.66,90.84,2
81,85.57,90.75,2
