Teste de posicionamento 2(EMG ao centro do bíceps (Vermelho A, Verde B) + Ref no cotovelo) - 19/10/2024 - teste7 - 5 contrações
long frequencia = 1000;                 //frequência de aquisição do sinal, neste caso, 1000 sinais por segundo
float fator1 = 0.02, fator2 = 0.01;
float incerteza = 0.13;
float pico_basal = 130; // Mínimo para ser considerado um pico de contração
int filtro_horizontal=200000; //intervalo de 200ms valores não pode ter mais de 1 contração

Biceps_D,mediaMovel_1,mediaMovel_2,Contracao
50,1.00,0.50,0
49,1.96,0.98,0
50,2.92,1.48,0
49,3.84,1.95,0
50,4.77,2.43,0
50,5.67,2.91,0
50,6.56,3.38,0
50,7.43,3.84,0
52,8.32,4.33,0
49,9.13,4.77,0
50,9.95,5.22,0
50,10.75,5.67,0
49,11.51,6.11,0
48,12.24,6.52,0
49,12.98,6.95,0
48,13.68,7.36,0
50,14.41,7.79,0
49,15.10,8.20,0
49,15.78,8.61,0
49,16.44,9.01,0
49,17.09,9.41,0
50,17.75,9.82,0
50,18.39,10.22,0
49,19.01,10.61,0
49,19.61,10.99,0
49,20.19,11.37,0
51,20.81,11.77,0
49,21.37,12.14,0
48,21.91,12.50,0
50,22.47,12.87,0
49,23.00,13.23,0
48,23.50,13.58,0
48,23.99,13.93,0
48,24.47,14.27,0
49,24.96,14.61,0
49,25.44,14.96,0
49,25.91,15.30,0
49,26.37,15.63,0
49,26.83,15.97,0
48,27.25,16.29,0
48,27.66,16.61,0
48,28.07,16.92,0
49,28.49,17.24,0
48,28.88,17.55,0
48,29.26,17.85,0
48,29.64,18.15,0
50,30.04,18.47,0
48,30.40,18.77,0
48,30.76,19.06,0
48,31.10,19.35,0
48,31.44,19.64,0
48,31.77,19.92,0
48,32.09,20.20,0
48,32.41,20.48,0
48,32.72,20.75,0
48,33.03,21.03,0
46,33.29,21.28,0
47,33.56,21.53,0
48,33.85,21.80,0
48,34.14,22.06,0
47,34.39,22.31,0
48,34.66,22.57,0
48,34.93,22.82,0
48,35.19,23.07,0
48,35.45,23.32,0
47,35.68,23.56,0
47,35.91,23.79,0
48,36.15,24.03,0
47,36.37,24.26,0
47,36.58,24.49,0
48,36.81,24.73,0
46,36.99,24.94,0
47,37.19,25.16,0
48,37.41,25.39,0
48,37.62,25.61,0
48,37.83,25.84,0
46,37.99,26.04,0
48,38.19,26.26,0
47,38.37,26.47,0
46,38.52,26.66,0
46,38.67,26.86,0
48,38.85,27.07,0
46,39.00,27.26,0
47,39.16,27.45,0
47,39.31,27.65,0
47,39.47,27.84,0
47,39.62,28.03,0
47,39.77,28.22,0
47,39.91,28.41,0
47,40.05,28.60,0
47,40.19,28.78,0
47,40.33,28.96,0
47,40.46,29.14,0
47,40.59,29.32,0
50,40.78,29.53,0
47,40.90,29.70,0
47,41.03,29.88,0
48,41.17,30.06,0
50,41.34,30.26,0
46,41.44,30.42,0
47,41.55,30.58,0
47,41.66,30.75,0
47,41.76,30.91,0
46,41.85,31.06,0
46,41.93,31.21,0
47,42.03,31.37,0
47,42.13,31.52,0
47,42.23,31.68,0
47,42.32,31.83,0
47,42.42,31.98,0
49,42.55,32.15,0
47,42.64,32.30,0
47,42.73,32.45,0
47,42.81,32.59,0
47,42.90,32.74,0
47,42.98,32.88,0
46,43.04,33.01,0
48,43.14,33.16,0
47,43.21,33.30,0
47,43.29,33.44,0
47,43.36,33.57,0
45,43.40,33.69,0
47,43.47,33.82,0
47,43.54,33.95,0
46,43.59,34.07,0
46,43.64,34.19,0
47,43.70,34.32,0
47,43.77,34.45,0
46,43.81,34.56,0
45,43.84,34.67,0
47,43.90,34.79,0
46,43.94,34.90,0
46,43.98,35.01,0
47,44.05,35.13,0
46,44.08,35.24,0
46,44.12,35.35,0
46,44.16,35.46,0
47,44.22,35.57,0
47,44.27,35.68,0
46,44.31,35.79,0
46,44.34,35.89,0
47,44.39,36.00,0
46,44.43,36.10,0
46,44.46,36.20,0
46,44.49,36.30,0
46,44.52,36.40,0
46,44.55,36.49,0
46,44.58,36.59,0
46,44.61,36.68,0
46,44.63,36.77,0
46,44.66,36.87,0
46,44.69,36.96,0
46,44.71,37.05,0
46,44.74,37.14,0
46,44.77,37.23,0
47,44.81,37.32,0
46,44.83,37.41,0
46,44.86,37.50,0
46,44.88,37.58,0
46,44.90,37.67,0
45,44.90,37.74,0
46,44.93,37.82,0
47,44.97,37.91,0
46,44.99,37.99,0
47,45.03,38.08,0
47,45.07,38.17,0
46,45.09,38.25,0
46,45.10,38.33,0
46,45.12,38.41,0
46,45.14,38.48,0
46,45.16,38.56,0
46,45.17,38.63,0
46,45.19,38.71,0
45,45.19,38.77,0
46,45.20,38.84,0
46,45.22,38.91,0
46,45.23,38.98,0
46,45.25,39.05,0
46,45.27,39.12,0
46,45.28,39.19,0
47,45.31,39.27,0
46,45.33,39.34,0
46,45.34,39.40,0
47,45.37,39.48,0
46,45.39,39.54,0
46,45.40,39.61,0
46,45.41,39.67,0
46,45.42,39.74,0
46,45.43,39.80,0
46,45.45,39.86,0
47,45.48,39.93,0
46,45.49,39.99,0
46,45.50,40.05,0
46,45.51,40.11,0
49,45.58,40.20,0
47,45.61,40.27,0
46,45.61,40.33,0
46,45.62,40.38,0
47,45.65,40.45,0
46,45.66,40.50,0
46,45.66,40.56,0
46,45.67,40.61,0
45,45.66,40.66,0
45,45.64,40.70,0
45,45.63,40.74,0
46,45.64,40.80,0
49,45.71,40.88,0
45,45.69,40.92,0
46,45.70,40.97,0
45,45.68,41.01,0
47,45.71,41.07,0
46,45.72,41.12,0
46,45.72,41.17,0
46,45.73,41.22,0
45,45.71,41.26,0
45,45.70,41.29,0
46,45.70,41.34,0
46,45.71,41.39,0
46,45.72,41.43,0
46,45.72,41.48,0
46,45.73,41.52,0
44,45.69,41.55,0
46,45.70,41.59,0
46,45.70,41.64,0
43,45.65,41.65,0
45,45.64,41.68,0
45,45.62,41.72,0
46,45.63,41.76,0
46,45.64,41.80,0
46,45.65,41.84,0
46,45.65,41.89,0
45,45.64,41.92,0
46,45.65,41.96,0
45,45.63,41.99,0
45,45.62,42.02,0
46,45.63,42.06,0
46,45.64,42.10,0
45,45.62,42.13,0
45,45.61,42.16,0
44,45.58,42.17,0
46,45.59,42.21,0
45,45.58,42.24,0
45,45.56,42.27,0
46,45.57,42.31,0
44,45.54,42.32,0
46,45.55,42.36,0
45,45.54,42.39,0
45,45.53,42.41,0
46,45.54,42.45,0
46,45.55,42.48,0
45,45.54,42.51,0
44,45.51,42.52,0
46,45.52,42.56,0
46,45.53,42.59,0
44,45.50,42.61,0
44,45.47,42.62,0
44,45.44,42.63,0
44,45.41,42.65,0
45,45.40,42.67,0
46,45.41,42.70,0
46,45.42,42.74,0
45,45.41,42.76,0
44,45.39,42.77,0
46,45.40,42.80,0
46,45.41,42.84,0
45,45.40,42.86,0
46,45.41,42.89,0
44,45.39,42.90,0
44,45.36,42.91,0
45,45.35,42.93,0
46,45.36,42.96,0
47,45.40,43.00,0
45,45.39,43.02,0
45,45.38,43.04,0
44,45.35,43.05,0
44,45.33,43.06,0
46,45.34,43.09,0
45,45.33,43.11,0
44,45.31,43.12,0
45,45.30,43.14,0
45,45.29,43.16,0
44,45.27,43.17,0
46,45.28,43.19,0
44,45.26,43.20,0
45,45.25,43.22,0
45,45.25,43.24,0
47,45.28,43.28,0
46,45.30,43.30,0
44,45.27,43.31,0
44,45.25,43.32,0
47,45.28,43.35,0
45,45.27,43.37,0
44,45.25,43.38,0
44,45.22,43.38,0
45,45.22,43.40,0
44,45.20,43.40,0
44,45.17,43.41,0
44,45.15,43.42,0
45,45.15,43.43,0
44,45.12,43.44,0
44,45.10,43.44,0
44,45.08,43.45,0
44,45.06,43.45,0
44,45.04,43.46,0
44,45.01,43.47,0
44,44.99,43.47,0
44,44.97,43.48,0
44,44.95,43.48,0
44,44.94,43.49,0
45,44.94,43.50,0
44,44.92,43.51,0
44,44.90,43.51,0
44,44.88,43.52,0
44,44.86,43.52,0
45,44.87,43.54,0
44,44.85,43.54,0
44,44.83,43.55,0
44,44.82,43.55,0
44,44.80,43.55,0
43,44.76,43.55,0
42,44.71,43.53,0
44,44.69,43.54,0
44,44.68,43.54,0
44,44.67,43.55,0
44,44.65,43.55,0
44,44.64,43.56,0
46,44.67,43.58,0
44,44.65,43.58,0
44,44.64,43.59,0
46,44.67,43.61,0
43,44.63,43.61,0
47,44.68,43.64,0
44,44.67,43.64,0
44,44.66,43.65,0
45,44.66,43.66,0
44,44.65,43.66,0
44,44.64,43.67,0
44,44.62,43.67,0
43,44.59,43.66,0
43,44.56,43.66,0
44,44.55,43.66,0
44,44.54,43.67,0
45,44.55,43.68,0
42,44.50,43.66,0
44,44.49,43.66,0
45,44.50,43.68,0
43,44.47,43.67,0
39,44.36,43.62,0
44,44.35,43.63,0
43,44.32,43.62,0
44,44.32,43.63,0
44,44.31,43.63,0
44,44.30,43.63,0
43,44.28,43.63,0
43,44.25,43.62,0
44,44.25,43.62,0
44,44.24,43.63,0
44,44.24,43.63,0
44,44.23,43.64,0
44,44.23,43.64,0
44,44.22,43.64,0
43,44.20,43.64,0
44,44.19,43.64,0
44,44.19,43.64,0
44,44.19,43.65,0
43,44.16,43.64,0
45,44.18,43.65,0
45,44.20,43.67,0
44,44.19,43.67,0
44,44.19,43.67,0
47,44.24,43.71,0
44,44.24,43.71,0
44,44.24,43.71,0
44,44.23,43.72,0
44,44.23,43.72,0
44,44.22,43.72,0
43,44.20,43.71,0
44,44.19,43.72,0
45,44.21,43.73,0
44,44.20,43.73,0
44,44.20,43.74,0
45,44.22,43.75,0
45,44.23,43.76,0
44,44.23,43.76,0
44,44.22,43.77,0
45,44.24,43.78,0
45,44.25,43.79,0
44,44.25,43.79,0
44,44.24,43.79,0
45,44.26,43.81,0
44,44.25,43.81,0
45,44.27,43.82,0
45,44.28,43.83,0
45,44.30,43.84,0
45,44.31,43.86,0
45,44.33,43.87,0
45,44.34,43.88,0
45,44.35,43.89,0
45,44.37,43.90,0
45,44.38,43.91,0
46,44.41,43.93,0
46,44.44,43.95,0
46,44.47,43.97,0
46,44.50,43.99,0
46,44.53,44.01,0
45,44.54,44.02,0
46,44.57,44.04,0
45,44.58,44.05,0
46,44.61,44.07,0
46,44.64,44.09,0
45,44.64,44.10,0
46,44.67,44.12,0
46,44.70,44.14,0
45,44.70,44.15,0
46,44.73,44.17,0
46,44.76,44.18,0
46,44.78,44.20,0
46,44.80,44.22,0
46,44.83,44.24,0
46,44.85,44.26,0
46,44.87,44.27,0
46,44.90,44.29,0
46,44.92,44.31,0
46,44.94,44.32,0
46,44.96,44.34,0
46,44.98,44.36,0
46,45.00,44.37,0
46,45.02,44.39,0
46,45.04,44.41,0
46,45.06,44.42,0
46,45.08,44.44,0
46,45.10,44.45,0
46,45.12,44.47,0
46,45.13,44.48,0
47,45.17,44.51,0
46,45.19,44.52,0
46,45.20,44.54,0
46,45.22,44.55,0
48,45.28,44.59,0
46,45.29,44.60,0
46,45.30,44.62,0
46,45.32,44.63,0
47,45.35,44.65,0
46,45.37,44.67,0
46,45.38,44.68,0
46,45.39,44.69,0
48,45.44,44.73,0
46,45.45,44.74,0
46,45.46,44.75,0
46,45.48,44.77,0
46,45.49,44.78,0
46,45.50,44.79,0
46,45.51,44.80,0
45,45.50,44.80,0
47,45.53,44.83,0
47,45.56,44.85,0
46,45.56,44.86,0
46,45.57,44.87,0
46,45.58,44.88,0
47,45.61,44.90,0
46,45.62,44.91,0
46,45.63,44.92,0
48,45.67,44.96,0
45,45.66,44.96,0
45,45.65,44.96,0
46,45.65,44.97,0
46,45.66,44.98,0
46,45.67,44.99,0
46,45.67,45.00,0
47,45.70,45.02,0
45,45.69,45.02,0
46,45.69,45.03,0
45,45.68,45.03,0
46,45.69,45.04,0
47,45.71,45.06,0
46,45.72,45.07,0
46,45.72,45.08,0
46,45.73,45.08,0
45,45.71,45.08,0
46,45.72,45.09,0
45,45.71,45.09,0
46,45.71,45.10,0
47,45.74,45.12,0
46,45.74,45.13,0
46,45.75,45.14,0
47,45.77,45.16,0
45,45.76,45.15,0
46,45.76,45.16,0
46,45.77,45.17,0
46,45.77,45.18,0
45,45.76,45.18,0
46,45.76,45.19,0
46,45.77,45.19,0
46,45.77,45.20,0
46,45.77,45.21,0
46,45.78,45.22,0
46,45.78,45.23,0
47,45.81,45.24,0
46,45.81,45.25,0
46,45.82,45.26,0
46,45.82,45.27,0
47,45.84,45.28,0
46,45.85,45.29,0
46,45.85,45.30,0
46,45.85,45.30,0
47,45.88,45.32,0
46,45.88,45.33,0
46,45.88,45.34,0
46,45.88,45.34,0
47,45.90,45.36,0
48,45.95,45.38,0
46,45.95,45.39,0
46,45.95,45.40,0
47,45.97,45.41,0
46,45.97,45.42,0
46,45.97,45.42,0
46,45.97,45.43,0
47,45.99,45.45,0
47,46.01,45.46,0
46,46.01,45.47,0
46,46.01,45.47,0
47,46.03,45.49,0
46,46.03,45.49,0
46,46.03,45.50,0
46,46.03,45.50,0
47,46.05,45.52,0
46,46.05,45.52,0
46,46.05,45.53,0
46,46.05,45.53,0
46,46.05,45.54,0
46,46.04,45.54,0
46,46.04,45.55,0
46,46.04,45.55,0
47,46.06,45.57,0
46,46.06,45.57,0
46,46.06,45.57,0
46,46.06,45.58,0
47,46.08,45.59,0
46,46.08,45.60,0
46,46.07,45.60,0
46,46.07,45.60,0
47,46.09,45.62,0
48,46.13,45.64,0
46,46.13,45.65,0
46,46.12,45.65,0
47,46.14,45.66,0
46,46.14,45.67,0
46,46.14,45.67,0
47,46.15,45.68,0
47,46.17,45.70,0
46,46.17,45.70,0
47,46.18,45.71,0
47,46.20,45.72,0
47,46.22,45.74,0
47,46.23,45.75,0
47,46.25,45.76,0
48,46.28,45.79,0
46,46.28,45.79,0
48,46.31,45.81,0
47,46.32,45.82,0
47,46.34,45.83,0
51,46.43,45.88,0
48,46.46,45.91,0
47,46.47,45.92,0
47,46.48,45.93,0
48,46.51,45.95,0
47,46.52,45.96,0
47,46.53,45.97,0
46,46.52,45.97,0
47,46.53,45.98,0
47,46.54,45.99,0
48,46.57,46.01,0
46,46.56,46.01,0
49,46.61,46.04,0
47,46.62,46.05,0
47,46.62,46.06,0
47,46.63,46.07,0
47,46.64,46.08,0
48,46.67,46.10,0
47,46.67,46.11,0
46,46.66,46.11,0
47,46.67,46.11,0
47,46.67,46.12,0
47,46.68,46.13,0
46,46.67,46.13,0
48,46.69,46.15,0
47,46.70,46.16,0
47,46.70,46.17,0
46,46.69,46.16,0
49,46.74,46.19,0
47,46.74,46.20,0
47,46.75,46.21,0
48,46.77,46.23,0
48,46.80,46.24,0
48,46.82,46.26,0
48,46.84,46.28,0
48,46.87,46.30,0
48,46.89,46.31,0
48,46.91,46.33,0
48,46.93,46.35,0
46,46.92,46.34,0
47,46.92,46.35,0
49,46.96,46.38,0
48,46.98,46.39,0
47,46.98,46.40,0
47,46.98,46.41,0
48,47.00,46.42,0
50,47.06,46.46,0
48,47.08,46.47,0
49,47.12,46.50,0
48,47.14,46.51,0
48,47.15,46.53,0
47,47.15,46.53,0
47,47.15,46.54,0
48,47.16,46.55,0
48,47.18,46.57,0
48,47.20,46.58,0
47,47.19,46.58,0
48,47.21,46.60,0
48,47.22,46.61,0
47,47.22,46.62,0
48,47.24,46.63,0
48,47.25,46.64,0
47,47.25,46.65,0
46,47.22,46.64,0
47,47.22,46.64,0
48,47.23,46.66,0
48,47.25,46.67,0
46,47.22,46.66,0
47,47.22,46.67,0
47,47.21,46.67,0
47,47.21,46.67,0
46,47.19,46.67,0
47,47.18,46.67,0
47,47.18,46.67,0
47,47.17,46.68,0
47,47.17,46.68,0
48,47.19,46.69,0
48,47.20,46.71,0
47,47.20,46.71,0
47,47.20,46.71,0
48,47.21,46.73,0
48,47.23,46.74,0
47,47.22,46.74,0
47,47.22,46.74,0
47,47.21,46.75,0
48,47.23,46.76,0
47,47.23,46.76,0
47,47.22,46.76,0
47,47.22,46.77,0
48,47.23,46.78,0
47,47.23,46.78,0
46,47.20,46.77,0
47,47.20,46.78,0
48,47.22,46.79,0
47,47.21,46.79,0
47,47.21,46.79,0
48,47.22,46.80,0
47,47.22,46.81,0
48,47.23,46.82,0
47,47.23,46.82,0
48,47.24,46.83,0
48,47.26,46.84,0
48,47.27,46.85,0
48,47.29,46.87,0
48,47.30,46.88,0
49,47.34,46.90,0
49,47.37,46.92,0
50,47.42,46.95,0
48,47.43,46.96,0
49,47.47,46.98,0
50,47.52,47.01,0
49,47.55,47.03,0
51,47.62,47.07,0
49,47.64,47.09,0
48,47.65,47.10,0
52,47.74,47.15,0
49,47.76,47.17,0
49,47.79,47.19,0
50,47.83,47.21,0
48,47.83,47.22,0
48,47.84,47.23,0
52,47.92,47.28,0
49,47.94,47.29,0
50,47.98,47.32,0
49,48.00,47.34,0
51,48.06,47.37,0
50,48.10,47.40,0
50,48.14,47.43,0
49,48.16,47.44,0
50,48.19,47.47,0
50,48.23,47.49,0
48,48.23,47.50,0
50,48.26,47.52,0
51,48.32,47.56,0
50,48.35,47.58,0
50,48.38,47.61,0
50,48.42,47.63,0
50,48.45,47.65,0
50,48.48,47.68,0
50,48.51,47.70,0
47,48.48,47.69,0
50,48.51,47.72,0
50,48.54,47.74,0
50,48.57,47.76,0
52,48.64,47.81,0
50,48.66,47.83,0
50,48.69,47.85,0
50,48.72,47.87,0
51,48.76,47.90,0
51,48.81,47.93,0
52,48.87,47.97,0
52,48.93,48.01,0
52,49.00,48.05,0
52,49.06,48.09,0
52,49.11,48.13,0
53,49.19,48.18,0
53,49.27,48.23,0
56,49.40,48.31,0
52,49.45,48.34,0
54,49.55,48.40,0
53,49.61,48.45,0
54,49.70,48.50,0
54,49.79,48.56,0
54,49.87,48.61,0
54,49.95,48.66,0
54,50.04,48.72,0
54,50.12,48.77,0
54,50.19,48.82,0
55,50.29,48.89,0
54,50.36,48.94,0
55,50.46,49.00,0
56,50.57,49.07,0
54,50.64,49.12,0
55,50.72,49.18,0
56,50.83,49.24,0
57,50.95,49.32,0
56,51.05,49.39,0
56,51.15,49.45,0
57,51.27,49.53,0
57,51.38,49.60,0
58,51.52,49.69,0
58,51.65,49.77,0
58,51.77,49.85,0
58,51.90,49.93,0
58,52.02,50.02,0
59,52.16,50.11,0
60,52.32,50.20,0
58,52.43,50.28,0
59,52.56,50.37,0
58,52.67,50.45,0
58,52.78,50.52,0
58,52.88,50.60,0
58,52.98,50.67,0
59,53.10,50.75,0
60,53.24,50.85,0
59,53.36,50.93,0
61,53.51,51.03,0
63,53.70,51.15,0
62,53.87,51.26,0
62,54.03,51.36,0
62,54.19,51.47,0
61,54.32,51.57,0
62,54.48,51.67,0
64,54.67,51.79,0
65,54.87,51.93,0
65,55.08,52.06,0
64,55.26,52.18,0
64,55.43,52.29,0
66,55.64,52.43,0
66,55.85,52.57,0
65,56.03,52.69,0
66,56.23,52.82,0
67,56.45,52.97,0
68,56.68,53.12,0
66,56.86,53.24,0
66,57.05,53.37,0
68,57.27,53.52,0
68,57.48,53.66,0
67,57.67,53.80,0
68,57.88,53.94,0
68,58.08,54.08,0
70,58.32,54.24,0
70,58.55,54.40,0
70,58.78,54.55,0
72,59.05,54.73,0
72,59.30,54.90,0
74,59.60,55.09,0
74,59.89,55.28,0
77,60.23,55.50,0
77,60.56,55.71,0
80,60.95,55.95,0
78,61.29,56.18,0
79,61.65,56.40,0
80,62.01,56.64,0
80,62.37,56.87,0
80,62.73,57.10,0
80,63.07,57.33,0
81,63.43,57.57,0
80,63.76,57.79,0
81,64.11,58.03,0
82,64.46,58.27,0
83,64.84,58.51,0
81,65.16,58.74,0
82,65.50,58.97,0
83,65.85,59.21,0
83,66.19,59.45,0
83,66.53,59.68,0
88,66.95,59.97,0
86,67.34,60.23,0
88,67.75,60.51,0
88,68.15,60.78,0
90,68.59,61.07,0
89,69.00,61.35,0
88,69.38,61.62,0
90,69.79,61.90,0
89,70.18,62.17,0
89,70.55,62.44,0
92,70.98,62.74,0
92,71.40,63.03,0
90,71.77,63.30,0
89,72.12,63.56,0
92,72.52,63.84,0
94,72.95,64.14,0
94,73.37,64.44,0
93,73.76,64.73,0
94,74.16,65.02,0
93,74.54,65.30,0
96,74.97,65.61,0
95,75.37,65.90,0
97,75.80,66.21,0
96,76.21,66.51,0
96,76.60,66.80,0
97,77.01,67.11,0
97,77.41,67.40,0
98,77.82,67.71,0
99,78.25,68.02,0
100,78.68,68.34,0
100,79.11,68.66,0
99,79.51,68.96,0
100,79.92,69.27,0
98,80.28,69.56,0
101,80.69,69.88,0
102,81.12,70.20,0
102,81.54,70.51,0
102,81.94,70.83,0
104,82.39,71.16,0
104,82.82,71.49,0
103,83.22,71.80,0
105,83.66,72.14,0
105,84.08,72.47,0
107,84.54,72.81,0
106,84.97,73.14,0
105,85.37,73.46,0
107,85.80,73.80,0
106,86.21,74.12,0
108,86.64,74.46,0
111,87.13,74.82,0
112,87.63,75.19,0
110,88.08,75.54,0
111,88.53,75.90,0
110,88.96,76.24,0
111,89.40,76.59,0
113,89.88,76.95,0
113,90.34,77.31,0
114,90.81,77.68,0
115,91.30,78.05,0
118,91.83,78.45,0
116,92.31,78.83,0
117,92.81,79.21,0
118,93.31,79.60,0
119,93.82,79.99,0
121,94.37,80.40,0
120,94.88,80.80,0
120,95.38,81.19,0
120,95.88,81.58,0
119,96.34,81.95,0
119,96.79,82.32,0
117,97.20,82.67,0
119,97.63,83.03,0
119,98.06,83.39,0
121,98.52,83.77,0
120,98.95,84.13,0
120,99.37,84.49,0
120,99.78,84.84,0
120,100.19,85.19,0
119,100.56,85.53,0
120,100.95,85.88,0
120,101.33,86.22,0
120,101.71,86.56,0
121,102.09,86.90,0
120,102.45,87.23,0
120,102.80,87.56,0
121,103.16,87.89,0
122,103.54,88.23,0
121,103.89,88.56,0
121,104.23,88.89,0
122,104.59,89.22,0
122,104.94,89.55,0
121,105.26,89.86,0
122,105.59,90.18,0
120,105.88,90.48,0
120,106.16,90.77,0
122,106.48,91.09,0
126,106.87,91.44,0
123,107.19,91.75,0
121,107.47,92.04,0
122,107.76,92.34,0
121,108.02,92.63,0
122,108.30,92.92,0
122,108.58,93.21,0
122,108.85,93.50,0
122,109.11,93.79,0
122,109.37,94.07,0
122,109.62,94.35,0
122,109.87,94.63,0
123,110.13,94.91,0
122,110.37,95.18,0
121,110.58,95.44,0
121,110.79,95.69,0
123,111.03,95.97,0
122,111.25,96.23,0
121,111.45,96.48,0
122,111.66,96.73,0
122,111.86,96.98,0
121,112.05,97.22,0
123,112.27,97.48,0
120,112.42,97.71,0
122,112.61,97.95,0
120,112.76,98.17,0
122,112.95,98.41,0
120,113.09,98.62,0
120,113.22,98.84,0
120,113.36,99.05,0
120,113.49,99.26,0
119,113.60,99.46,0
120,113.73,99.66,0
120,113.86,99.87,0
119,113.96,100.06,0
118,114.04,100.24,0
122,114.20,100.45,0
119,114.30,100.64,0
120,114.41,100.83,0
120,114.52,101.02,0
120,114.63,101.21,0
119,114.72,101.39,0
120,114.82,101.58,0
119,114.91,101.75,0
121,115.03,101.94,0
121,115.15,102.14,0
121,115.27,102.32,0
121,115.38,102.51,0
121,115.49,102.70,0
120,115.58,102.87,0
120,115.67,103.04,0
120,115.76,103.21,0
120,115.84,103.38,0
120,115.93,103.54,0
120,116.01,103.71,0
120,116.09,103.87,0
119,116.15,104.02,0
120,116.22,104.18,0
119,116.28,104.33,0
119,116.33,104.48,0
119,116.39,104.62,0
119,116.44,104.77,0
119,116.49,104.91,0
119,116.54,105.05,0
118,116.57,105.18,0
119,116.62,105.32,0
118,116.65,105.44,0
119,116.69,105.58,0
117,116.70,105.69,0
117,116.70,105.81,0
117,116.71,105.92,0
117,116.72,106.03,0
117,116.72,106.14,0
117,116.73,106.25,0
117,116.73,106.36,0
117,116.74,106.46,0
117,116.74,106.57,0
115,116.71,106.65,0
117,116.71,106.75,0
116,116.70,106.85,0
116,116.69,106.94,0
115,116.65,107.02,0
115,116.62,107.10,0
115,116.59,107.18,0
115,116.56,107.26,0
113,116.48,107.31,0
115,116.45,107.39,0
115,116.43,107.47,0
114,116.38,107.53,0
114,116.33,107.60,0
114,116.28,107.66,0
114,116.24,107.72,0
113,116.17,107.78,0
113,116.11,107.83,0
114,116.07,107.89,0
113,116.01,107.94,0
113,115.95,107.99,0
114,115.91,108.05,0
113,115.85,108.10,0
115,115.83,108.17,0
113,115.77,108.22,0
113,115.72,108.27,0
113,115.66,108.31,0
113,115.61,108.36,0
112,115.54,108.40,0
112,115.47,108.43,0
112,115.40,108.47,0
112,115.33,108.50,0
112,115.26,108.54,0
111,115.18,108.56,0
111,115.10,108.59,0
112,115.03,108.62,0
111,114.95,108.65,0
111,114.87,108.67,0
111,114.80,108.69,0
111,114.72,108.72,0
113,114.69,108.76,0
111,114.61,108.78,0
111,114.54,108.80,0
109,114.43,108.81,0
111,114.36,108.83,0
110,114.27,108.84,0
110,114.19,108.85,0
109,114.08,108.85,0
109,113.98,108.85,0
109,113.88,108.86,0
109,113.79,108.86,0
110,113.71,108.87,0
109,113.62,108.87,0
109,113.52,108.87,0
109,113.43,108.87,0
110,113.36,108.88,0
109,113.28,108.88,0
109,113.19,108.89,0
109,113.11,108.89,0
109,113.03,108.89,0
108,112.92,108.88,0
108,112.83,108.87,0
108,112.73,108.86,0
108,112.64,108.85,0
108,112.54,108.84,0
108,112.45,108.84,0
107,112.34,108.82,0
107,112.24,108.80,0
107,112.13,108.78,0
107,112.03,108.76,0
106,111.91,108.74,0
107,111.81,108.72,0
108,111.73,108.71,0
107,111.64,108.69,0
107,111.55,108.68,0
105,111.42,108.64,0
107,111.33,108.62,0
106,111.22,108.60,0
107,111.14,108.58,0
106,111.03,108.56,0
106,110.93,108.53,0
105,110.81,108.50,0
105,110.70,108.46,0
106,110.60,108.44,0
105,110.49,108.40,0
105,110.38,108.37,0
105,110.27,108.33,0
105,110.17,108.30,0
105,110.07,108.27,0
105,109.96,108.24,0
104,109.84,108.19,0
105,109.75,108.16,0
105,109.65,108.13,0
104,109.54,108.09,0
104,109.43,108.05,0
104,109.32,108.01,0
103,109.19,107.96,0
103,109.07,107.91,0
103,108.95,107.86,0
103,108.83,107.81,0
103,108.71,107.76,0
103,108.60,107.71,0
103,108.49,107.67,0
102,108.36,107.61,0
101,108.21,107.54,0
102,108.09,107.49,0
103,107.98,107.44,0
101,107.84,107.38,0
102,107.73,107.33,0
105,107.67,107.30,0
103,107.58,107.26,0
101,107.45,107.20,0
101,107.32,107.13,0
101,107.19,107.07,0
101,107.07,107.01,0
101,106.95,106.95,0
101,106.83,106.89,0
101,106.71,106.83,0
101,106.60,106.78,0
101,106.49,106.72,0
100,106.36,106.65,0
100,106.23,106.58,0
99,106.08,106.51,0
100,105.96,106.44,0
100,105.84,106.38,0
99,105.71,106.30,0
98,105.55,106.22,0
98,105.40,106.14,0
101,105.31,106.09,0
99,105.19,106.02,0
99,105.06,105.95,0
99,104.94,105.88,0
98,104.80,105.80,0
98,104.67,105.72,0
98,104.53,105.64,0
98,104.40,105.57,0
98,104.28,105.49,0
98,104.15,105.42,0
98,104.03,105.34,0
97,103.89,105.26,0
98,103.77,105.19,0
99,103.67,105.12,0
98,103.56,105.05,0
95,103.39,104.95,0
98,103.28,104.88,0
98,103.17,104.81,0
97,103.05,104.74,0
97,102.93,104.66,0
97,102.81,104.58,0
96,102.68,104.50,0
96,102.54,104.41,0
96,102.41,104.33,0
96,102.28,104.24,0
98,102.20,104.18,0
96,102.07,104.10,0
97,101.97,104.03,0
96,101.85,103.95,0
95,101.72,103.86,0
96,101.60,103.78,0
95,101.47,103.69,0
95,101.34,103.61,0
95,101.21,103.52,0
95,101.09,103.43,0
96,100.99,103.36,0
96,100.89,103.29,0
95,100.77,103.20,0
96,100.67,103.13,0
95,100.56,103.05,0
94,100.43,102.96,0
95,100.32,102.88,0
94,100.19,102.79,0
95,100.09,102.71,0
96,100.01,102.65,0
95,99.91,102.57,0
95,99.81,102.49,0
95,99.71,102.42,0
94,99.60,102.34,0
94,99.49,102.25,0
95,99.40,102.18,0
95,99.31,102.11,0
94,99.20,102.03,0
94,99.10,101.95,0
94,99.00,101.87,0
93,98.88,101.78,0
93,98.76,101.69,0
94,98.67,101.61,0
93,98.55,101.53,0
93,98.44,101.44,0
93,98.33,101.36,0
93,98.23,101.27,0
93,98.12,101.19,0
94,98.04,101.12,0
93,97.94,101.04,0
93,97.84,100.96,0
93,97.74,100.88,0
92,97.63,100.79,0
91,97.49,100.69,0
92,97.38,100.60,0
94,97.32,100.54,0
92,97.21,100.45,0
93,97.13,100.38,0
92,97.02,100.29,0
92,96.92,100.21,0
92,96.83,100.13,0
92,96.73,100.05,0
91,96.61,99.96,0
92,96.52,99.88,0
92,96.43,99.80,0
92,96.34,99.72,0
91,96.24,99.63,0
90,96.11,99.54,0
92,96.03,99.46,0
90,95.91,99.37,0
91,95.81,99.28,0
90,95.69,99.19,0
90,95.58,99.10,0
92,95.51,99.03,0
91,95.42,98.95,0
92,95.35,98.88,0
90,95.24,98.79,0
92,95.18,98.72,0
90,95.07,98.63,0
92,95.01,98.57,0
90,94.91,98.48,0
90,94.81,98.40,0
90,94.72,98.31,0
92,94.66,98.25,0
90,94.57,98.17,0
90,94.48,98.09,0
90,94.39,98.01,0
89,94.28,97.92,0
90,94.20,97.84,0
90,94.11,97.76,0
91,94.05,97.69,0
92,94.01,97.63,0
89,93.91,97.55,0
90,93.83,97.47,0
90,93.75,97.40,0
89,93.66,97.31,0
90,93.59,97.24,0
89,93.49,97.16,0
90,93.42,97.09,0
89,93.34,97.01,0
89,93.25,96.93,0
88,93.14,96.84,0
89,93.06,96.76,0
88,92.96,96.67,0
88,92.86,96.58,0
89,92.78,96.51,0
92,92.77,96.46,0
88,92.67,96.38,0
88,92.58,96.29,0
88,92.49,96.21,0
88,92.40,96.13,0
88,92.31,96.05,0
88,92.22,95.97,0
88,92.14,95.89,0
92,92.14,95.85,0
88,92.05,95.77,0
88,91.97,95.69,0
88,91.89,95.62,0
88,91.82,95.54,0
88,91.74,95.46,0
88,91.66,95.39,0
87,91.57,95.31,0
87,91.48,95.22,0
88,91.41,95.15,0
88,91.34,95.08,0
88,91.27,95.01,0
88,91.21,94.94,0
87,91.13,94.86,0
86,91.02,94.77,0
86,90.92,94.68,0
88,90.86,94.62,0
87,90.79,94.54,0
86,90.69,94.45,0
87,90.62,94.38,0
87,90.54,94.31,0
88,90.49,94.24,0
86,90.40,94.16,0
86,90.32,94.08,0
87,90.25,94.01,0
87,90.18,93.94,0
86,90.10,93.86,0
86,90.02,93.78,0
86,89.94,93.70,0
86,89.86,93.62,0
86,89.78,93.55,0
86,89.71,93.47,0
86,89.63,93.40,0
86,89.56,93.32,0
86,89.49,93.25,0
86,89.42,93.18,0
86,89.35,93.11,0
86,89.28,93.04,0
85,89.20,92.96,0
86,89.13,92.89,0
86,89.07,92.82,0
86,89.01,92.75,0
87,88.97,92.69,0
87,88.93,92.63,0
85,88.85,92.56,0
86,88.79,92.49,0
86,88.74,92.43,0
86,88.68,92.36,0
86,88.63,92.30,0
88,88.62,92.26,0
85,88.55,92.18,0
86,88.49,92.12,0
86,88.44,92.06,0
84,88.36,91.98,0
86,88.31,91.92,0
85,88.24,91.85,0
84,88.16,91.77,0
84,88.07,91.70,0
84,87.99,91.62,0
84,87.91,91.54,0
84,87.83,91.47,0
85,87.78,91.40,0
84,87.70,91.33,0
84,87.63,91.25,0
84,87.56,91.18,0
87,87.54,91.14,0
84,87.47,91.07,0
84,87.40,91.00,0
84,87.34,90.93,0
84,87.27,90.86,0
84,87.20,90.79,0
84,87.14,90.72,0
84,87.08,90.66,0
84,87.02,90.59,0
84,86.96,90.52,0
82,86.86,90.44,0
86,86.84,90.39,0
84,86.78,90.33,0
84,86.73,90.27,0
83,86.65,90.19,0
82,86.56,90.11,0
84,86.51,90.05,0
82,86.42,89.97,0
83,86.35,89.90,0
81,86.24,89.81,0
83,86.18,89.74,0
82,86.09,89.67,0
82,86.01,89.59,0
81,85.91,89.50,0
82,85.83,89.43,0
82,85.76,89.35,0
82,85.68,89.28,0
83,85.63,89.22,0
83,85.58,89.16,0
82,85.50,89.08,0
82,85.43,89.01,0
83,85.39,88.95,0
82,85.32,88.88,0
82,85.25,88.81,0
82,85.19,88.75,0
84,85.16,88.70,0
82,85.10,88.63,0
82,85.04,88.57,0
82,84.98,88.50,0
81,84.90,88.42,0
82,84.84,88.36,0
82,84.78,88.30,0
85,84.79,88.26,0
81,84.71,88.19,0
81,84.64,88.12,0
81,84.56,88.05,0
80,84.47,87.97,0
81,84.40,87.90,0
81,84.34,87.83,0
80,84.25,87.75,0
81,84.18,87.68,0
81,84.12,87.62,0
80,84.04,87.54,0
80,83.96,87.46,0
82,83.92,87.41,0
81,83.86,87.35,0
80,83.78,87.27,0
80,83.71,87.20,0
78,83.59,87.11,0
80,83.52,87.04,0
80,83.45,86.97,0
80,83.38,86.90,0
79,83.29,86.82,0
80,83.23,86.75,0
80,83.16,86.68,0
80,83.10,86.62,0
78,83.00,86.53,0
79,82.92,86.45,0
80,82.86,86.39,0
79,82.78,86.32,0
79,82.71,86.24,0
79,82.63,86.17,0
78,82.54,86.09,0
80,82.49,86.03,0
79,82.42,85.96,0
79,82.35,85.89,0
78,82.26,85.81,0
78,82.18,85.73,0
79,82.12,85.66,0
78,82.03,85.59,0
78,81.95,85.51,0
78,81.87,85.44,0
77,81.78,85.35,0
78,81.70,85.28,0
78,81.63,85.20,0
78,81.55,85.13,0
78,81.48,85.06,0
78,81.41,84.99,0
78,81.34,84.92,0
78,81.28,84.85,0
78,81.21,84.78,0
78,81.15,84.72,0
77,81.06,84.64,0
78,81.00,84.57,0
77,80.92,84.50,0
78,80.87,84.43,0
77,80.79,84.36,0
77,80.71,84.28,0
77,80.64,84.21,0
78,80.59,84.15,0
79,80.55,84.10,0
78,80.50,84.04,0
78,80.45,83.98,0
79,80.42,83.93,0
77,80.35,83.86,0
76,80.27,83.78,0
77,80.20,83.71,0
77,80.14,83.64,0
77,80.08,83.58,0
76,79.99,83.50,0
76,79.91,83.43,0
76,79.84,83.35,0
76,79.76,83.28,0
76,79.68,83.21,0
76,79.61,83.13,0
76,79.54,83.06,0
76,79.47,82.99,0
76,79.40,82.92,0
74,79.29,82.83,0
76,79.22,82.76,0
76,79.16,82.70,0
76,79.10,82.63,0
74,78.99,82.54,0
76,78.93,82.48,0
76,78.88,82.41,0
76,78.82,82.35,0
74,78.72,82.27,0
76,78.67,82.20,0
78,78.65,82.16,0
74,78.56,82.08,0
74,78.47,82.00,0
75,78.40,81.93,0
74,78.31,81.85,0
74,78.23,81.77,0
74,78.14,81.69,0
74,78.06,81.62,0
75,78.00,81.55,0
74,77.92,81.47,0
74,77.84,81.40,0
74,77.76,81.33,0
74,77.69,81.25,0
74,77.61,81.18,0
76,77.58,81.13,0
74,77.51,81.06,0
74,77.44,80.99,0
74,77.37,80.92,0
76,77.34,80.87,0
75,77.30,80.81,0
74,77.23,80.74,0
74,77.17,80.67,0
74,77.10,80.61,0
74,77.04,80.54,0
73,76.96,80.46,0
73,76.88,80.39,0
74,76.82,80.33,0
73,76.75,80.25,0
74,76.69,80.19,0
74,76.64,80.13,0
74,76.59,80.07,0
74,76.53,80.01,0
76,76.52,79.97,0
74,76.47,79.91,0
74,76.42,79.85,0
73,76.35,79.78,0
72,76.27,79.70,0
76,76.26,79.66,0
73,76.20,79.60,0
73,76.13,79.53,0
72,76.05,79.46,0
73,75.99,79.39,0
73,75.93,79.33,0
73,75.87,79.26,0
72,75.79,79.19,0
72,75.72,79.12,0
73,75.66,79.06,0
72,75.59,78.99,0
78,75.64,78.98,0
74,75.61,78.93,0
73,75.55,78.87,0
74,75.52,78.82,0
72,75.45,78.75,0
72,75.38,78.68,0
73,75.34,78.63,0
72,75.27,78.56,0
72,75.20,78.50,0
72,75.14,78.43,0
73,75.10,78.38,0
72,75.03,78.31,0
73,74.99,78.26,0
72,74.93,78.20,0
72,74.87,78.14,0
74,74.86,78.09,0
74,74.84,78.05,0
72,74.78,77.99,0
72,74.73,77.93,0
71,74.65,77.86,0
72,74.60,77.80,0
72,74.55,77.75,0
72,74.50,77.69,0
73,74.47,77.64,0
74,74.46,77.61,0
72,74.41,77.55,0
72,74.36,77.49,0
72,74.31,77.44,0
72,74.27,77.39,0
72,74.22,77.33,0
72,74.18,77.28,0
73,74.15,77.24,0
72,74.11,77.18,0
72,74.07,77.13,0
72,74.03,77.08,0
72,73.99,77.03,0
72,73.95,76.98,0
72,73.91,76.93,0
72,73.87,76.88,0
73,73.85,76.84,0
72,73.82,76.79,0
72,73.78,76.74,0
72,73.74,76.70,0
73,73.73,76.66,0
72,73.69,76.61,0
72,73.66,76.57,0
72,73.63,76.52,0
73,73.61,76.49,0
75,73.64,76.47,0
72,73.61,76.43,0
72,73.58,76.38,0
73,73.57,76.35,0
72,73.53,76.31,0
72,73.50,76.26,0
72,73.47,76.22,0
72,73.44,76.18,0
72,73.42,76.14,0
72,73.39,76.09,0
72,73.36,76.05,0
72,73.33,76.01,0
72,73.31,75.97,0
72,73.28,75.93,0
72,73.25,75.89,0
72,73.23,75.85,0
73,73.22,75.83,0
72,73.20,75.79,0
72,73.18,75.75,0
72,73.15,75.71,0
72,73.13,75.68,0
72,73.11,75.64,0
72,73.08,75.60,0
71,73.04,75.56,0
70,72.98,75.50,0
70,72.92,75.45,0
72,72.90,75.41,0
71,72.87,75.37,0
72,72.85,75.33,0
70,72.79,75.28,0
71,72.76,75.24,0
71,72.72,75.19,0
71,72.69,75.15,0
72,72.67,75.12,0
72,72.66,75.09,0
72,72.65,75.06,0
72,72.63,75.03,0
72,72.62,75.00,0
71,72.59,74.96,0
71,72.56,74.92,0
74,72.58,74.91,0
70,72.53,74.86,0
71,72.50,74.82,0
71,72.47,74.78,0
74,72.50,74.78,0
70,72.45,74.73,0
71,72.42,74.69,0
70,72.38,74.64,0
74,72.41,74.64,0
70,72.36,74.59,0
71,72.33,74.56,0
71,72.31,74.52,0
72,72.30,74.49,0
70,72.25,74.45,0
70,72.21,74.41,0
71,72.18,74.37,0
74,72.22,74.37,0
70,72.18,74.32,0
70,72.13,74.28,0
73,72.15,74.27,0
71,72.13,74.23,0
70,72.08,74.19,0
70,72.04,74.15,0
70,72.00,74.11,0
70,71.96,74.07,0
70,71.92,74.03,0
70,71.88,73.99,0
71,71.87,73.96,0
70,71.83,73.92,0
70,71.79,73.88,0
70,71.76,73.84,0
69,71.70,73.79,0
69,71.65,73.74,0
70,71.61,73.71,0
70,71.58,73.67,0
69,71.53,73.62,0
69,71.48,73.58,0
69,71.43,73.53,0
70,71.40,73.49,0
69,71.35,73.45,0
69,71.31,73.41,0
69,71.26,73.36,0
70,71.24,73.33,0
70,71.21,73.29,0
70,71.19,73.26,0
70,71.16,73.23,0
70,71.14,73.20,0
69,71.10,73.15,0
70,71.07,73.12,0
70,71.05,73.09,0
70,71.03,73.06,0
69,70.99,73.02,0
70,70.97,72.99,0
70,70.95,72.96,0
69,70.91,72.92,0
71,70.92,72.90,0
70,70.90,72.87,0
70,70.88,72.84,0
68,70.82,72.80,0
70,70.80,72.77,0
70,70.79,72.74,0
69,70.75,72.70,0
70,70.74,72.68,0
69,70.70,72.64,0
70,70.69,72.61,0
70,70.68,72.59,0
70,70.66,72.56,0
70,70.65,72.53,0
70,70.64,72.51,0
70,70.62,72.48,0
70,70.61,72.46,0
70,70.60,72.43,0
68,70.55,72.39,0
68,70.50,72.35,0
70,70.49,72.32,0
69,70.46,72.29,0
68,70.41,72.25,0
68,70.36,72.20,0
69,70.33,72.17,0
69,70.30,72.14,0
68,70.26,72.10,0
68,70.21,72.06,0
68,70.17,72.02,0
68,70.13,71.98,0
68,70.08,71.94,0
68,70.04,71.90,0
68,70.00,71.86,0
68,69.96,71.82,0
70,69.96,71.80,0
68,69.92,71.76,0
68,69.88,71.73,0
68,69.85,71.69,0
68,69.81,71.65,0
68,69.77,71.62,0
68,69.74,71.58,0
68,69.70,71.54,0
68,69.67,71.51,0
70,69.68,71.49,0
69,69.66,71.47,0
69,69.65,71.44,0
68,69.62,71.41,0
70,69.62,71.40,0
69,69.61,71.37,0
68,69.58,71.34,0
68,69.55,71.30,0
70,69.56,71.29,0
68,69.53,71.26,0
70,69.53,71.25,0
69,69.52,71.22,0
68,69.49,71.19,0
68,69.46,71.16,0
70,69.47,71.15,0
69,69.46,71.13,0
68,69.44,71.09,0
68,69.41,71.06,0
68,69.38,71.03,0
68,69.35,71.00,0
68,69.32,70.97,0
68,69.30,70.94,0
69,69.29,70.92,0
68,69.27,70.89,0
68,69.24,70.87,0
67,69.20,70.83,0
68,69.17,70.80,0
68,69.15,70.77,0
68,69.13,70.74,0
68,69.10,70.72,0
68,69.08,70.69,0
68,69.06,70.66,0
68,69.04,70.63,0
66,68.98,70.59,0
72,69.04,70.60,0
68,69.02,70.58,0
67,68.98,70.54,0
68,68.96,70.52,0
68,68.94,70.49,0
68,68.92,70.47,0
68,68.90,70.44,0
66,68.84,70.40,0
68,68.83,70.37,0
67,68.79,70.34,0
66,68.73,70.30,0
68,68.72,70.27,0
68,68.70,70.25,0
67,68.67,70.22,0
66,68.62,70.18,0
69,68.62,70.16,0
65,68.55,70.11,0
68,68.54,70.09,0
66,68.49,70.05,0
68,68.48,70.03,0
68,68.47,70.01,0
67,68.44,69.98,0
68,68.43,69.96,0
69,68.44,69.95,0
68,68.44,69.93,0
67,68.41,69.90,0
66,68.36,69.86,0
68,68.35,69.84,0
67,68.32,69.81,0
67,68.30,69.79,0
66,68.25,69.75,0
68,68.25,69.73,0
68,68.24,69.71,0
67,68.22,69.69,0
68,68.21,69.67,0
68,68.21,69.65,0
67,68.18,69.63,0
66,68.14,69.59,0
67,68.12,69.56,0
68,68.12,69.55,0
68,68.11,69.53,0
66,68.07,69.50,0
68,68.07,69.48,0
67,68.05,69.46,0
67,68.03,69.43,0
66,67.99,69.40,0
68,67.99,69.39,0
68,67.99,69.37,0
67,67.97,69.35,0
68,67.97,69.33,0
68,67.97,69.32,0
66,67.93,69.29,0
66,67.89,69.25,0
66,67.85,69.22,0
68,67.86,69.21,0
66,67.82,69.18,0
68,67.82,69.17,0
66,67.79,69.13,0
68,67.79,69.12,0
66,67.75,69.09,0
66,67.72,69.06,0
70,67.76,69.07,0
66,67.73,69.04,0
67,67.71,69.02,0
66,67.68,68.99,0
67,67.67,68.97,0
68,67.67,68.96,0
66,67.64,68.93,0
69,67.67,68.93,0
65,67.61,68.89,0
67,67.60,68.87,0
67,67.59,68.85,0
67,67.58,68.84,0
65,67.53,68.80,0
66,67.50,68.77,0
67,67.49,68.75,0
69,67.52,68.75,0
68,67.53,68.75,0
66,67.50,68.72,0
67,67.49,68.70,0
68,67.50,68.69,0
68,67.51,68.69,0
66,67.48,68.66,0
68,67.49,68.65,0
68,67.50,68.65,0
68,67.51,68.64,0
66,67.48,68.61,0
66,67.45,68.59,0
68,67.46,68.58,0
66,67.43,68.56,0
66,67.40,68.53,0
70,67.45,68.55,0
67,67.44,68.53,0
68,67.45,68.53,0
66,67.43,68.50,0
66,67.40,68.47,0
67,67.39,68.46,0
67,67.38,68.45,0
66,67.35,68.42,0
67,67.35,68.41,0
68,67.36,68.40,0
68,67.37,68.40,0
68,67.38,68.39,0
66,67.36,68.37,0
68,67.37,68.37,0
67,67.36,68.35,0
66,67.34,68.33,0
68,67.35,68.33,0
68,67.36,68.32,0
67,67.35,68.31,0
66,67.33,68.29,0
68,67.34,68.28,0
68,67.35,68.28,0
67,67.35,68.27,0
68,67.36,68.27,0
70,67.41,68.28,0
68,67.42,68.28,0
68,67.44,68.28,0
70,67.49,68.29,0
68,67.50,68.29,0
68,67.51,68.29,0
68,67.52,68.29,0
68,67.53,68.28,0
70,67.58,68.30,0
69,67.61,68.31,0
68,67.61,68.30,0
68,67.62,68.30,0
70,67.67,68.32,0
69,67.69,68.32,0
68,67.70,68.32,0
68,67.71,68.32,0
67,67.69,68.31,0
71,67.76,68.33,0
70,67.80,68.35,0
70,67.85,68.37,0
70,67.89,68.38,0
70,67.93,68.40,0
70,67.97,68.41,0
71,68.03,68.44,0
71,68.09,68.47,0
70,68.13,68.48,0
70,68.17,68.50,0
70,68.21,68.51,0
73,68.30,68.56,0
72,68.38,68.59,0
73,68.47,68.63,0
72,68.54,68.67,0
73,68.63,68.71,0
75,68.76,68.77,0
74,68.86,68.83,0
76,69.00,68.90,0
74,69.10,68.95,0
74,69.20,69.00,0
74,69.30,69.05,0
76,69.43,69.12,0
75,69.54,69.18,0
76,69.67,69.25,0
74,69.76,69.29,0
76,69.88,69.36,0
76,70.01,69.43,0
76,70.13,69.49,0
76,70.24,69.56,0
76,70.36,69.62,0
76,70.47,69.69,0
77,70.60,69.76,0
76,70.71,69.82,0
76,70.82,69.88,0
78,70.96,69.96,0
76,71.06,70.03,0
76,71.16,70.08,0
77,71.28,70.15,0
78,71.41,70.23,0
77,71.52,70.30,0
78,71.65,70.38,0
78,71.78,70.45,0
79,71.92,70.54,0
79,72.06,70.62,0
78,72.18,70.70,0
78,72.30,70.77,0
78,72.41,70.84,0
77,72.51,70.90,0
79,72.63,70.99,0
78,72.74,71.06,0
78,72.85,71.12,0
80,72.99,71.21,0
80,73.13,71.30,0
78,73.23,71.37,0
80,73.36,71.45,0
81,73.52,71.55,0
80,73.65,71.63,0
80,73.77,71.72,0
80,73.90,71.80,0
81,74.04,71.89,0
82,74.20,71.99,0
82,74.35,72.09,0
82,74.51,72.19,0
81,74.64,72.28,0
82,74.78,72.38,0
82,74.93,72.47,0
82,75.07,72.57,0
82,75.21,72.66,0
84,75.38,72.78,0
82,75.52,72.87,0
84,75.69,72.98,0
85,75.87,73.10,0
86,76.08,73.23,0
84,76.23,73.34,0
84,76.39,73.44,0
85,76.56,73.56,0
86,76.75,73.68,0
86,76.94,73.81,0
85,77.10,73.92,0
85,77.25,74.03,0
86,77.43,74.15,0
86,77.60,74.27,0
87,77.79,74.40,0
87,77.97,74.52,0
88,78.17,74.66,0
88,78.37,74.79,0
88,78.56,74.92,0
87,78.73,75.04,0
88,78.92,75.17,0
88,79.10,75.30,0
90,79.32,75.45,0
88,79.49,75.57,0
88,79.66,75.70,0
90,79.87,75.84,0
90,80.07,75.98,0
90,80.27,76.12,0
90,80.46,76.26,0
92,80.69,76.42,0
91,80.90,76.56,0
91,81.10,76.71,0
92,81.32,76.86,0
92,81.53,77.01,0
91,81.72,77.15,0
91,81.91,77.29,0
90,82.07,77.42,0
92,82.27,77.56,0
93,82.48,77.72,0
95,82.73,77.89,0
95,82.98,78.06,0
96,83.24,78.24,0
95,83.47,78.41,0
97,83.75,78.60,0
100,84.07,78.81,0
98,84.35,79.00,0
99,84.64,79.20,0
99,84.93,79.40,0
99,85.21,79.60,0
98,85.47,79.78,0
100,85.76,79.98,0
102,86.08,80.20,0
103,86.42,80.43,0
104,86.77,80.67,0
103,87.10,80.89,0
103,87.41,81.11,0
101,87.69,81.31,0
104,88.01,81.54,0
105,88.35,81.77,0
105,88.69,82.00,0
105,89.01,82.23,0
105,89.33,82.46,0
107,89.68,82.71,0
107,90.03,82.95,0
108,90.39,83.20,0
108,90.74,83.45,0
109,91.11,83.70,0
110,91.49,83.97,0
108,91.82,84.21,0
110,92.18,84.46,0
111,92.56,84.73,0
109,92.88,84.97,0
109,93.21,85.21,0
111,93.56,85.47,0
110,93.89,85.72,0
110,94.21,85.96,0
111,94.55,86.21,0
111,94.88,86.46,0
111,95.20,86.70,0
111,95.52,86.95,0
111,95.83,87.19,0
111,96.13,87.42,0
113,96.47,87.68,0
114,96.82,87.94,0
114,97.16,88.20,0
113,97.48,88.45,0
113,97.79,88.70,0
115,98.13,88.96,0
115,98.47,89.22,0
114,98.78,89.47,0
117,99.15,89.74,0
119,99.54,90.04,0
119,99.93,90.33,0
120,100.33,90.62,0
120,100.73,90.92,0
120,101.11,91.21,0
120,101.49,91.49,0
120,101.86,91.78,0
120,102.22,92.06,0
122,102.62,92.36,0
122,103.01,92.66,0
123,103.41,92.96,0
121,103.76,93.24,0
124,104.16,93.55,0
122,104.52,93.83,0
121,104.85,94.11,0
121,105.17,94.37,0
122,105.51,94.65,0
122,105.84,94.92,0
122,106.16,95.19,0
122,106.48,95.46,0
122,106.79,95.73,0
122,107.09,95.99,0
123,107.41,96.26,0
122,107.70,96.52,0
121,107.97,96.76,0
122,108.25,97.02,0
122,108.52,97.27,0
122,108.79,97.51,0
123,109.08,97.77,0
124,109.38,98.03,0
123,109.65,98.28,0
123,109.92,98.53,0
123,110.18,98.77,0
124,110.45,99.02,0
126,110.77,99.29,0
124,111.03,99.54,0
126,111.33,99.81,0
124,111.58,100.05,0
126,111.87,100.31,0
125,112.13,100.55,0
125,112.39,100.80,0
125,112.64,101.04,0
125,112.89,101.28,0
126,113.15,101.53,0
125,113.39,101.76,0
126,113.64,102.00,0
125,113.87,102.23,0
126,114.11,102.47,0
126,114.35,102.71,0
125,114.56,102.93,0
125,114.77,103.15,0
126,115.00,103.38,0
127,115.24,103.62,0
125,115.43,103.83,0
127,115.66,104.06,0
126,115.87,104.28,0
128,116.11,104.52,0
129,116.37,104.76,0
128,116.60,104.99,0
128,116.83,105.22,0
128,117.05,105.45,0
127,117.25,105.67,0
129,117.49,105.90,0
127,117.68,106.11,0
127,117.86,106.32,0
129,118.09,106.55,0
129,118.30,106.77,0
129,118.52,106.99,0
128,118.71,107.20,0
129,118.91,107.42,0
129,119.12,107.64,0
128,119.29,107.84,0
129,119.49,108.05,0
128,119.66,108.25,0
128,119.82,108.45,0
128,119.99,108.65,0
127,120.13,108.83,0
127,120.27,109.01,0
127,120.40,109.19,0
127,120.53,109.37,0
128,120.68,109.56,0
128,120.83,109.74,0
127,120.95,109.91,0
127,121.07,110.08,0
127,121.19,110.25,0
127,121.31,110.42,0
127,121.42,110.59,0
125,121.49,110.73,0
127,121.60,110.89,0
127,121.71,111.05,0
126,121.80,111.20,0
125,121.86,111.34,0
125,121.92,111.48,0
125,121.99,111.61,0
125,122.05,111.75,0
126,122.12,111.89,0
125,122.18,112.02,0
125,122.24,112.15,0
129,122.37,112.32,0
126,122.45,112.46,0
125,122.50,112.58,0
125,122.55,112.71,0
125,122.60,112.83,0
125,122.64,112.95,0
125,122.69,113.07,0
125,122.74,113.19,0
126,122.80,113.32,0
126,122.87,113.44,0
125,122.91,113.56,0
125,122.95,113.67,0
125,122.99,113.79,0
125,123.03,113.90,0
127,123.11,114.03,0
125,123.15,114.14,0
124,123.17,114.24,0
125,123.20,114.35,0
125,123.24,114.45,0
125,123.27,114.56,0
124,123.29,114.65,0
125,123.32,114.76,0
125,123.36,114.86,0
124,123.37,114.95,0
126,123.42,115.06,0
124,123.43,115.15,0
124,123.45,115.24,0
124,123.46,115.33,0
123,123.45,115.40,0
124,123.46,115.49,0
124,123.47,115.57,0
123,123.46,115.65,0
123,123.45,115.72,0
124,123.46,115.81,0
123,123.45,115.88,0
124,123.46,115.96,0
123,123.45,116.03,0
123,123.44,116.10,0
123,123.44,116.17,0
122,123.41,116.23,0
122,123.38,116.28,0
124,123.39,116.36,0
121,123.34,116.41,0
121,123.30,116.45,0
121,123.25,116.50,0
121,123.21,116.54,0
122,123.18,116.60,0
121,123.14,116.64,0
121,123.10,116.69,0
121,123.05,116.73,0
121,123.01,116.77,0
120,122.95,116.80,0
121,122.91,116.85,0
121,122.87,116.89,0
120,122.82,116.92,0
120,122.76,116.95,0
121,122.73,116.99,0
119,122.65,117.01,0
119,122.58,117.03,0
119,122.51,117.05,0
117,122.40,117.05,0
119,122.33,117.07,0
119,122.26,117.09,0
118,122.18,117.10,0
118,122.09,117.11,0
117,121.99,117.10,0
118,121.91,117.11,0
117,121.81,117.11,0
117,121.72,117.11,0
117,121.62,117.11,0
118,121.55,117.12,0
117,121.46,117.12,0
117,121.37,117.12,0
117,121.28,117.12,0
117,121.20,117.11,0
117,121.11,117.11,0
116,121.01,117.10,0
116,120.91,117.09,0
116,120.81,117.08,0
117,120.74,117.08,0
116,120.64,117.07,0
115,120.53,117.05,0
116,120.44,117.04,0
115,120.33,117.02,0
116,120.24,117.01,0
116,120.16,117.00,0
115,120.05,116.98,0
115,119.95,116.96,0
116,119.87,116.95,0
115,119.78,116.93,0
116,119.70,116.92,0
115,119.61,116.90,0
113,119.48,116.86,0
113,119.35,116.82,0
114,119.24,116.79,0
113,119.11,116.76,0
114,119.01,116.73,0
113,118.89,116.69,0
113,118.77,116.65,0
113,118.66,116.62,0
113,118.55,116.58,0
113,118.43,116.55,0
113,118.33,116.51,0
113,118.22,116.48,0
112,118.09,116.43,0
112,117.97,116.39,0
113,117.87,116.35,0
113,117.78,116.32,0
111,117.64,116.27,0
111,117.51,116.21,0
111,117.38,116.16,0
112,117.27,116.12,0
111,117.14,116.07,0
111,117.02,116.02,0
111,116.90,115.97,0
111,116.78,115.92,0
111,116.67,115.87,0
111,116.55,115.82,0
110,116.42,115.76,0
111,116.31,115.71,0
111,116.21,115.67,0
111,116.10,115.62,0
111,116.00,115.57,0
110,115.88,115.52,0
109,115.74,115.45,0
109,115.61,115.39,0
109,115.48,115.32,0
109,115.35,115.26,0
111,115.26,115.22,0
109,115.14,115.16,0
109,115.01,115.09,0
109,114.89,115.03,0
109,114.77,114.97,0
109,114.66,114.91,0
108,114.53,114.84,0
109,114.42,114.79,0
109,114.31,114.73,0
109,114.20,114.67,0
109,114.10,114.61,0
109,114.00,114.56,0
108,113.88,114.49,0
108,113.76,114.43,0
108,113.64,114.36,0
109,113.55,114.31,0
107,113.42,114.24,0
108,113.31,114.17,0
107,113.18,114.10,0
107,113.06,114.03,0
107,112.94,113.96,0
109,112.86,113.91,0
107,112.74,113.84,0
107,112.63,113.77,0
107,112.52,113.71,0
106,112.39,113.63,0
106,112.26,113.55,0
105,112.11,113.47,0
106,111.99,113.39,0
105,111.85,113.31,0
106,111.73,113.24,0
105,111.60,113.15,0
107,111.51,113.09,0
105,111.38,113.01,0
105,111.25,112.93,0
105,111.12,112.85,0
105,111.00,112.77,0
104,110.86,112.69,0
106,110.76,112.62,0
105,110.65,112.54,0
105,110.54,112.47,0
105,110.43,112.39,0
104,110.30,112.31,0
105,110.19,112.24,0
104,110.07,112.15,0
105,109.97,112.08,0
104,109.85,112.00,0
104,109.73,111.92,0
104,109.62,111.84,0
105,109.52,111.77,0
104,109.41,111.70,0
103,109.28,111.61,0
101,109.12,111.50,0
103,109.00,111.42,0
103,108.88,111.33,0
103,108.76,111.25,0
103,108.64,111.17,0
103,108.53,111.09,0
103,108.42,111.00,0
102,108.29,110.91,0
102,108.17,110.83,0
102,108.04,110.74,0
102,107.92,110.65,0
101,107.78,110.55,0
101,107.65,110.46,0
101,107.51,110.36,0
103,107.42,110.29,0
101,107.30,110.20,0
101,107.17,110.10,0
101,107.05,110.01,0
102,106.95,109.93,0
101,106.83,109.84,0
101,106.71,109.76,0
100,106.58,109.66,0
100,106.44,109.56,0
101,106.34,109.48,0
100,106.21,109.38,0
100,106.08,109.29,0
100,105.96,109.19,0
100,105.84,109.10,0
99,105.71,109.00,0
99,105.57,108.90,0
98,105.42,108.79,0
96,105.23,108.66,0
100,105.13,108.58,0
99,105.01,108.48,0
99,104.89,108.39,0
99,104.77,108.29,0
98,104.63,108.19,0
99,104.52,108.10,0
98,104.39,108.00,0
98,104.26,107.90,0
98,104.14,107.80,0
98,104.01,107.70,0
98,103.89,107.60,0
98,103.78,107.51,0
99,103.68,107.42,0
98,103.57,107.33,0
98,103.46,107.24,0
97,103.33,107.13,0
96,103.18,107.02,0
97,103.06,106.92,0
97,102.93,106.82,0
96,102.80,106.71,0
96,102.66,106.61,0
96,102.53,106.50,0
96,102.40,106.40,0
96,102.27,106.29,0
96,102.14,106.19,0
98,102.06,106.11,0
96,101.94,106.01,0
97,101.84,105.92,0
96,101.72,105.82,0
96,101.61,105.72,0
96,101.50,105.62,0
95,101.37,105.52,0
95,101.24,105.41,0
96,101.13,105.32,0
96,101.03,105.22,0
95,100.91,105.12,0
95,100.79,105.02,0
94,100.66,104.91,0
94,100.52,104.80,0
97,100.45,104.72,0
96,100.36,104.63,0
96,100.28,104.55,0
94,100.15,104.44,0
95,100.05,104.35,0
94,99.93,104.24,0
96,99.85,104.16,0
95,99.75,104.07,0
95,99.66,103.98,0
95,99.56,103.89,0
95,99.47,103.80,0
95,99.38,103.71,0
95,99.30,103.63,0
93,99.17,103.52,0
95,99.09,103.43,0
94,98.98,103.34,0
95,98.90,103.26,0
95,98.83,103.17,0
95,98.75,103.09,0
94,98.66,103.00,0
94,98.56,102.91,0
94,98.47,102.82,0
93,98.36,102.72,0
93,98.25,102.63,0
93,98.15,102.53,0
93,98.05,102.44,0
95,97.99,102.36,0
93,97.89,102.27,0
93,97.79,102.18,0
93,97.69,102.08,0
93,97.60,101.99,0
93,97.51,101.90,0
93,97.42,101.81,0
93,97.33,101.73,0
93,97.24,101.64,0
93,97.16,101.55,0
94,97.09,101.48,0
93,97.01,101.39,0
93,96.93,101.31,0
93,96.85,101.22,0
93,96.78,101.14,0
93,96.70,101.06,0
92,96.61,100.97,0
91,96.49,100.87,0
92,96.40,100.78,0
92,96.32,100.69,0
92,96.23,100.61,0
93,96.17,100.53,0
92,96.08,100.45,0
91,95.98,100.35,0
92,95.90,100.27,0
92,95.82,100.18,0
92,95.75,100.10,0
91,95.65,100.01,0
92,95.58,99.93,0
92,95.51,99.85,0
92,95.44,99.77,0
91,95.35,99.69,0
90,95.24,99.59,0
92,95.18,99.51,0
91,95.09,99.43,0
91,95.01,99.34,0
90,94.91,99.25,0
92,94.85,99.18,0
92,94.80,99.11,0
90,94.70,99.02,0
90,94.61,98.93,0
89,94.49,98.83,0
90,94.40,98.74,0
92,94.36,98.67,0
90,94.27,98.58,0
91,94.20,98.51,0
90,94.12,98.42,0
90,94.04,98.34,0
90,93.96,98.26,0
90,93.88,98.17,0
90,93.80,98.09,0
90,93.72,98.01,0
90,93.65,97.93,0
90,93.58,97.85,0
89,93.48,97.76,0
90,93.41,97.68,0
90,93.35,97.61,0
90,93.28,97.53,0
90,93.21,97.46,0
88,93.11,97.36,0
90,93.05,97.29,0
89,92.97,97.21,0
89,92.89,97.12,0
90,92.83,97.05,0
88,92.73,96.96,0
89,92.66,96.88,0
90,92.60,96.81,0
88,92.51,96.72,0
94,92.54,96.70,0
88,92.45,96.61,0
88,92.36,96.52,0
88,92.28,96.44,0
88,92.19,96.35,0
88,92.11,96.27,0
88,92.02,96.19,0
90,91.98,96.13,0
89,91.92,96.06,0
90,91.89,95.99,0
90,91.85,95.93,0
90,91.81,95.88,0
89,91.75,95.81,0
90,91.72,95.75,0
90,91.68,95.69,0
89,91.63,95.62,0
88,91.56,95.55,0
89,91.51,95.48,0
92,91.52,95.45,0
90,91.49,95.39,0
89,91.44,95.33,0
90,91.41,95.28,0
90,91.38,95.22,0
92,91.39,95.19,0
90,91.36,95.14,0
91,91.36,95.10,0
93,91.39,95.08,0
92,91.40,95.05,0
91,91.39,95.01,0
90,91.37,94.96,0
93,91.40,94.94,0
90,91.37,94.89,0
90,91.34,94.84,0
91,91.34,94.80,0
89,91.29,94.74,0
90,91.26,94.69,0
90,91.24,94.65,0
90,91.21,94.60,0
92,91.23,94.57,0
89,91.19,94.52,0
90,91.16,94.47,0
91,91.16,94.44,0
89,91.12,94.38,0
89,91.07,94.33,0
88,91.01,94.27,0
89,90.97,94.21,0
90,90.95,94.17,0
89,90.91,94.12,0
90,90.89,94.08,0
88,90.84,94.02,0
89,90.80,93.97,0
88,90.74,93.91,0
88,90.69,93.85,0
89,90.66,93.80,0
89,90.62,93.75,0
88,90.57,93.70,0
88,90.52,93.64,0
89,90.49,93.59,0
89,90.46,93.55,0
89,90.43,93.50,0
89,90.40,93.46,0
88,90.35,93.40,0
89,90.33,93.36,0
88,90.28,93.30,0
88,90.23,93.25,0
88,90.19,93.20,0
89,90.17,93.16,0
89,90.14,93.11,0
88,90.10,93.06,0
89,90.08,93.02,0
88,90.04,92.97,0
88,89.99,92.92,0
88,89.95,92.87,0
89,89.94,92.84,0
88,89.90,92.79,0
88,89.86,92.74,0
88,89.82,92.69,0
90,89.83,92.66,0
88,89.79,92.62,0
88,89.75,92.57,0
88,89.72,92.53,0
88,89.68,92.48,0
89,89.67,92.45,0
88,89.64,92.40,0
88,89.60,92.36,0
87,89.55,92.30,0
88,89.52,92.26,0
88,89.49,92.22,0
89,89.48,92.19,0
89,89.47,92.15,0
88,89.44,92.11,0
88,89.41,92.07,0
88,89.38,92.03,0
87,89.34,91.98,0
87,89.29,91.93,0
87,89.24,91.88,0
86,89.18,91.82,0
88,89.16,91.78,0
88,89.13,91.75,0
86,89.07,91.69,0
86,89.01,91.63,0
87,88.97,91.59,0
88,88.95,91.55,0
88,88.93,91.51,0
88,88.91,91.48,0
87,88.87,91.43,0
87,88.84,91.39,0
86,88.78,91.34,0
87,88.74,91.29,0
86,88.69,91.24,0
86,88.63,91.19,0
86,88.58,91.14,0
86,88.53,91.08,0
86,88.48,91.03,0
87,88.45,90.99,0
92,88.52,91.00,0
86,88.47,90.95,0
86,88.42,90.90,0
86,88.37,90.85,0
86,88.33,90.81,0
86,88.28,90.76,0
86,88.23,90.71,0
85,88.17,90.65,0
86,88.13,90.61,0
86,88.08,90.56,0
86,88.04,90.52,0
86,88.00,90.47,0
86,87.96,90.43,0
86,87.92,90.38,0
86,87.88,90.34,0
85,87.83,90.28,0
84,87.75,90.22,0
86,87.71,90.18,0
87,87.70,90.15,0
86,87.67,90.11,0
86,87.63,90.06,0
86,87.60,90.02,0
85,87.55,89.97,0
85,87.50,89.92,0
86,87.47,89.88,0
86,87.44,89.85,0
85,87.39,89.80,0
86,87.36,89.76,0
86,87.33,89.72,0
86,87.31,89.68,0
87,87.30,89.66,0
85,87.25,89.61,0
86,87.23,89.58,0
84,87.17,89.52,0
85,87.12,89.47,0
85,87.08,89.43,0
84,87.02,89.38,0
84,86.96,89.32,0
85,86.92,89.28,0
86,86.90,89.25,0
84,86.84,89.19,0
84,86.79,89.14,0
84,86.73,89.09,0
84,86.67,89.04,0
84,86.62,88.99,0
84,86.57,88.94,0
83,86.50,88.88,0
84,86.45,88.83,0
84,86.40,88.78,0
84,86.35,88.73,0
84,86.30,88.69,0
83,86.24,88.63,0
84,86.19,88.58,0
85,86.17,88.55,0
84,86.13,88.50,0
83,86.06,88.45,0
86,86.06,88.42,0
84,86.02,88.38,0
84,85.98,88.33,0
84,85.94,88.29,0
84,85.90,88.25,0
84,85.86,88.21,0
84,85.83,88.16,0
83,85.77,88.11,0
84,85.73,88.07,0
84,85.70,88.03,0
83,85.65,87.98,0
83,85.59,87.93,0
82,85.52,87.87,0
84,85.49,87.83,0
83,85.44,87.78,0
84,85.41,87.75,0
82,85.34,87.69,0
84,85.32,87.65,0
83,85.27,87.61,0
83,85.23,87.56,0
83,85.18,87.51,0
82,85.12,87.46,0
84,85.09,87.42,0
83,85.05,87.38,0
84,85.03,87.35,0
83,84.99,87.30,0
84,84.97,87.27,0
82,84.91,87.22,0
82,84.85,87.16,0
83,84.82,87.12,0
82,84.76,87.07,0
84,84.75,87.04,0
82,84.69,86.99,0
82,84.64,86.94,0
82,84.58,86.89,0
82,84.53,86.84,0
84,84.52,86.81,0
82,84.47,86.77,0
82,84.42,86.72,0
83,84.39,86.68,0
82,84.35,86.63,0
82,84.30,86.59,0
82,84.25,86.54,0
84,84.25,86.52,0
82,84.20,86.47,0
82,84.16,86.43,0
82,84.12,86.38,0
81,84.05,86.33,0
82,84.01,86.29,0
82,83.97,86.24,0
82,83.93,86.20,0
82,83.89,86.16,0
82,83.86,86.12,0
82,83.82,86.08,0
79,83.72,86.00,0
84,83.73,85.98,0
82,83.69,85.94,0
82,83.66,85.91,0
81,83.61,85.86,0
83,83.59,85.83,0
82,83.56,85.79,0
81,83.51,85.74,0
81,83.46,85.69,0
83,83.45,85.67,0
81,83.40,85.62,0
82,83.37,85.58,0
81,83.33,85.54,0
79,83.24,85.47,0
80,83.18,85.42,0
80,83.11,85.36,0
81,83.07,85.32,0
81,83.03,85.28,0
80,82.97,85.22,0
80,82.91,85.17,0
81,82.87,85.13,0
79,82.79,85.07,0
80,82.74,85.02,0
78,82.64,84.95,0
80,82.59,84.90,0
82,82.58,84.87,0
80,82.53,84.82,0
80,82.48,84.77,0
81,82.45,84.74,0
81,82.42,84.70,0
80,82.37,84.65,0
80,82.32,84.60,0
79,82.26,84.55,0
80,82.21,84.50,0
80,82.17,84.46,0
79,82.10,84.40,0
80,82.06,84.36,0
80,82.02,84.32,0
80,81.98,84.27,0
81,81.96,84.24,0
79,81.90,84.19,0
79,81.84,84.14,0
80,81.81,84.09,0
79,81.75,84.04,0
79,81.69,83.99,0
79,81.64,83.94,0
78,81.57,83.88,0
79,81.52,83.83,0
79,81.47,83.79,0
78,81.40,83.73,0
78,81.33,83.67,0
78,81.26,83.61,0
79,81.22,83.57,0
78,81.15,83.51,0
78,81.09,83.46,0
79,81.05,83.41,0
78,80.99,83.36,0
78,80.93,83.31,0
80,80.91,83.27,0
78,80.85,83.22,0
79,80.81,83.18,0
78,80.76,83.13,0
77,80.68,83.06,0
78,80.63,83.01,0
78,80.58,82.96,0
78,80.52,82.91,0
79,80.49,82.87,0
78,80.44,82.83,0
78,80.39,82.78,0
78,80.35,82.73,0
79,80.32,82.69,0
78,80.27,82.65,0
79,80.25,82.61,0
78,80.20,82.56,0
78,80.16,82.52,0
78,80.12,82.47,0
79,80.09,82.44,0
79,80.07,82.40,0
77,80.01,82.35,0
78,79.97,82.31,0
78,79.93,82.26,0
77,79.87,82.21,0
78,79.83,82.17,0
78,79.80,82.13,0
78,79.76,82.08,0
78,79.73,82.04,0
78,79.69,82.00,0
76,79.62,81.94,0
78,79.59,81.90,0
78,79.55,81.87,0
77,79.50,81.82,0
77,79.45,81.77,0
77,79.40,81.72,0
77,79.36,81.67,0
78,79.33,81.64,0
78,79.30,81.60,0
78,79.28,81.56,0
77,79.23,81.52,0
77,79.19,81.47,0
77,79.14,81.43,0
78,79.12,81.39,0
78,79.10,81.36,0
78,79.08,81.33,0
76,79.01,81.27,0
77,78.97,81.23,0
77,78.93,81.19,0
78,78.92,81.16,0
76,78.86,81.11,0
76,78.80,81.05,0
77,78.76,81.01,0
76,78.71,80.96,0
76,78.65,80.91,0
77,78.62,80.87,0
77,78.59,80.84,0
76,78.54,80.79,0
76,78.49,80.74,0
76,78.44,80.69,0
78,78.43,80.67,0
76,78.38,80.62,0
76,78.33,80.57,0
79,78.35,80.56,0
75,78.28,80.50,0
76,78.23,80.46,0
76,78.19,80.41,0
76,78.14,80.37,0
77,78.12,80.33,0
76,78.08,80.29,0
76,78.04,80.25,0
76,78.00,80.21,0
76,77.96,80.16,0
78,77.96,80.14,0
77,77.94,80.11,0
77,77.92,80.08,0
76,77.88,80.04,0
76,77.84,80.00,0
78,77.85,79.98,0
75,77.79,79.93,0
78,77.79,79.91,0
76,77.76,79.87,0
76,77.72,79.83,0
77,77.71,79.80,0
78,77.71,79.78,0
76,77.68,79.75,0
76,77.65,79.71,0
75,77.59,79.66,0
76,77.56,79.63,0
78,77.57,79.61,0
76,77.54,79.57,0
76,77.51,79.54,0
76,77.48,79.50,0
76,77.45,79.47,0
76,77.42,79.43,0
76,77.39,79.40,0
78,77.40,79.38,0
77,77.40,79.36,0
76,77.37,79.33,0
77,77.36,79.30,0
78,77.37,79.29,0
76,77.35,79.26,0
76,77.32,79.22,0
76,77.29,79.19,0
76,77.27,79.16,0
76,77.24,79.13,0
76,77.22,79.10,0
77,77.21,79.08,0
76,77.19,79.05,0
76,77.16,79.02,0
76,77.14,78.99,0
75,77.10,78.95,0
79,77.14,78.95,0
76,77.11,78.92,0
76,77.09,78.89,0
78,77.11,78.88,0
76,77.09,78.85,0
76,77.06,78.82,0
76,77.04,78.79,0
78,77.06,78.79,0
77,77.06,78.77,0
76,77.04,78.74,0
76,77.02,78.71,0
76,77.00,78.69,0
76,76.98,78.66,0
76,76.96,78.63,0
75,76.92,78.60,0
77,76.92,78.58,0
77,76.92,78.56,0
76,76.91,78.54,0
76,76.89,78.51,0
77,76.89,78.50,0
77,76.89,78.48,0
76,76.87,78.46,0
76,76.86,78.43,0
77,76.86,78.42,0
78,76.88,78.41,0
76,76.86,78.39,0
76,76.85,78.37,0
77,76.85,78.35,0
77,76.85,78.34,0
76,76.84,78.32,0
76,76.82,78.29,0
77,76.82,78.28,0
76,76.81,78.26,0
75,76.77,78.22,0
76,76.75,78.20,0
76,76.74,78.18,0
76,76.72,78.16,0
76,76.71,78.14,0
76,76.70,78.12,0
78,76.72,78.11,0
76,76.71,78.09,0
75,76.67,78.06,0
76,76.66,78.04,0
76,76.65,78.02,0
76,76.63,78.00,0
76,76.62,77.98,0
76,76.61,77.96,0
76,76.60,77.94,0
75,76.56,77.91,0
74,76.51,77.87,0
76,76.50,77.85,0
76,76.49,77.84,0
75,76.46,77.81,0
76,76.45,77.79,0
77,76.46,77.78,0
76,76.46,77.76,0
75,76.43,77.74,0
76,76.42,77.72,0
76,76.41,77.70,0
76,76.40,77.68,0
75,76.37,77.66,0
76,76.37,77.64,0
76,76.36,77.62,0
75,76.33,77.60,0
75,76.30,77.57,0
76,76.30,77.56,0
79,76.35,77.57,0
75,76.33,77.55,0
76,76.32,77.53,0
78,76.35,77.53,0
76,76.35,77.52,0
76,76.34,77.50,0
76,76.33,77.49,0
76,76.33,77.47,0
76,76.32,77.46,0
77,76.33,77.45,0
76,76.33,77.44,0
76,76.32,77.43,0
76,76.31,77.41,0
75,76.29,77.39,0
76,76.28,77.37,0
76,76.28,77.36,0
73,76.21,77.32,0
76,76.21,77.30,0
78,76.24,77.31,0
76,76.24,77.30,0
76,76.23,77.28,0
75,76.21,77.26,0
75,76.18,77.24,0
74,76.14,77.21,0
75,76.12,77.18,0
76,76.11,77.17,0
77,76.13,77.17,0
75,76.11,77.15,0
74,76.07,77.12,0
76,76.07,77.11,0
76,76.06,77.10,0
75,76.04,77.07,0
74,76.00,77.04,0
75,75.98,77.02,0
73,75.92,76.98,0
74,75.88,76.95,0
74,75.85,76.92,0
74,75.81,76.89,0
75,75.79,76.88,0
74,75.76,76.85,0
74,75.72,76.82,0
76,75.73,76.81,0
76,75.73,76.80,0
74,75.70,76.77,0
74,75.66,76.75,0
76,75.67,76.74,0
75,75.66,76.72,0
74,75.62,76.69,0
74,75.59,76.67,0
74,75.56,76.64,0
74,75.53,76.61,0
74,75.50,76.59,0
74,75.47,76.56,0
73,75.42,76.53,0
75,75.41,76.51,0
74,75.38,76.49,0
74,75.36,76.46,0
74,75.33,76.44,0
74,75.30,76.41,0
74,75.28,76.39,0
74,75.25,76.36,0
74,75.23,76.34,0
76,75.24,76.34,0
74,75.22,76.31,0
74,75.19,76.29,0
76,75.21,76.29,0
77,75.24,76.29,0
76,75.26,76.29,0
76,75.27,76.29,0
76,75.29,76.29,0
76,75.30,76.28,0
76,75.32,76.28,0
76,75.33,76.28,0
77,75.36,76.28,0
76,75.38,76.28,0
75,75.37,76.27,0
76,75.38,76.27,0
77,75.41,76.27,0
78,75.47,76.29,0
76,75.48,76.29,0
78,75.53,76.31,0
77,75.56,76.31,0
76,75.56,76.31,0
80,75.65,76.35,0
78,75.70,76.36,0
77,75.73,76.37,0
78,75.77,76.39,0
78,75.82,76.40,0
78,75.86,76.42,0
79,75.92,76.44,0
78,75.96,76.46,0
78,76.01,76.47,0
78,76.04,76.49,0
78,76.08,76.50,0
78,76.12,76.52,0
79,76.18,76.54,0
78,76.22,76.56,0
78,76.25,76.57,0
78,76.29,76.59,0
78,76.32,76.60,0
78,76.35,76.62,0
79,76.41,76.64,0
80,76.48,76.67,0
79,76.53,76.70,0
79,76.58,76.72,0
79,76.63,76.74,0
80,76.70,76.77,0
78,76.72,76.79,0
79,76.77,76.81,0
79,76.81,76.83,0
79,76.86,76.85,0
79,76.90,76.87,0
79,76.94,76.90,0
81,77.02,76.94,0
79,77.06,76.96,0
82,77.16,77.01,0
79,77.20,77.03,0
79,77.23,77.05,0
79,77.27,77.07,0
79,77.30,77.09,0
79,77.34,77.11,0
79,77.37,77.12,0
79,77.40,77.14,0
79,77.43,77.16,0
79,77.47,77.18,0
81,77.54,77.22,0
81,77.61,77.26,0
81,77.67,77.29,0
81,77.74,77.33,0
82,77.83,77.38,0
81,77.89,77.41,0
81,77.95,77.45,0
80,77.99,77.47,0
80,78.03,77.50,0
82,78.11,77.54,0
81,78.17,77.58,0
82,78.25,77.62,0
80,78.28,77.65,0
81,78.34,77.68,0
80,78.37,77.70,0
82,78.44,77.75,0
82,78.51,77.79,0
83,78.60,77.84,0
84,78.71,77.90,0
84,78.82,77.96,0
85,78.94,78.03,0
84,79.04,78.09,0
86,79.18,78.17,0
86,79.32,78.25,0
88,79.49,78.35,0
87,79.64,78.44,0
87,79.79,78.52,0
86,79.91,78.60,0
88,80.07,78.69,0
88,80.23,78.78,0
90,80.43,78.90,0
88,80.58,78.99,0
91,80.79,79.11,0
90,80.97,79.22,0
91,81.17,79.33,0
90,81.35,79.44,0
91,81.54,79.56,0
91,81.73,79.67,0
92,81.94,79.79,0
91,82.12,79.91,0
92,82.32,80.03,0
92,82.51,80.15,0
92,82.70,80.26,0
94,82.92,80.40,0
93,83.13,80.53,0
93,83.32,80.65,0
94,83.54,80.79,0
94,83.75,80.92,0
95,83.97,81.06,0
96,84.21,81.21,0
96,84.45,81.36,0
96,84.68,81.50,0
96,84.91,81.65,0
98,85.17,81.81,0
98,85.42,81.97,0
98,85.68,82.13,0
98,85.92,82.29,0
98,86.16,82.45,0
98,86.40,82.60,0
100,86.67,82.78,0
100,86.94,82.95,0
101,87.22,83.13,0
99,87.46,83.29,0
103,87.77,83.49,0
105,88.11,83.70,0
107,88.49,83.94,0
107,88.86,84.17,0
106,89.20,84.38,0
108,89.58,84.62,0
107,89.93,84.84,0
108,90.29,85.08,0
107,90.62,85.30,0
107,90.95,85.51,0
108,91.29,85.74,0
108,91.62,85.96,0
109,91.97,86.19,0
109,92.31,86.42,0
109,92.65,86.64,0
109,92.97,86.87,0
109,93.29,87.09,0
109,93.61,87.31,0
110,93.94,87.53,0
111,94.28,87.77,0
110,94.59,87.99,0
111,94.92,88.22,0
110,95.22,88.44,0
111,95.54,88.67,0
111,95.85,88.89,0
111,96.15,89.11,0
111,96.45,89.33,0
111,96.74,89.55,0
113,97.06,89.78,0
114,97.40,90.02,0
113,97.71,90.25,0
113,98.02,90.48,0
113,98.32,90.70,0
115,98.65,90.95,0
117,99.02,91.21,0
117,99.38,91.47,0
115,99.69,91.70,0
117,100.04,91.95,0
117,100.38,92.20,0
117,100.71,92.45,0
118,101.06,92.71,0
119,101.41,92.97,0
118,101.75,93.22,0
119,102.09,93.48,0
118,102.41,93.72,0
119,102.74,93.98,0
118,103.05,94.22,0
120,103.39,94.48,0
118,103.68,94.71,0
121,104.02,94.97,0
118,104.30,95.20,0
121,104.64,95.46,0
120,104.94,95.71,0
120,105.25,95.95,0
120,105.54,96.19,0
120,105.83,96.43,0
121,106.13,96.67,0
122,106.45,96.93,0
121,106.74,97.17,0
124,107.09,97.44,0
120,107.35,97.66,0
121,107.62,97.90,0
120,107.87,98.12,0
122,108.15,98.36,0
120,108.39,98.57,0
120,108.62,98.79,0
122,108.89,99.02,0
121,109.13,99.24,0
121,109.37,99.46,0
122,109.62,99.68,0
124,109.91,99.92,0
123,110.17,100.16,0
124,110.44,100.39,0
124,110.72,100.63,0
123,110.96,100.85,0
124,111.22,101.08,0
123,111.46,101.30,0
127,111.77,101.56,0
128,112.09,101.83,0
129,112.43,102.10,0
129,112.76,102.37,0
129,113.09,102.63,0
129,113.41,102.90,0
130,113.74,103.17,0
129,114.04,103.43,0
130,114.36,103.69,0
132,114.71,103.97,0
131,115.04,104.24,0
131,115.36,104.51,0
131,115.67,104.78,0
131,115.98,105.04,0
131,116.28,105.30,0
131,116.57,105.56,0
131,116.86,105.81,0
131,117.14,106.06,0
132,117.44,106.32,0
136,117.81,106.62,0
133,118.12,106.88,0
133,118.41,107.14,0
134,118.73,107.41,0
135,119.05,107.69,0
133,119.33,107.94,0
133,119.60,108.19,0
135,119.91,108.46,0
135,120.21,108.73,0
134,120.49,108.98,0
134,120.76,109.23,0
133,121.00,109.47,0
135,121.28,109.72,0
136,121.58,109.98,0
135,121.85,110.23,0
135,122.11,110.48,0
135,122.37,110.73,0
137,122.66,110.99,0
137,122.95,111.25,0
139,123.27,111.53,0
139,123.58,111.80,0
141,123.93,112.09,0
141,124.27,112.38,0
140,124.59,112.66,0
142,124.94,112.95,0
145,125.34,113.27,0
143,125.69,113.57,0
144,126.06,113.87,0
145,126.44,114.19,0
145,126.81,114.49,0
145,127.17,114.80,0
144,127.51,115.09,0
145,127.86,115.39,0
145,128.20,115.69,0
146,128.56,115.99,0
146,128.90,116.29,0
148,129.29,116.61,0
149,129.68,116.93,0
149,130.07,117.25,0
149,130.45,117.57,0
151,130.86,117.90,0
150,131.24,118.22,0
151,131.64,118.55,0
152,132.04,118.89,0
153,132.46,119.23,0
153,132.87,119.57,0
152,133.25,119.89,0
154,133.67,120.23,0
155,134.10,120.58,0
155,134.51,120.92,0
155,134.92,121.26,0
153,135.29,121.58,0
154,135.66,121.90,0
155,136.05,122.24,0
154,136.41,122.55,0
154,136.76,122.87,0
153,137.08,123.17,0
153,137.40,123.47,0
153,137.71,123.76,0
153,138.02,124.06,0
153,138.32,124.34,0
153,138.61,124.63,0
153,138.90,124.91,0
154,139.20,125.21,0
152,139.46,125.47,0
152,139.71,125.74,0
152,139.95,126.00,0
152,140.20,126.26,0
153,140.45,126.53,0
152,140.68,126.78,0
152,140.91,127.04,0
152,141.13,127.29,0
152,141.35,127.53,0
152,141.56,127.78,0
153,141.79,128.03,0
151,141.97,128.26,0
152,142.17,128.50,0
149,142.31,128.70,0
151,142.48,128.92,0
150,142.63,129.14,0
150,142.78,129.34,0
149,142.91,129.54,0
150,143.05,129.75,0
151,143.21,129.96,0
150,143.34,130.16,0
151,143.50,130.37,0
150,143.63,130.56,0
150,143.75,130.76,0
149,143.86,130.94,0
149,143.96,131.12,0
149,144.06,131.30,0
150,144.18,131.49,0
149,144.28,131.66,0
149,144.37,131.83,0
150,144.48,132.02,0
150,144.60,132.20,0
148,144.66,132.35,0
148,144.73,132.51,0
148,144.80,132.67,0
147,144.84,132.81,0
148,144.90,132.96,0
147,144.94,133.10,0
148,145.01,133.25,0
147,145.05,133.39,0
147,145.08,133.52,0
147,145.12,133.66,0
148,145.18,133.80,0
147,145.22,133.93,0
148,145.27,134.07,0
147,145.31,134.20,0
144,145.28,134.30,0
146,145.30,134.42,0
147,145.33,134.54,0
145,145.32,134.65,0
145,145.32,134.75,0
145,145.31,134.86,0
145,145.30,134.96,0
145,145.30,135.06,0
144,145.27,135.15,0
144,145.25,135.24,0
144,145.22,135.32,0
144,145.20,135.41,0
143,145.15,135.49,0
145,145.15,135.58,0
144,145.13,135.66,0
143,145.08,135.74,0
143,145.04,135.81,0
142,144.98,135.87,0
142,144.92,135.93,0
143,144.88,136.00,0
142,144.83,136.06,0
142,144.77,136.12,0
141,144.69,136.17,0
141,144.62,136.22,0
142,144.57,136.28,0
142,144.52,136.34,0
141,144.45,136.38,0
141,144.38,136.43,0
143,144.35,136.49,0
141,144.28,136.54,0
141,144.22,136.58,0
141,144.15,136.63,0
141,144.09,136.67,0
141,144.03,136.72,0
141,143.97,136.76,0
141,143.91,136.80,0
140,143.83,136.83,0
140,143.75,136.86,0
140,143.68,136.90,0
142,143.64,136.95,0
139,143.55,136.97,0
140,143.48,137.00,0
139,143.39,137.02,0
139,143.30,137.04,0
140,143.24,137.07,0
139,143.15,137.09,0
138,143.05,137.10,0
139,142.97,137.11,0
138,142.87,137.12,0
138,142.77,137.13,0
138,142.68,137.14,0
137,142.56,137.14,0
137,142.45,137.14,0
139,142.38,137.16,0
137,142.27,137.15,0
137,142.17,137.15,0
137,142.07,137.15,0
136,141.94,137.14,0
137,141.85,137.14,0
136,141.73,137.13,0
136,141.61,137.12,0
136,141.50,137.11,0
135,141.37,137.08,0
135,141.24,137.06,0
135,141.12,137.04,0
135,141.00,137.02,0
135,140.88,137.00,0
134,140.74,136.97,0
135,140.63,136.95,0
134,140.49,136.92,0
133,140.34,136.88,0
133,140.20,136.84,0
133,140.05,136.81,0
133,139.91,136.77,0
133,139.77,136.73,0
133,139.64,136.69,0
133,139.50,136.66,0
133,139.37,136.62,0
132,139.23,136.57,0
133,139.10,136.54,0
132,138.96,136.49,0
132,138.82,136.45,0
131,138.66,136.39,0
132,138.53,136.35,0
131,138.38,136.30,0
131,138.23,136.24,0
131,138.09,136.19,0
131,137.95,136.14,0
131,137.81,136.09,0
130,137.65,136.03,0
130,137.50,135.97,0
130,137.35,135.91,0
129,137.18,135.84,0
129,137.02,135.77,0
127,136.82,135.68,0
129,136.66,135.61,0
129,136.51,135.55,0
129,136.36,135.48,0
129,136.21,135.42,0
129,136.07,135.35,0
129,135.93,135.29,0
128,135.77,135.22,0
129,135.63,135.15,0
128,135.48,135.08,0
128,135.33,135.01,0
128,135.18,134.94,0
128,135.04,134.87,0
127,134.88,134.79,1
127,134.72,134.72,1
127,134.57,134.64,2
127,134.41,134.56,2
127,134.27,134.49,2
127,134.12,134.41,2
127,133.98,134.34,2
127,133.84,134.26,2
127,133.70,134.19,2
126,133.55,134.11,2
126,133.40,134.03,2
125,133.23,133.94,2
125,133.06,133.85,2
125,132.90,133.76,2
125,132.75,133.67,2
125,132.59,133.59,2
126,132.46,133.51,2
125,132.31,133.43,2
124,132.14,133.33,2
125,132.00,133.25,2
124,131.84,133.16,2
125,131.70,133.07,2
124,131.55,132.98,2
123,131.38,132.88,2
123,131.21,132.78,2
124,131.07,132.70,2
123,130.91,132.60,2
124,130.77,132.51,2
123,130.61,132.42,2
123,130.46,132.32,2
123,130.31,132.23,2
124,130.18,132.15,2
122,130.02,132.05,2
121,129.84,131.94,2
121,129.66,131.83,2
121,129.49,131.72,2
122,129.34,131.62,2
122,129.19,131.53,2
121,129.03,131.42,2
121,128.87,131.32,2
122,128.73,131.22,2
121,128.58,131.12,2
122,128.45,131.03,2
121,128.30,130.93,2
121,128.15,130.83,2
121,128.01,130.73,2
121,127.87,130.63,2
121,127.73,130.54,2
122,127.62,130.45,2
119,127.44,130.34,2
121,127.31,130.25,2
120,127.17,130.14,2
120,127.02,130.04,2
121,126.90,129.95,2
119,126.75,129.84,2
120,126.61,129.74,2
120,126.48,129.65,2
120,126.35,129.55,2
120,126.22,129.45,2
120,126.10,129.36,2
119,125.96,129.26,2
120,125.84,129.16,2
119,125.70,129.06,2
119,125.57,128.96,2
119,125.43,128.86,2
119,125.31,128.76,2
119,125.18,128.66,2
119,125.06,128.57,2
117,124.90,128.45,2
118,124.76,128.35,2
118,124.62,128.24,2
118,124.49,128.14,2
117,124.34,128.03,2
117,124.19,127.92,2
117,124.05,127.81,2
117,123.91,127.70,2
117,123.77,127.60,2
117,123.63,127.49,2
117,123.50,127.39,2
117,123.37,127.28,2
117,123.24,127.18,2
120,123.18,127.11,2
117,123.06,127.01,2
116,122.92,126.90,2
116,122.78,126.79,2
116,122.64,126.68,2
115,122.49,126.56,2
116,122.36,126.46,2
116,122.23,126.35,2
115,122.09,126.24,2
115,121.95,126.13,2
116,121.83,126.02,2
115,121.69,125.91,2
115,121.56,125.81,2
114,121.40,125.69,2
114,121.26,125.57,2
114,121.11,125.45,2
114,120.97,125.34,2
113,120.81,125.22,2
113,120.65,125.09,2
113,120.50,124.97,2
113,120.35,124.85,2
113,120.20,124.74,2
114,120.08,124.63,2
113,119.94,124.51,2
113,119.80,124.40,2
113,119.66,124.28,2
112,119.51,124.16,2
111,119.34,124.03,2
113,119.21,123.92,2
112,119.07,123.80,2
112,118.93,123.68,2
111,118.77,123.55,2
111,118.61,123.43,2
113,118.50,123.32,2
111,118.35,123.20,2
111,118.20,123.08,2
111,118.06,122.96,2
111,117.92,122.84,2
111,117.78,122.72,2
111,117.64,122.60,2
111,117.51,122.49,2
111,117.38,122.37,2
111,117.25,122.26,2
110,117.11,122.14,2
111,116.99,122.02,2
110,116.85,121.90,2
109,116.69,121.77,2
110,116.56,121.66,2
109,116.41,121.53,2
109,116.26,121.41,2
109,116.11,121.28,2
109,115.97,121.16,2
109,115.83,121.04,2
109,115.69,120.92,2
111,115.60,120.82,2
109,115.47,120.70,2
109,115.34,120.58,2
109,115.21,120.47,2
109,115.09,120.35,2
109,114.97,120.24,2
109,114.85,120.13,2
109,114.73,120.01,2
108,114.59,119.89,2
108,114.46,119.78,2
107,114.31,119.65,2
109,114.21,119.54,2
107,114.06,119.42,2
109,113.96,119.31,2
108,113.84,119.20,2
107,113.71,119.08,2
107,113.57,118.96,2
109,113.48,118.86,2
107,113.35,118.74,2
107,113.22,118.62,2
107,113.10,118.50,2
107,112.98,118.39,2
107,112.86,118.28,2
106,112.72,118.15,2
106,112.59,118.03,2
106,112.45,117.91,2
105,112.31,117.78,2
106,112.18,117.66,2
105,112.04,117.54,2
107,111.94,117.43,2
105,111.80,117.31,2
105,111.66,117.18,2
106,111.55,117.07,2
105,111.42,116.95,2
107,111.33,116.85,2
105,111.20,116.73,2
105,111.08,116.62,2
105,110.96,116.50,2
105,110.84,116.39,2
104,110.70,116.26,2
105,110.59,116.15,2
104,110.45,116.03,2
103,110.31,115.90,2
105,110.20,115.79,2
104,110.08,115.67,2
104,109.95,115.55,2
104,109.83,115.44,2
104,109.72,115.32,2
103,109.58,115.20,2
104,109.47,115.09,2
103,109.34,114.97,2
103,109.22,114.85,2
103,109.09,114.73,2
103,108.97,114.61,2
103,108.85,114.50,2
103,108.73,114.38,2
101,108.58,114.25,2
103,108.47,114.13,2
103,108.36,114.02,2
103,108.25,113.91,2
103,108.15,113.80,2
103,108.04,113.70,2
103,107.94,113.59,2
103,107.84,113.48,2
103,107.75,113.38,2
103,107.65,113.27,2
103,107.56,113.17,2
102,107.45,113.06,2
103,107.36,112.96,2
101,107.23,112.84,2
103,107.15,112.74,2
103,107.06,112.64,2
103,106.98,112.55,2
102,106.88,112.44,2
102,106.78,112.34,2
101,106.67,112.22,2
102,106.58,112.12,2
102,106.48,112.02,2
102,106.39,111.92,2
102,106.31,111.82,2
102,106.22,111.72,2
101,106.12,111.62,2
101,106.01,111.51,2
103,105.95,111.42,2
101,105.85,111.32,2
101,105.76,111.22,2
102,105.68,111.13,2
102,105.61,111.03,2
101,105.52,110.93,2
101,105.43,110.83,2
101,105.34,110.74,2
100,105.23,110.63,2
101,105.15,110.53,2
101,105.06,110.44,2
101,104.98,110.34,2
104,104.96,110.28,2
100,104.86,110.18,2
99,104.75,110.06,2
99,104.63,109.95,2
99,104.52,109.84,2
100,104.43,109.75,2
100,104.34,109.65,2
95,104.15,109.50,2
100,104.07,109.41,2
98,103.95,109.29,2
99,103.85,109.19,2
97,103.71,109.07,2
99,103.62,108.97,2
98,103.51,108.86,2
99,103.42,108.76,2
98,103.31,108.65,2
98,103.20,108.54,2
98,103.10,108.44,2
98,103.00,108.34,2
98,102.90,108.23,2
97,102.78,108.12,2
97,102.66,108.01,2
97,102.55,107.90,2
98,102.46,107.80,2
97,102.35,107.69,2
97,102.24,107.58,2
97,102.14,107.48,2
96,102.01,107.36,2
98,101.93,107.27,2
96,101.81,107.16,2
98,101.74,107.07,2
96,101.62,106.96,2
96,101.51,106.85,2
96,101.40,106.74,2
97,101.31,106.64,2
96,101.21,106.53,2
96,101.10,106.43,2
96,101.00,106.32,2
95,100.88,106.21,2
96,100.78,106.11,2
95,100.67,106.00,2
95,100.55,105.89,2
95,100.44,105.78,2
95,100.33,105.67,2
95,100.23,105.56,2
94,100.10,105.45,2
97,100.04,105.36,2
94,99.92,105.25,2
95,99.82,105.15,2
96,99.75,105.06,2
94,99.63,104.95,2
95,99.54,104.85,2
96,99.47,104.76,2
95,99.38,104.66,2
95,99.29,104.56,2
95,99.20,104.47,2
95,99.12,104.37,2
95,99.04,104.28,2
93,98.92,104.17,2
94,98.82,104.07,2
95,98.74,103.97,2
94,98.65,103.87,2
94,98.55,103.78,2
93,98.44,103.67,2
94,98.35,103.57,2
93,98.25,103.47,2
93,98.14,103.36,2
95,98.08,103.28,2
93,97.98,103.17,2
93,97.88,103.07,2
93,97.78,102.97,2
93,97.69,102.87,2
93,97.59,102.77,2
93,97.50,102.68,2
93,97.41,102.58,2
93,97.32,102.48,2
93,97.24,102.39,2
93,97.15,102.29,2
93,97.07,102.20,2
93,96.99,102.11,2
93,96.91,102.02,2
94,96.85,101.94,2
93,96.77,101.85,2
92,96.68,101.75,2
93,96.60,101.66,2
93,96.53,101.58,2
93,96.46,101.49,2
93,96.39,101.41,2
93,96.32,101.32,2
92,96.24,101.23,2
92,96.15,101.14,2
95,96.13,101.07,2
91,96.03,100.97,2
93,95.97,100.89,2
92,95.89,100.81,2
91,95.79,100.71,2
92,95.71,100.62,2
92,95.64,100.53,2
91,95.55,100.44,2
91,95.45,100.34,2
92,95.39,100.26,2
91,95.30,100.17,2
92,95.23,100.09,2
93,95.19,100.02,2
91,95.10,99.93,2
92,95.04,99.85,2
91,94.96,99.76,2
91,94.88,99.67,2
90,94.78,99.57,2
92,94.73,99.50,2
91,94.65,99.41,2
91,94.58,99.33,2
92,94.53,99.26,2
91,94.46,99.17,2
91,94.39,99.09,2
92,94.34,99.02,2
90,94.25,98.93,2
90,94.17,98.84,2
92,94.13,98.77,2
91,94.06,98.69,2
92,94.02,98.63,2
91,93.96,98.55,2
91,93.90,98.48,2
91,93.84,98.40,2
90,93.77,98.32,2
92,93.73,98.25,2
91,93.68,98.18,2
91,93.62,98.11,2
91,93.57,98.04,2
92,93.54,97.98,2
92,93.51,97.92,2
92,93.48,97.86,2
92,93.45,97.80,2
92,93.42,97.74,2
92,93.39,97.69,2
94,93.40,97.65,2
92,93.38,97.59,2
93,93.37,97.55,2
93,93.36,97.50,2
94,93.37,97.47,2
93,93.37,97.42,2
93,93.36,97.38,2
92,93.33,97.32,2
94,93.35,97.29,2
93,93.34,97.25,2
93,93.33,97.20,2
93,93.33,97.16,2
92,93.30,97.11,2
92,93.27,97.06,2
92,93.25,97.01,2
93,93.24,96.97,2
93,93.24,96.93,2
93,93.23,96.89,2
92,93.21,96.84,2
93,93.20,96.80,2
92,93.18,96.75,2
92,93.16,96.71,2
92,93.13,96.66,2
93,93.13,96.62,2
93,93.13,96.59,2
92,93.11,96.54,2
92,93.08,96.50,2
93,93.08,96.46,2
92,93.06,96.42,2
92,93.04,96.37,2
91,93.00,96.32,2
91,92.96,96.27,2
92,92.94,96.22,2
92,92.92,96.18,2
92,92.90,96.14,2
92,92.88,96.10,2
92,92.87,96.06,2
92,92.85,96.02,2
90,92.79,95.96,2
90,92.74,95.90,2
92,92.72,95.86,2
92,92.71,95.82,2
90,92.65,95.76,2
91,92.62,95.71,2
91,92.59,95.67,2
90,92.54,95.61,2
90,92.48,95.55,2
90,92.43,95.50,2
92,92.43,95.46,2
90,92.38,95.41,2
90,92.33,95.35,2
90,92.28,95.30,2
90,92.24,95.25,2
90,92.19,95.19,2
90,92.15,95.14,2
91,92.13,95.10,2
90,92.08,95.05,2
91,92.06,95.01,2
90,92.02,94.96,2
90,91.98,94.91,2
93,92.00,94.89,2
90,91.96,94.84,2
90,91.92,94.79,2
91,91.90,94.76,2
90,91.87,94.71,2
90,91.83,94.66,2
90,91.79,94.61,2
90,91.76,94.57,2
90,91.72,94.52,2
90,91.69,94.48,2
89,91.63,94.42,2
90,91.60,94.38,2
90,91.57,94.33,2
91,91.56,94.30,2
90,91.53,94.26,2
92,91.53,94.24,2
89,91.48,94.18,2
90,91.45,94.14,2
90,91.43,94.10,2
90,91.40,94.06,2
90,91.37,94.02,2
90,91.34,93.98,2
90,91.31,93.94,2
89,91.27,93.89,2
90,91.24,93.85,2
90,91.22,93.81,2
90,91.19,93.77,2
89,91.15,93.73,2
90,91.13,93.69,2
92,91.14,93.67,2
90,91.12,93.64,2
89,91.08,93.59,2
89,91.04,93.54,2
89,91.00,93.50,2
89,90.96,93.45,2
89,90.92,93.41,2
89,90.88,93.36,2
87,90.80,93.30,2
89,90.77,93.26,2
89,90.73,93.21,2
92,90.76,93.20,2
89,90.72,93.16,2
89,90.69,93.12,2
89,90.65,93.08,2
88,90.60,93.03,2
88,90.55,92.98,2
89,90.52,92.94,2
89,90.49,92.90,2
90,90.48,92.87,2
88,90.43,92.82,2
88,90.38,92.77,2
89,90.35,92.73,2
90,90.34,92.71,2
88,90.30,92.66,2
88,90.25,92.61,2
89,90.23,92.58,2
88,90.18,92.53,2
88,90.14,92.49,2
88,90.10,92.44,2
90,90.09,92.42,2
89,90.07,92.38,2
88,90.03,92.34,2
88,89.99,92.30,2
89,89.97,92.26,2
88,89.93,92.22,2
88,89.89,92.18,2
88,89.85,92.14,2
89,89.84,92.10,2
88,89.80,92.06,2
88,89.76,92.02,2
88,89.73,91.98,2
88,89.69,91.94,2
88,89.66,91.90,2
88,89.63,91.86,2
86,89.55,91.81,2
87,89.50,91.76,2
88,89.47,91.72,2
88,89.44,91.68,2
88,89.41,91.65,2
88,89.39,91.61,2
87,89.34,91.56,2
88,89.31,91.53,2
88,89.29,91.49,2
88,89.26,91.46,2
88,89.24,91.42,2
88,89.21,91.39,2
88,89.19,91.35,2
88,89.16,91.32,2
88,89.14,91.29,2
88,89.12,91.25,2
88,89.09,91.22,2
90,89.11,91.21,2
88,89.09,91.18,2
88,89.07,91.15,2
88,89.05,91.11,2
88,89.03,91.08,2
89,89.03,91.06,2
88,89.00,91.03,2
88,88.98,91.00,2
88,88.97,90.97,2
88,88.95,90.94,2
88,88.93,90.91,2
88,88.91,90.88,2
88,88.89,90.85,2
88,88.87,90.83,2
86,88.81,90.78,2
87,88.78,90.74,2
88,88.76,90.71,2
87,88.73,90.68,2
86,88.67,90.63,2
88,88.66,90.60,2
87,88.63,90.57,2
87,88.59,90.53,2
86,88.54,90.49,2
88,88.53,90.46,2
88,88.52,90.44,2
87,88.49,90.40,2
86,88.44,90.36,2
87,88.41,90.32,2
87,88.38,90.29,2
88,88.38,90.27,2
87,88.35,90.24,2
86,88.30,90.19,2
86,88.26,90.15,2
88,88.25,90.13,2
88,88.25,90.11,2
86,88.20,90.07,2
86,88.16,90.03,2
86,88.11,89.99,2
86,88.07,89.95,2
85,88.01,89.90,2
86,87.97,89.86,2
88,87.97,89.84,2
86,87.93,89.80,2
86,87.89,89.76,2
86,87.85,89.73,2
88,87.86,89.71,2
86,87.82,89.67,2
86,87.78,89.63,2
86,87.75,89.60,2
86,87.71,89.56,2
86,87.68,89.53,2
85,87.62,89.48,2
86,87.59,89.45,2
89,87.62,89.44,2
86,87.59,89.41,2
84,87.52,89.35,2
86,87.49,89.32,2
85,87.44,89.28,2
85,87.39,89.23,2
84,87.32,89.18,2
85,87.27,89.14,2
85,87.23,89.10,2
86,87.20,89.07,2
84,87.14,89.02,2
85,87.10,88.98,2
85,87.05,88.94,2
85,87.01,88.90,2
86,86.99,88.87,2
86,86.97,88.84,2
84,86.91,88.79,2
86,86.90,88.76,2
84,86.84,88.72,2
84,86.78,88.67,2
86,86.77,88.64,2
84,86.71,88.60,2
84,86.66,88.55,2
84,86.60,88.50,2
85,86.57,88.47,2
84,86.52,88.42,2
84,86.47,88.38,2
86,86.46,88.36,2
85,86.43,88.32,2
84,86.38,88.28,2
84,86.33,88.24,2
84,86.29,88.19,2
85,86.26,88.16,2
84,86.22,88.12,2
84,86.17,88.08,2
86,86.17,88.06,2
85,86.15,88.03,2
84,86.10,87.99,2
84,86.06,87.95,2
85,86.04,87.92,2
85,86.02,87.89,2
84,85.98,87.85,2
84,85.94,87.81,2
85,85.92,87.78,2
85,85.90,87.76,2
86,85.90,87.74,2
85,85.89,87.71,2
85,85.87,87.68,2
85,85.85,87.66,2
84,85.81,87.62,2
84,85.78,87.58,2
84,85.74,87.55,2
84,85.71,87.51,2
84,85.67,87.48,2
84,85.64,87.44,2
85,85.63,87.42,2
84,85.59,87.38,2
85,85.58,87.36,2
84,85.55,87.33,2
84,85.52,87.29,2
86,85.53,87.28,2
86,85.54,87.27,2
86,85.55,87.26,2
84,85.52,87.22,2
84,85.49,87.19,2
83,85.44,87.15,2
84,85.41,87.12,2
85,85.40,87.10,2
86,85.41,87.08,2
84,85.38,87.05,2
85,85.38,87.03,2
85,85.37,87.01,2
86,85.38,87.00,2
88,85.43,87.01,2
86,85.44,87.00,2
85,85.44,86.98,2
88,85.49,86.99,2
85,85.48,86.97,2
86,85.49,86.96,2
86,85.50,86.95,2
86,85.51,86.94,2
86,85.52,86.93,2
85,85.51,86.92,2
86,85.52,86.91,2
86,85.53,86.90,2
86,85.54,86.89,2
85,85.53,86.87,2
85,85.52,86.85,2
86,85.52,86.84,2
86,85.53,86.83,2
85,85.52,86.82,2
89,85.59,86.84,2
87,85.62,86.84,2
86,85.63,86.83,2
85,85.62,86.81,2
87,85.64,86.81,2
87,85.67,86.82,2
86,85.68,86.81,2
85,85.66,86.79,2
86,85.67,86.78,2
85,85.66,86.76,2
87,85.68,86.77,2
86,85.69,86.76,2
86,85.70,86.75,2
87,85.72,86.75,2
88,85.77,86.77,2
88,85.81,86.78,2
88,85.86,86.79,2
89,85.92,86.81,2
88,85.96,86.82,2
88,86.00,86.84,2
88,86.04,86.85,2
90,86.12,86.88,2
90,86.20,86.91,2
90,86.27,86.94,2
92,86.39,86.99,2
90,86.46,87.02,2
90,86.53,87.05,2
90,86.60,87.08,2
89,86.65,87.10,2
89,86.70,87.12,2
89,86.74,87.14,2
88,86.77,87.15,2
87,86.77,87.15,2
89,86.82,87.16,2
90,86.88,87.19,2
90,86.94,87.22,2
90,87.00,87.25,2
89,87.04,87.27,2
91,87.12,87.30,2
90,87.18,87.33,2
91,87.26,87.37,2
90,87.31,87.39,2
90,87.37,87.42,2
90,87.42,87.45,2
91,87.49,87.48,2
91,87.56,87.52,2
90,87.61,87.54,2
92,87.70,87.59,2
92,87.78,87.63,2
91,87.85,87.66,2
90,87.89,87.69,2
92,87.97,87.73,2
93,88.07,87.78,2
94,88.19,87.84,2
94,88.31,87.91,2
92,88.38,87.95,2
93,88.47,88.00,2
95,88.60,88.07,2
94,88.71,88.13,2
96,88.86,88.21,2
94,88.96,88.26,2
94,89.06,88.32,2
95,89.18,88.39,2
96,89.32,88.46,2
95,89.43,88.53,2
96,89.56,88.60,2
98,89.73,88.70,2
95,89.84,88.76,2
96,89.96,88.83,2
96,90.08,88.91,2
96,90.20,88.98,2
96,90.31,89.05,2
95,90.41,89.11,2
97,90.54,89.18,2
95,90.63,89.24,2
96,90.74,89.31,2
96,90.84,89.38,2
95,90.93,89.43,2
96,91.03,89.50,2
96,91.13,89.56,2
95,91.20,89.62,2
96,91.30,89.68,2
96,91.39,89.75,2
96,91.49,89.81,2
96,91.58,89.87,2
98,91.70,89.95,2
98,91.83,90.03,2
98,91.95,90.11,2
99,92.09,90.20,2
100,92.25,90.30,2
100,92.41,90.40,2
101,92.58,90.50,2
99,92.71,90.59,2
101,92.87,90.69,2
100,93.02,90.78,2
103,93.22,90.91,2
104,93.43,91.04,2
105,93.66,91.18,2
105,93.89,91.31,2
105,94.11,91.45,2
107,94.37,91.61,2
108,94.64,91.77,2
109,94.93,91.94,2
108,95.19,92.10,2
108,95.45,92.26,2
109,95.72,92.43,2
111,96.02,92.62,2
111,96.32,92.80,2
113,96.66,93.00,2
113,96.98,93.20,2
113,97.30,93.40,2
114,97.64,93.61,2
116,98.01,93.83,2
117,98.39,94.06,2
117,98.76,94.29,2
118,99.14,94.53,2
117,99.50,94.75,2
117,99.85,94.97,2
118,100.21,95.21,2
118,100.57,95.43,2
117,100.90,95.65,2
116,101.20,95.85,2
118,101.54,96.07,2
118,101.86,96.29,2
120,102.23,96.53,2
122,102.62,96.78,2
123,103.03,97.05,2
122,103.41,97.30,2
123,103.80,97.55,2
124,104.21,97.82,2
124,104.60,98.08,2
126,105.03,98.36,2
124,105.41,98.62,2
124,105.78,98.87,2
125,106.16,99.13,2
126,106.56,99.40,2
127,106.97,99.68,2
125,107.33,99.93,2
126,107.70,100.19,2
126,108.07,100.45,2
125,108.41,100.69,2
127,108.78,100.96,2
129,109.18,101.24,2
129,109.58,101.51,2
129,109.97,101.79,2
130,110.37,102.07,2
128,110.72,102.33,2
129,111.09,102.60,2
129,111.45,102.86,2
128,111.78,103.11,2
129,112.12,103.37,2
129,112.46,103.63,2
129,112.79,103.88,2
131,113.15,104.15,2
130,113.49,104.41,2
129,113.80,104.66,2
131,114.15,104.92,2
131,114.48,105.18,2
130,114.79,105.43,2
132,115.14,105.70,2
130,115.43,105.94,2
133,115.79,106.21,2
131,116.09,106.46,2
133,116.43,106.72,2
133,116.76,106.98,2
133,117.08,107.24,2
133,117.40,107.50,2
132,117.69,107.75,2
133,118.00,108.00,2
132,118.28,108.24,2
131,118.54,108.47,2
133,118.82,108.71,2
133,119.11,108.96,2
133,119.39,109.20,2
133,119.66,109.43,2
135,119.97,109.69,2
133,120.23,109.92,2
133,120.48,110.15,2
133,120.73,110.38,2
133,120.98,110.61,2
135,121.26,110.85,2
135,121.53,111.09,2
135,121.80,111.33,2
133,122.03,111.55,2
135,122.29,111.78,2
135,122.54,112.02,2
131,122.71,112.21,2
135,122.95,112.43,2
137,123.24,112.68,2
140,123.57,112.95,2
139,123.88,113.21,2
139,124.18,113.47,2
139,124.48,113.73,2
141,124.81,114.00,2
141,125.13,114.27,2
143,125.49,114.56,2
142,125.82,114.83,2
143,126.16,115.11,2
141,126.46,115.37,2
143,126.79,115.65,2
141,127.08,115.90,2
143,127.39,116.17,2
143,127.71,116.44,2
143,128.01,116.71,2
143,128.31,116.97,2
143,128.61,117.23,2
143,128.89,117.49,2
144,129.20,117.75,2
145,129.51,118.02,2
143,129.78,118.27,2
145,130.09,118.54,2
145,130.38,118.81,2
145,130.68,119.07,2
144,130.94,119.32,2
145,131.22,119.57,2
145,131.50,119.83,2
144,131.75,120.07,2
144,131.99,120.31,2
145,132.25,120.56,2
144,132.49,120.79,2
144,132.72,121.02,2
143,132.93,121.24,2
143,133.13,121.46,2
143,133.32,121.68,2
143,133.52,121.89,2
143,133.71,122.10,2
144,133.91,122.32,2
144,134.11,122.54,2
145,134.33,122.76,2
145,134.55,122.98,2
145,134.76,123.20,2
144,134.94,123.41,2
145,135.14,123.63,2
145,135.34,123.84,2
144,135.51,124.04,2
145,135.70,124.25,2
143,135.85,124.44,2
145,136.03,124.65,2
143,136.17,124.83,2
143,136.31,125.01,2
143,136.44,125.19,2
145,136.61,125.39,2
143,136.74,125.56,2
144,136.88,125.75,2
143,137.01,125.92,2
144,137.15,126.10,2
145,137.30,126.29,2
144,137.44,126.47,2
143,137.55,126.63,2
145,137.70,126.82,2
145,137.84,127.00,2
144,137.97,127.17,2
146,138.13,127.36,2
145,138.27,127.53,2
145,138.40,127.71,2
145,138.53,127.88,2
145,138.66,128.05,2
146,138.81,128.23,2
145,138.93,128.40,2
145,139.05,128.57,2
145,139.17,128.73,2
145,139.29,128.89,2
144,139.38,129.04,2
145,139.50,129.20,2
145,139.61,129.36,2
145,139.71,129.52,2
145,139.82,129.67,2
145,139.92,129.83,2
144,140.00,129.97,2
144,140.08,130.11,2
144,140.16,130.25,2
145,140.26,130.39,2
145,140.35,130.54,2
145,140.45,130.69,2
143,140.50,130.81,2
144,140.57,130.94,2
144,140.64,131.07,2
144,140.70,131.20,2
143,140.75,131.32,2
143,140.79,131.43,2
141,140.80,131.53,2
143,140.84,131.65,2
143,140.89,131.76,2
143,140.93,131.87,2
143,140.97,131.98,2
142,140.99,132.08,2
143,141.03,132.19,2
142,141.05,132.29,2
141,141.05,132.38,2
141,141.05,132.46,2
141,141.05,132.55,2
141,141.05,132.63,2
141,141.05,132.72,2
141,141.04,132.80,2
139,141.00,132.86,2
141,141.00,132.94,2
139,140.96,133.00,2
141,140.96,133.08,2
140,140.94,133.15,2
141,140.95,133.23,2
139,140.91,133.29,2
141,140.91,133.37,2
139,140.87,133.42,2
139,140.83,133.48,2
139,140.80,133.53,2
139,140.76,133.59,2
139,140.73,133.64,2
139,140.69,133.70,2
139,140.66,133.75,2
139,140.62,133.80,2
140,140.61,133.86,2
138,140.56,133.90,2
139,140.53,133.96,2
139,140.50,134.01,2
138,140.45,134.05,2
138,140.40,134.09,2
139,140.37,134.13,2
137,140.30,134.16,2
139,140.28,134.21,2
141,140.29,134.28,2
137,140.23,134.31,2
137,140.16,134.33,2
137,140.10,134.36,2
137,140.04,134.39,2
137,139.98,134.41,2
137,139.92,134.44,2
137,139.86,134.46,2
137,139.80,134.49,2
136,139.72,134.50,2
135,139.63,134.51,2
135,139.54,134.51,2
135,139.45,134.52,2
135,139.36,134.52,2
137,139.31,134.55,2
135,139.22,134.55,2
134,139.12,134.55,2
133,139.00,134.53,2
134,138.90,134.53,2
135,138.82,134.53,2
135,138.74,134.54,2
134,138.65,134.53,2
133,138.54,134.52,2
133,138.42,134.50,2
132,138.30,134.48,2
133,138.19,134.46,2
133,138.09,134.45,2
133,137.98,134.43,2
133,137.89,134.42,2
133,137.79,134.40,2
133,137.69,134.39,2
133,137.60,134.38,2
133,137.51,134.36,2
133,137.42,134.35,2
132,137.31,134.32,2
133,137.22,134.31,2
131,137.10,134.28,2
132,136.99,134.26,2
132,136.90,134.23,2
132,136.80,134.21,2
132,136.70,134.19,2
131,136.59,134.16,2
132,136.50,134.14,2
131,136.39,134.10,2
132,136.30,134.08,2
130,136.17,134.04,2
131,136.07,134.01,2
130,135.95,133.97,2
129,135.81,133.92,2
129,135.67,133.87,2
129,135.54,133.82,2
129,135.41,133.78,2
131,135.32,133.75,2
129,135.19,133.70,2
129,135.07,133.65,2
127,134.91,133.59,2
129,134.79,133.54,2
129,134.67,133.50,2
128,134.54,133.44,2
128,134.41,133.39,2
128,134.28,133.33,2
128,134.16,133.28,2
128,134.03,133.23,2
129,133.93,133.18,2
127,133.79,133.12,2
127,133.66,133.06,2
127,133.52,133.00,2
127,133.39,132.94,2
127,133.27,132.88,2
127,133.14,132.82,2
126,133.00,132.75,2
126,132.86,132.69,2
125,132.70,132.61,3
125,132.55,132.53,3
126,132.42,132.47,4
126,132.29,132.40,4
125,132.14,132.33,4
125,132.00,132.26,4
127,131.90,132.20,4
125,131.76,132.13,4
125,131.63,132.06,4
124,131.47,131.98,4
124,131.32,131.90,4
124,131.18,131.82,4
125,131.05,131.75,4
124,130.91,131.67,4
125,130.79,131.61,4
124,130.66,131.53,4
123,130.51,131.45,4
124,130.38,131.37,4
123,130.23,131.29,4
124,130.10,131.22,4
124,129.98,131.14,4
123,129.84,131.06,4
123,129.70,130.98,4
121,129.53,130.88,4
121,129.36,130.78,4
122,129.21,130.70,4
121,129.05,130.60,4
121,128.89,130.50,4
121,128.73,130.41,4
121,128.58,130.31,4
121,128.42,130.22,4
121,128.28,130.13,4
121,128.13,130.04,4
120,127.97,129.94,4
121,127.83,129.85,4
120,127.67,129.75,4
120,127.52,129.65,4
120,127.37,129.55,4
119,127.20,129.45,4
120,127.06,129.35,4
120,126.92,129.26,4
119,126.76,129.16,4
119,126.60,129.06,4
119,126.45,128.96,4
119,126.30,128.86,4
118,126.13,128.75,4
120,126.01,128.66,4
117,125.83,128.54,4
117,125.66,128.43,4
117,125.48,128.31,4
117,125.31,128.20,4
117,125.15,128.09,4
117,124.98,127.98,4
117,124.82,127.87,4
117,124.67,127.76,4
117,124.51,127.65,4
117,124.36,127.55,4
117,124.22,127.44,4
117,124.07,127.34,4
116,123.91,127.22,4
116,123.75,127.11,4
116,123.60,127.00,4
115,123.43,126.88,4
117,123.30,126.78,4
115,123.13,126.66,4
115,122.97,126.55,4
115,122.81,126.43,4
115,122.65,126.32,4
115,122.50,126.20,4
116,122.37,126.10,4
115,122.22,125.99,4
115,122.08,125.88,4
115,121.94,125.77,4
115,121.80,125.66,4
116,121.68,125.57,4
114,121.53,125.45,4
115,121.40,125.35,4
117,121.31,125.26,4
113,121.14,125.14,4
113,120.98,125.02,4
113,120.82,124.90,4
113,120.66,124.78,4
113,120.51,124.66,4
113,120.36,124.55,4
113,120.21,124.43,4
113,120.07,124.32,4
113,119.93,124.20,4
113,119.79,124.09,4
113,119.65,123.98,4
112,119.50,123.86,4
112,119.35,123.74,4
111,119.18,123.61,4
112,119.04,123.50,4
111,118.88,123.37,4
112,118.74,123.26,4
113,118.63,123.16,4
110,118.45,123.02,4
111,118.31,122.90,4
111,118.16,122.79,4
111,118.02,122.67,4
111,117.88,122.55,4
112,117.76,122.45,4
111,117.62,122.33,4
111,117.49,122.22,4
109,117.32,122.09,4
111,117.19,121.97,4
111,117.07,121.86,4
110,116.93,121.75,4
110,116.79,121.63,4
110,116.65,121.51,4
109,116.50,121.39,4
109,116.35,121.26,4
109,116.20,121.14,4
109,116.06,121.02,4
109,115.92,120.90,4
109,115.78,120.78,4
109,115.65,120.66,4
109,115.51,120.55,4
110,115.40,120.44,4
109,115.27,120.33,4
109,115.15,120.21,4
109,115.03,120.10,4
109,114.90,119.99,4
108,114.77,119.87,4
108,114.63,119.75,4
108,114.50,119.63,4
107,114.35,119.51,4
108,114.22,119.39,4
108,114.10,119.28,4
108,113.98,119.17,4
108,113.86,119.05,4
107,113.72,118.93,4
107,113.58,118.81,4
108,113.47,118.71,4
107,113.34,118.59,4
106,113.20,118.46,4
105,113.03,118.33,4
107,112.91,118.21,4
105,112.75,118.08,4
106,112.62,117.96,4
106,112.49,117.84,4
106,112.36,117.72,4
105,112.21,117.60,4
105,112.07,117.47,4
105,111.92,117.35,4
105,111.79,117.22,4
105,111.65,117.10,4
105,111.52,116.98,4
105,111.39,116.86,4
105,111.26,116.74,4
106,111.15,116.63,4
105,111.03,116.52,4
105,110.91,116.40,4
105,110.79,116.29,4
105,110.68,116.18,4
105,110.56,116.06,4
105,110.45,115.95,4
104,110.32,115.83,4
104,110.20,115.71,4
104,110.07,115.60,4
104,109.95,115.48,4
105,109.85,115.38,4
104,109.73,115.26,4
103,109.60,115.14,4
103,109.47,115.02,4
104,109.36,114.91,4
103,109.23,114.79,4
105,109.15,114.69,4
103,109.02,114.58,4
103,108.90,114.46,4
103,108.78,114.34,4
103,108.67,114.23,4
103,108.56,114.12,4
102,108.42,114.00,4
103,108.32,113.89,4
102,108.19,113.77,4
102,108.07,113.65,4
102,107.94,113.53,4
101,107.81,113.41,4
102,107.69,113.30,4
101,107.56,113.17,4
101,107.42,113.05,4
101,107.30,112.93,4
101,107.17,112.81,4
101,107.05,112.69,4
101,106.93,112.58,4
101,106.81,112.46,4
99,106.65,112.33,4
99,106.50,112.19,4
101,106.39,112.08,4
100,106.26,111.96,4
99,106.12,111.83,4
99,105.97,111.70,4
99,105.83,111.57,4
99,105.70,111.45,4
100,105.58,111.33,4
100,105.47,111.22,4
99,105.34,111.10,4
99,105.22,110.98,4
98,105.07,110.85,4
98,104.93,110.72,4
100,104.83,110.61,4
98,104.69,110.49,4
99,104.58,110.37,4
98,104.45,110.25,4
98,104.32,110.13,4
96,104.15,109.98,4
98,104.03,109.86,4
98,103.91,109.75,4
98,103.79,109.63,4
100,103.72,109.53,4
98,103.60,109.42,4
98,103.49,109.30,4
98,103.38,109.19,4
98,103.27,109.08,4
98,103.17,108.97,4
97,103.04,108.85,4
98,102.94,108.74,4
100,102.88,108.65,4
98,102.79,108.54,4
97,102.67,108.43,4
98,102.58,108.32,4
98,102.49,108.22,4
97,102.38,108.11,4
96,102.25,107.99,4
96,102.12,107.87,4
96,102.00,107.75,4
98,101.92,107.65,4
96,101.80,107.54,4
97,101.71,107.43,4
100,101.67,107.36,4
97,101.58,107.25,4
96,101.47,107.14,4
97,101.38,107.04,4
96,101.27,106.93,4
96,101.16,106.82,4
96,101.06,106.71,4
96,100.96,106.60,4
96,100.86,106.50,4
95,100.74,106.38,4
94,100.61,106.26,4
95,100.50,106.15,4
96,100.41,106.04,4
95,100.30,105.93,4
95,100.19,105.82,4
96,100.11,105.73,4
94,99.99,105.61,4
96,99.91,105.51,4
96,99.83,105.42,4
95,99.73,105.31,4
96,99.66,105.22,4
94,99.54,105.11,4
95,99.45,105.01,4
93,99.32,104.89,4
94,99.22,104.78,4
94,99.11,104.67,4
93,98.99,104.55,4
98,98.97,104.49,4
94,98.87,104.38,4
94,98.77,104.28,4
93,98.66,104.17,4
93,98.55,104.06,4
94,98.46,103.95,4
93,98.35,103.85,4
93,98.24,103.74,4
93,98.13,103.63,4
93,98.03,103.52,4
93,97.93,103.42,4
93,97.83,103.31,4
92,97.72,103.20,4
93,97.62,103.10,4
93,97.53,103.00,4
94,97.46,102.91,4
92,97.35,102.80,4
93,97.26,102.70,4
92,97.16,102.59,4
92,97.05,102.49,4
93,96.97,102.39,4
92,96.87,102.29,4
91,96.76,102.18,4
91,96.64,102.06,4
92,96.55,101.96,4
91,96.44,101.85,4
91,96.33,101.75,4
91,96.22,101.64,4
92,96.14,101.54,4
92,96.05,101.45,4
91,95.95,101.34,4
91,95.85,101.24,4
91,95.76,101.14,4
91,95.66,101.03,4
89,95.53,100.91,4
90,95.42,100.81,4
90,95.31,100.70,4
89,95.18,100.58,4
93,95.14,100.50,4
91,95.06,100.41,4
90,94.96,100.31,4
90,94.86,100.20,4
89,94.74,100.09,4
88,94.61,99.97,4
90,94.51,99.87,4
89,94.40,99.76,4
89,94.29,99.65,4
89,94.19,99.55,4
91,94.12,99.46,4
89,94.02,99.36,4
89,93.92,99.25,4
89,93.82,99.15,4
88,93.71,99.04,4
89,93.61,98.94,4
90,93.54,98.85,4
88,93.43,98.74,4
88,93.32,98.63,4
88,93.21,98.53,4
88,93.11,98.42,4
88,93.01,98.32,4
88,92.91,98.21,4
88,92.81,98.11,4
88,92.71,98.01,4
88,92.62,97.91,4
89,92.55,97.82,4
88,92.46,97.72,4
88,92.37,97.63,4
86,92.24,97.51,4
87,92.13,97.40,4
87,92.03,97.30,4
87,91.93,97.20,4
86,91.81,97.09,4
86,91.70,96.98,4
87,91.60,96.88,4
86,91.49,96.77,4
86,91.38,96.66,4
87,91.29,96.56,4
87,91.21,96.47,4
86,91.10,96.36,4
86,91.00,96.26,4
88,90.94,96.18,4
87,90.86,96.08,4
86,90.77,95.98,4
86,90.67,95.88,4
87,90.60,95.79,4
86,90.50,95.70,4
86,90.41,95.60,4
86,90.33,95.50,4
85,90.22,95.40,4
86,90.14,95.30,4
86,90.05,95.21,4
86,89.97,95.12,4
86,89.89,95.03,4
86,89.81,94.94,4
86,89.74,94.85,4
86,89.66,94.76,4
87,89.61,94.68,4
86,89.54,94.60,4
86,89.47,94.51,4
86,89.40,94.42,4
87,89.35,94.35,4
86,89.28,94.27,4
86,89.22,94.18,4
86,89.15,94.10,4
85,89.07,94.01,4
86,89.01,93.93,4
84,88.91,93.83,4
86,88.85,93.75,4
85,88.77,93.67,4
84,88.68,93.57,4
84,88.58,93.47,4
86,88.53,93.40,4
85,88.46,93.32,4
85,88.39,93.23,4
86,88.34,93.16,4
85,88.28,93.08,4
84,88.19,92.99,4
86,88.15,92.92,4
84,88.07,92.83,4
84,87.98,92.74,4
85,87.92,92.66,4
83,87.83,92.57,4
84,87.75,92.48,4
84,87.67,92.40,4
84,87.60,92.31,4
84,87.53,92.23,4
84,87.46,92.15,4
83,87.37,92.05,4
83,87.28,91.96,4
84,87.22,91.88,4
84,87.15,91.81,4
84,87.09,91.73,4
83,87.01,91.64,4
83,86.93,91.55,4
82,86.83,91.46,4
82,86.73,91.36,4
84,86.68,91.29,4
84,86.62,91.22,4
84,86.57,91.14,4
82,86.48,91.05,4
84,86.43,90.98,4
84,86.38,90.91,4
81,86.27,90.81,4
82,86.19,90.73,4
82,86.10,90.64,4
84,86.06,90.57,4
83,86.00,90.50,4
82,85.92,90.41,4
82,85.84,90.33,4
83,85.79,90.25,4
81,85.69,90.16,4
82,85.62,90.08,4
83,85.56,90.01,4
84,85.53,89.95,4
82,85.46,89.87,4
82,85.39,89.79,4
81,85.31,89.70,4
83,85.26,89.64,4
80,85.15,89.54,4
82,85.09,89.46,4
82,85.03,89.39,4
81,84.95,89.31,4
82,84.89,89.23,4
82,84.83,89.16,4
81,84.75,89.08,4
81,84.68,89.00,4
82,84.63,88.93,4
80,84.53,88.84,4
81,84.46,88.76,4
84,84.45,88.71,4
81,84.38,88.64,4
80,84.30,88.55,4
81,84.23,88.47,4
81,84.17,88.40,4
80,84.08,88.31,4
80,84.00,88.23,4
79,83.90,88.14,4
81,83.84,88.07,4
80,83.77,87.99,4
80,83.69,87.91,4
79,83.60,87.82,4
80,83.53,87.74,4
80,83.45,87.66,4
79,83.37,87.58,4
79,83.28,87.49,4
80,83.21,87.42,4
80,83.15,87.34,4
79,83.07,87.26,4
81,83.02,87.20,4
79,82.94,87.11,4
80,82.89,87.04,4
79,82.81,86.96,4
79,82.73,86.88,4
79,82.66,86.80,4
78,82.56,86.72,4
78,82.47,86.63,4
80,82.42,86.56,4
78,82.33,86.48,4
80,82.29,86.41,4
78,82.20,86.33,4
79,82.14,86.25,4
79,82.08,86.18,4
80,82.03,86.12,4
78,81.95,86.04,4
79,81.89,85.97,4
80,81.86,85.91,4
78,81.78,85.83,4
78,81.70,85.75,4
79,81.65,85.68,4
78,81.58,85.61,4
80,81.54,85.55,4
78,81.47,85.48,4
79,81.42,85.41,4
82,81.44,85.38,4
79,81.39,85.31,4
78,81.32,85.24,4
78,81.25,85.17,4
78,81.19,85.10,4
79,81.14,85.03,4
78,81.08,84.96,4
77,81.00,84.88,4
79,80.96,84.83,4
78,80.90,84.76,4
78,80.84,84.69,4
78,80.79,84.62,4
78,80.73,84.56,4
78,80.68,84.49,4
78,80.62,84.43,4
78,80.57,84.36,4
79,80.54,84.31,4
78,80.49,84.25,4
78,80.44,84.18,4
79,80.41,84.13,4
78,80.36,84.07,4
79,80.33,84.02,4
78,80.29,83.96,4
77,80.22,83.89,4
77,80.16,83.82,4
77,80.09,83.75,4
78,80.05,83.69,4
77,79.99,83.63,4
78,79.95,83.57,4
78,79.91,83.52,4
78,79.87,83.46,4
78,79.84,83.41,4
77,79.78,83.34,4
77,79.72,83.28,4
78,79.69,83.23,4
78,79.66,83.17,4
82,79.70,83.16,4
78,79.67,83.11,4
78,79.63,83.06,4
78,79.60,83.01,4
77,79.55,82.95,4
77,79.50,82.89,4
76,79.43,82.82,4
78,79.40,82.77,4
79,79.39,82.73,4
76,79.32,82.67,4
76,79.26,82.60,4
76,79.19,82.53,4
78,79.17,82.49,4
76,79.11,82.42,4
76,79.04,82.36,4
76,78.98,82.30,4
75,78.90,82.22,4
76,78.85,82.16,4
76,78.79,82.10,4
77,78.75,82.05,4
77,78.72,82.00,4
76,78.66,81.94,4
76,78.61,81.88,4
77,78.58,81.83,4
75,78.51,81.76,4
76,78.46,81.70,4
76,78.41,81.65,4
76,78.36,81.59,4
77,78.33,81.54,4
76,78.28,81.49,4
78,78.28,81.45,4
78,78.27,81.42,4
78,78.27,81.39,4
78,78.26,81.35,4
79,78.28,81.33,4
79,78.29,81.30,4
78,78.29,81.27,4
78,78.28,81.24,4
78,78.27,81.21,4
79,78.29,81.18,4
79,78.30,81.16,4
80,78.34,81.15,4
78,78.33,81.12,4
79,78.34,81.10,4
78,78.34,81.07,4
78,78.33,81.04,4
78,78.32,81.01,4
79,78.34,80.99,4
78,78.33,80.96,4
79,78.34,80.94,4
78,78.34,80.91,4
78,78.33,80.88,4
78,78.32,80.85,4
77,78.30,80.81,4
78,78.29,80.78,4
78,78.29,80.76,4
78,78.28,80.73,4
79,78.29,80.71,4
79,78.31,80.69,4
78,78.30,80.67,4
82,78.38,80.68,4
79,78.39,80.66,4
78,78.38,80.64,4
78,78.37,80.61,4
81,78.43,80.61,4
79,78.44,80.60,4
78,78.43,80.57,4
78,78.42,80.55,4
77,78.39,80.51,4
78,78.38,80.49,4
78,78.38,80.46,4
78,78.37,80.44,4
80,78.40,80.43,4
77,78.37,80.40,4
78,78.37,80.37,4
78,78.36,80.35,4
77,78.33,80.32,4
77,78.30,80.28,4
78,78.30,80.26,4
77,78.27,80.23,4
77,78.25,80.20,4
78,78.24,80.17,4
78,78.24,80.15,4
77,78.21,80.12,4
77,78.19,80.09,4
77,78.16,80.06,4
78,78.16,80.04,4
77,78.14,80.01,4
79,78.16,80.00,4
77,78.13,79.97,4
78,78.13,79.95,4
78,78.13,79.93,4
77,78.10,79.90,4
78,78.10,79.88,4
78,78.10,79.86,4
77,78.08,79.83,4
77,78.06,79.80,4
78,78.06,79.79,4
78,78.05,79.77,4
79,78.07,79.76,4
78,78.07,79.74,4
78,78.07,79.73,4
78,78.07,79.71,4
77,78.05,79.68,4
78,78.05,79.66,4
78,78.05,79.65,4
78,78.04,79.63,4
78,78.04,79.61,4
78,78.04,79.60,4
78,78.04,79.58,4
78,78.04,79.57,4
78,78.04,79.55,4
79,78.06,79.55,4
79,78.08,79.54,4
78,78.08,79.52,4
78,78.08,79.51,4
78,78.07,79.49,4
78,78.07,79.48,4
78,78.07,79.46,4
79,78.09,79.46,4
78,78.09,79.45,4
80,78.13,79.45,4
78,78.12,79.44,4
84,78.24,79.48,4
80,78.28,79.49,4
78,78.27,79.47,4
78,78.27,79.46,4
79,78.28,79.45,4
80,78.31,79.46,4
80,78.35,79.46,4
80,78.38,79.47,4
80,78.41,79.47,4
80,78.45,79.48,4
78,78.44,79.46,4
79,78.45,79.46,4
79,78.46,79.46,4
78,78.45,79.44,4
79,78.46,79.44,4
79,78.47,79.43,4
76,78.42,79.40,4
78,78.41,79.38,4
79,78.43,79.38,4
78,78.42,79.37,4
79,78.43,79.36,4
79,78.44,79.36,4
79,78.45,79.36,4
79,78.46,79.35,4
79,78.47,79.35,4
79,78.48,79.34,4
80,78.51,79.35,4
79,78.52,79.35,4
79,78.53,79.34,4
82,78.60,79.37,4
79,78.61,79.37,4
78,78.60,79.35,4
79,78.61,79.35,4
80,78.63,79.36,4
79,78.64,79.35,4
78,78.63,79.34,4
80,78.66,79.35,4
80,78.68,79.35,4
78,78.67,79.34,4
79,78.68,79.34,4
79,78.68,79.33,4
81,78.73,79.35,4
79,78.73,79.35,4
79,78.74,79.34,4
81,78.78,79.36,4
80,78.81,79.37,4
79,78.81,79.36,4
79,78.82,79.36,4
81,78.86,79.37,4
79,78.86,79.37,4
79,78.87,79.37,4
78,78.85,79.35,4
79,78.85,79.35,4
79,78.85,79.35,4
78,78.84,79.33,4
78,78.82,79.32,4
78,78.80,79.31,4
79,78.81,79.30,4
78,78.79,79.29,4
78,78.78,79.28,4
78,78.76,79.26,4
78,78.75,79.25,4
78,78.73,79.24,4
78,78.72,79.23,4
78,78.70,79.21,4
77,78.67,79.19,4
78,78.65,79.18,4
78,78.64,79.17,4
78,78.63,79.16,4
78,78.62,79.15,4
78,78.60,79.13,4
78,78.59,79.12,4
79,78.60,79.12,4
78,78.59,79.11,4
78,78.58,79.10,4
77,78.54,79.08,4
77,78.51,79.06,4
78,78.50,79.05,4
77,78.47,79.03,4
78,78.46,79.02,4
78,78.45,79.01,4
77,78.43,78.99,4
78,78.42,78.98,4
77,78.39,78.96,4
77,78.36,78.94,4
77,78.33,78.92,4
76,78.29,78.89,4
78,78.28,78.88,4
77,78.26,78.86,4
77,78.23,78.84,4
76,78.19,78.81,4
78,78.18,78.81,4
77,78.16,78.79,4
76,78.12,78.76,4
78,78.11,78.75,4
78,78.11,78.74,4
77,78.09,78.73,4
76,78.05,78.70,4
76,78.01,78.67,4
76,77.97,78.65,4
77,77.95,78.63,4
76,77.91,78.60,4
77,77.89,78.59,4
76,77.85,78.56,4
77,77.83,78.55,4
76,77.80,78.52,4
76,77.76,78.49,4
76,77.73,78.47,4
76,77.69,78.45,4
76,77.66,78.42,4
76,77.62,78.40,4
76,77.59,78.37,4
77,77.58,78.36,4
76,77.55,78.34,4
77,77.54,78.32,4
79,77.57,78.33,4
77,77.56,78.32,4
76,77.52,78.29,4
76,77.49,78.27,4
76,77.46,78.25,4
76,77.44,78.22,4
76,77.41,78.20,4
76,77.38,78.18,4
76,77.35,78.16,4
76,77.32,78.14,4
76,77.30,78.12,4
75,77.25,78.08,4
76,77.23,78.06,4
76,77.20,78.04,4
75,77.16,78.01,4
76,77.13,77.99,4
76,77.11,77.97,4
75,77.07,77.94,4
76,77.05,77.92,4
76,77.03,77.90,4
75,76.99,77.87,4
76,76.97,77.86,4
77,76.97,77.85,4
77,76.97,77.84,4
76,76.95,77.82,4
77,76.95,77.81,4
76,76.93,77.79,4
77,76.93,77.79,4
77,76.93,77.78,4
77,76.93,77.77,4
77,76.94,77.76,4
77,76.94,77.76,4
76,76.92,77.74,4
77,76.92,77.73,4
77,76.92,77.72,4
78,76.94,77.73,4
76,76.92,77.71,4
77,76.93,77.70,4
78,76.95,77.70,4
78,76.97,77.71,4
78,76.99,77.71,4
78,77.01,77.71,4
77,77.01,77.71,4
78,77.03,77.71,4
78,77.05,77.71,4
79,77.09,77.72,4
79,77.13,77.74,4
78,77.14,77.74,4
78,77.16,77.74,4
79,77.20,77.76,4
78,77.21,77.76,4
78,77.23,77.76,4
78,77.24,77.76,4
77,77.24,77.76,4
78,77.25,77.76,4
81,77.33,77.79,4
78,77.34,77.79,4
78,77.36,77.79,4
78,77.37,77.80,4
78,77.38,77.80,4
78,77.39,77.80,4
79,77.43,77.81,4
79,77.46,77.82,4
78,77.47,77.83,4
79,77.50,77.84,4
81,77.57,77.87,4
79,77.60,77.88,4
80,77.65,77.90,4
82,77.73,77.94,4
79,77.76,77.95,4
80,77.80,77.97,4
80,77.85,77.99,4
79,77.87,78.00,4
81,77.93,78.03,4
80,77.97,78.05,4
82,78.05,78.09,4
79,78.07,78.10,4
81,78.13,78.13,4
81,78.19,78.16,4
82,78.27,78.20,4
82,78.34,78.24,4
81,78.39,78.26,4
82,78.47,78.30,4
82,78.54,78.34,4
80,78.57,78.35,4
82,78.63,78.39,4
80,78.66,78.41,4
81,78.71,78.43,4
82,78.77,78.47,4
81,78.82,78.49,4
81,78.86,78.52,4
81,78.91,78.54,4
82,78.97,78.58,4
82,79.03,78.61,4
82,79.09,78.65,4
81,79.13,78.67,4
84,79.22,78.72,4
83,79.30,78.77,4
86,79.43,78.84,4
83,79.50,78.88,4
84,79.59,78.93,4
85,79.70,78.99,4
85,79.81,79.05,4
84,79.89,79.10,4
86,80.01,79.17,4
86,80.13,79.24,4
85,80.23,79.30,4
86,80.35,79.36,4
85,80.44,79.42,4
87,80.57,79.50,4
88,80.72,79.58,4
88,80.86,79.67,4
87,80.99,79.74,4
88,81.13,79.82,4
89,81.29,79.91,4
90,81.46,80.01,4
88,81.59,80.09,4
88,81.72,80.17,4
89,81.86,80.26,4
88,81.99,80.34,4
88,82.11,80.41,4
86,82.18,80.47,4
88,82.30,80.55,4
88,82.42,80.62,4
88,82.53,80.69,4
89,82.66,80.78,4
88,82.76,80.85,4
88,82.87,80.92,4
88,82.97,80.99,4
88,83.07,81.06,4
88,83.17,81.13,4
87,83.25,81.19,4
90,83.38,81.28,4
89,83.49,81.36,4
91,83.64,81.45,4
91,83.79,81.55,4
92,83.96,81.65,4
95,84.18,81.79,4
93,84.35,81.90,4
94,84.55,82.02,4
96,84.77,82.16,4
97,85.02,82.31,4
98,85.28,82.46,4
97,85.51,82.61,4
98,85.76,82.76,4
101,86.07,82.95,4
102,86.39,83.14,4
99,86.64,83.29,4
102,86.95,83.48,4
101,87.23,83.66,4
103,87.54,83.85,4
101,87.81,84.02,4
101,88.08,84.19,4
102,88.35,84.37,4
101,88.61,84.54,4
101,88.85,84.70,4
103,89.14,84.88,4
104,89.43,85.07,4
105,89.75,85.27,4
105,90.05,85.47,4
105,90.35,85.67,4
106,90.66,85.87,4
108,91.01,86.09,4
110,91.39,86.33,4
110,91.76,86.57,4
110,92.13,86.80,4
109,92.46,87.02,4
110,92.81,87.25,4
111,93.18,87.49,4
111,93.53,87.73,4
110,93.86,87.95,4
111,94.21,88.18,4
110,94.52,88.40,4
109,94.81,88.60,4
111,95.14,88.83,4
109,95.41,89.03,4
111,95.73,89.25,4
113,96.07,89.49,4
111,96.37,89.70,4
111,96.66,89.91,4
111,96.95,90.12,4
111,97.23,90.33,4
109,97.47,90.52,4
111,97.74,90.73,4
112,98.02,90.94,4
110,98.26,91.13,4
114,98.58,91.36,4
114,98.88,91.58,4
114,99.19,91.81,4
113,99.46,92.02,4
114,99.75,92.24,4
113,100.02,92.45,4
115,100.32,92.67,4
113,100.57,92.88,4
115,100.86,93.10,4
115,101.14,93.32,4
115,101.42,93.53,4
116,101.71,93.76,4
118,102.04,94.00,4
118,102.36,94.24,4
123,102.77,94.53,4
120,103.11,94.78,4
121,103.47,95.04,4
125,103.90,95.34,4
126,104.34,95.65,4
124,104.74,95.93,4
124,105.12,96.21,4
126,105.54,96.51,4
123,105.89,96.78,4
124,106.25,97.05,4
125,106.63,97.33,4
126,107.01,97.62,4
128,107.43,97.92,4
126,107.81,98.20,4
128,108.21,98.50,4
126,108.56,98.77,4
128,108.95,99.07,4
128,109.33,99.36,4
129,109.73,99.65,4
128,110.09,99.94,4
129,110.47,100.23,4
128,110.82,100.50,4
130,111.21,100.80,4
130,111.58,101.09,4
131,111.97,101.39,4
130,112.33,101.68,4
129,112.66,101.95,4
130,113.01,102.23,4
131,113.37,102.52,4
130,113.70,102.79,4
132,114.07,103.08,4
131,114.41,103.36,4
130,114.72,103.63,4
132,115.06,103.91,4
132,115.40,104.19,4
134,115.78,104.49,4
133,116.12,104.78,4
132,116.44,105.05,4
132,116.75,105.32,4
133,117.07,105.60,4
133,117.39,105.87,4
133,117.70,106.14,4
136,118.07,106.44,4
135,118.41,106.73,4
134,118.72,107.00,4
135,119.05,107.28,4
133,119.33,107.54,4
133,119.60,107.79,4
133,119.87,108.04,4
134,120.15,108.30,4
137,120.49,108.59,4
136,120.80,108.86,4
137,121.12,109.14,4
136,121.42,109.41,4
137,121.73,109.69,4
136,122.02,109.95,4
136,122.30,110.21,4
137,122.59,110.48,4
136,122.86,110.74,4
137,123.14,111.00,4
137,123.42,111.26,4
137,123.69,111.52,4
137,123.96,111.77,4
138,124.24,112.03,4
137,124.49,112.28,4
137,124.74,112.53,4
137,124.99,112.77,4
137,125.23,113.02,4
138,125.48,113.27,4
137,125.71,113.50,4
137,125.94,113.74,4
137,126.16,113.97,4
136,126.36,114.19,4
137,126.57,114.42,4
136,126.76,114.64,4
136,126.94,114.85,4
136,127.12,115.06,4
137,127.32,115.28,4
135,127.48,115.48,4
136,127.65,115.68,4
135,127.79,115.88,4
139,128.02,116.11,4
136,128.18,116.31,4
136,128.33,116.50,4
136,128.49,116.70,4
139,128.70,116.92,4
138,128.88,117.13,4
138,129.07,117.34,4
139,129.26,117.56,4
139,129.46,117.77,4
140,129.67,117.99,4
141,129.90,118.22,4
142,130.14,118.46,4
141,130.36,118.69,4
143,130.61,118.93,4
143,130.86,119.17,4
141,131.06,119.39,4
142,131.28,119.61,4
141,131.47,119.83,4
141,131.66,120.04,4
141,131.85,120.25,4
141,132.03,120.46,4
141,132.21,120.66,4
140,132.37,120.86,4
140,132.52,121.05,4
140,132.67,121.24,4
139,132.80,121.42,4
140,132.94,121.60,4
140,133.08,121.78,4
140,133.22,121.97,4
139,133.34,122.14,4
139,133.45,122.31,4
139,133.56,122.47,4
140,133.69,122.65,4
139,133.80,122.81,4
139,133.90,122.97,4
139,134.00,123.13,4
140,134.12,123.30,4
138,134.20,123.45,4
139,134.29,123.61,4
139,134.39,123.76,4
139,134.48,123.91,4
139,134.57,124.06,4
138,134.64,124.20,4
139,134.73,124.35,4
138,134.79,124.49,4
137,134.84,124.61,4
137,134.88,124.74,4
137,134.92,124.86,4
137,134.96,124.98,4
137,135.00,125.10,4
137,135.04,125.22,4
137,135.08,125.34,4
137,135.12,125.45,4
137,135.16,125.57,4
136,135.18,125.67,4
136,135.19,125.78,4
136,135.21,125.88,4
136,135.23,125.98,4
136,135.24,126.08,4
135,135.24,126.17,4
135,135.23,126.26,4
135,135.23,126.34,4
135,135.22,126.43,4
135,135.22,126.52,4
135,135.21,126.60,4
135,135.21,126.69,4
134,135.18,126.76,4
135,135.18,126.84,4
135,135.18,126.92,4
135,135.17,127.00,4
135,135.17,127.08,4
131,135.09,127.12,4
133,135.05,127.18,4
133,135.00,127.24,4
134,134.98,127.31,4
133,134.94,127.36,4
133,134.91,127.42,4
133,134.87,127.48,4
132,134.81,127.52,4
133,134.77,127.58,4
131,134.70,127.61,4
132,134.64,127.65,4
131,134.57,127.69,4
132,134.52,127.73,4
131,134.45,127.76,4
131,134.38,127.80,4
131,134.31,127.83,4
131,134.25,127.86,4
131,134.18,127.89,4
131,134.12,127.92,4
132,134.08,127.96,4
132,134.03,128.00,4
130,133.95,128.02,4
130,133.87,128.04,4
130,133.80,128.06,4
130,133.72,128.08,4
130,133.65,128.10,4
129,133.55,128.11,4
129,133.46,128.12,4
129,133.37,128.13,4
129,133.29,128.14,4
130,133.22,128.16,4
129,133.14,128.16,4
129,133.05,128.17,4
128,132.95,128.17,4
128,132.85,128.17,4
128,132.76,128.17,4
128,132.66,128.17,4
128,132.57,128.16,4
127,132.46,128.15,4
131,132.43,128.18,4
127,132.32,128.17,4
127,132.21,128.16,4
125,132.07,128.13,4
127,131.97,128.11,4
127,131.87,128.10,4
126,131.75,128.08,4
126,131.64,128.06,4
126,131.52,128.04,4
125,131.39,128.01,4
126,131.28,127.99,4
126,131.18,127.97,4
125,131.05,127.94,4
127,130.97,127.93,4
126,130.87,127.91,4
126,130.78,127.89,4
124,130.64,127.85,4
125,130.53,127.83,4
125,130.42,127.80,4
125,130.31,127.77,4
125,130.20,127.74,4
124,130.08,127.70,4
124,129.96,127.67,4
124,129.84,127.63,4
123,129.70,127.58,4
123,129.57,127.54,4
124,129.46,127.50,4
124,129.35,127.47,4
123,129.22,127.42,4
123,129.10,127.38,4
123,128.97,127.34,4
123,128.85,127.29,4
123,128.74,127.25,4
121,128.58,127.19,4
122,128.45,127.13,4
123,128.34,127.09,4
122,128.22,127.04,4
122,128.09,126.99,4
121,127.95,126.93,4
121,127.81,126.87,4
121,127.67,126.81,4
121,127.54,126.76,4
121,127.41,126.70,4
121,127.28,126.64,4
121,127.16,126.58,4
121,127.03,126.53,4
121,126.91,126.47,4
120,126.77,126.41,4
120,126.64,126.34,4
120,126.51,126.28,4
120,126.38,126.22,4
120,126.25,126.16,4
119,126.10,126.08,4
119,125.96,126.01,4
119,125.82,125.94,4
119,125.69,125.87,4
120,125.57,125.82,4
119,125.44,125.75,4
119,125.31,125.68,4
118,125.17,125.60,4
119,125.04,125.54,4
118,124.90,125.46,4
118,124.76,125.39,4
118,124.63,125.31,4
119,124.52,125.25,4
117,124.36,125.17,4
117,124.22,125.09,4
117,124.07,125.01,4
117,123.93,124.93,4
118,123.81,124.86,4
117,123.68,124.78,4
117,123.54,124.70,4
117,123.41,124.62,4
117,123.28,124.55,4
117,123.16,124.47,4
116,123.02,124.39,4
116,122.88,124.30,4
116,122.74,124.22,4
115,122.58,124.13,4
117,122.47,124.06,4
115,122.32,123.97,4
115,122.18,123.88,4
115,122.03,123.79,4
115,121.89,123.70,4
115,121.75,123.61,4
115,121.62,123.53,4
114,121.47,123.43,4
114,121.32,123.34,4
113,121.15,123.23,4
113,120.99,123.13,4
114,120.85,123.04,4
114,120.71,122.95,4
113,120.56,122.85,4
113,120.41,122.75,4
113,120.26,122.65,4
113,120.11,122.56,4
115,120.01,122.48,4
113,119.87,122.39,4
113,119.73,122.29,4
113,119.60,122.20,4
113,119.47,122.11,4
113,119.34,122.02,4
113,119.21,121.93,4
112,119.07,121.83,4
112,118.92,121.73,4
111,118.77,121.62,4
111,118.61,121.52,4
111,118.46,121.41,4
112,118.33,121.32,4
111,118.18,121.21,4
111,118.04,121.11,4
112,117.92,121.02,4
111,117.78,120.92,4
111,117.64,120.82,4
111,117.51,120.72,4
110,117.36,120.61,4
111,117.23,120.52,4
111,117.11,120.42,4
110,116.97,120.32,4
111,116.85,120.23,4
109,116.69,120.11,4
110,116.56,120.01,4
111,116.45,119.92,4
110,116.32,119.82,4
110,116.19,119.73,4
109,116.05,119.62,4
109,115.91,119.51,4
109,115.77,119.41,4
109,115.63,119.30,4
109,115.50,119.20,4
109,115.37,119.10,4
109,115.24,119.00,4
109,115.12,118.90,4
108,114.97,118.79,4
109,114.86,118.69,4
109,114.74,118.59,4
108,114.60,118.49,4
109,114.49,118.39,4
108,114.36,118.29,4
109,114.25,118.20,4
108,114.13,118.09,4
108,114.01,117.99,4
107,113.87,117.88,4
108,113.75,117.78,4
107,113.61,117.68,4
108,113.50,117.58,4
107,113.37,117.47,4
108,113.26,117.38,4
107,113.14,117.27,4
111,113.10,117.21,4
107,112.97,117.11,4
109,112.90,117.03,4
108,112.80,116.94,4
107,112.68,116.84,4
107,112.57,116.74,4
107,112.46,116.64,4
107,112.35,116.55,4
107,112.24,116.45,4
107,112.14,116.36,4
107,112.03,116.26,4
107,111.93,116.17,4
106,111.81,116.07,4
107,111.72,115.98,4
105,111.58,115.87,4
106,111.47,115.77,4
104,111.32,115.65,4
107,111.24,115.57,4
105,111.11,115.46,4
105,110.99,115.36,4
105,110.87,115.25,4
105,110.75,115.15,4
105,110.64,115.05,4
105,110.52,114.95,4
105,110.41,114.85,4
105,110.30,114.75,4
105,110.20,114.65,4
104,110.07,114.55,4
105,109.97,114.45,4
104,109.85,114.35,4
104,109.74,114.24,4
105,109.64,114.15,4
104,109.53,114.05,4
103,109.40,113.94,4
105,109.31,113.85,4
104,109.20,113.75,4
104,109.10,113.65,4
104,109.00,113.56,4
103,108.88,113.45,4
103,108.76,113.35,4
105,108.69,113.26,4
104,108.59,113.17,4
103,108.48,113.07,4
104,108.39,112.98,4
103,108.28,112.88,4
104,108.20,112.79,4
104,108.11,112.70,4
103,108.01,112.60,4
103,107.91,112.51,4
103,107.81,112.41,4
103,107.72,112.32,4
103,107.62,112.23,4
103,107.53,112.13,4
103,107.44,112.04,4
101,107.31,111.93,4
102,107.20,111.83,4
102,107.10,111.73,4
103,107.02,111.65,4
102,106.92,111.55,4
101,106.80,111.44,4
101,106.68,111.34,4
101,106.57,111.24,4
102,106.48,111.14,4
102,106.39,111.05,4
101,106.28,110.95,4
101,106.18,110.85,4
101,106.07,110.75,4
101,105.97,110.66,4
101,105.87,110.56,4
101,105.77,110.46,4
101,105.68,110.37,4
101,105.58,110.28,4
102,105.51,110.19,4
101,105.42,110.10,4
101,105.33,110.01,4
101,105.25,109.92,4
101,105.16,109.83,4
101,105.08,109.74,4
101,105.00,109.66,4
101,104.92,109.57,4
101,104.84,109.48,4
101,104.76,109.40,4
101,104.69,109.31,4
101,104.61,109.23,4
101,104.54,109.15,4
101,104.47,109.07,4
101,104.40,108.99,4
101,104.33,108.91,4
101,104.27,108.83,4
103,104.24,108.77,4
101,104.18,108.69,4
101,104.11,108.61,4
101,104.05,108.54,4
100,103.97,108.45,4
100,103.89,108.37,4
101,103.83,108.30,4
100,103.76,108.21,4
100,103.68,108.13,4
101,103.63,108.06,4
101,103.57,107.99,4
101,103.52,107.92,4
101,103.47,107.85,4
100,103.40,107.77,4
101,103.35,107.70,4
101,103.31,107.64,4
99,103.22,107.55,4
99,103.14,107.46,4
99,103.05,107.38,4
100,102.99,107.31,4
100,102.93,107.23,4
99,102.85,107.15,4
99,102.78,107.07,4
99,102.70,106.99,4
98,102.61,106.90,4
99,102.54,106.82,4
102,102.53,106.77,4
98,102.43,106.68,4
98,102.35,106.60,4
98,102.26,106.51,4
98,102.17,106.43,4
98,102.09,106.34,4
98,102.01,106.26,4
98,101.93,106.18,4
99,101.87,106.10,4
98,101.79,106.02,4
98,101.72,105.94,4
99,101.66,105.87,4
98,101.59,105.79,4
98,101.52,105.72,4
95,101.39,105.61,4
97,101.30,105.52,4
98,101.23,105.45,4
98,101.17,105.37,4
97,101.09,105.29,4
96,100.98,105.20,4
96,100.88,105.10,4
96,100.79,105.01,4
100,100.77,104.96,4
97,100.69,104.88,4
96,100.60,104.79,4
96,100.51,104.71,4
96,100.42,104.62,4
95,100.31,104.52,4
96,100.22,104.44,4
95,100.12,104.34,4
96,100.04,104.26,4
96,99.96,104.18,4
95,99.86,104.09,4
96,99.78,104.01,4
96,99.70,103.93,4
95,99.61,103.84,4
96,99.54,103.76,4
95,99.45,103.67,4
95,99.36,103.58,4
95,99.27,103.50,4
96,99.21,103.42,4
96,99.14,103.35,4
95,99.06,103.26,4
96,99.00,103.19,4
95,98.92,103.11,4
95,98.84,103.03,4
95,98.76,102.95,4
95,98.69,102.87,4
95,98.61,102.79,4
95,98.54,102.71,4
93,98.43,102.62,4
95,98.36,102.54,4
95,98.29,102.46,4
95,98.23,102.39,4
98,98.22,102.35,4
94,98.14,102.26,4
95,98.08,102.19,4
95,98.02,102.12,4
94,97.94,102.04,4
93,97.84,101.95,4
93,97.74,101.86,4
94,97.67,101.78,4
94,97.59,101.70,4
95,97.54,101.63,4
95,97.49,101.57,4
93,97.40,101.48,4
93,97.31,101.40,4
93,97.23,101.31,4
93,97.14,101.23,4
93,97.06,101.15,4
93,96.98,101.07,4
93,96.90,100.98,4
93,96.82,100.91,4
94,96.76,100.84,4
93,96.69,100.76,4
93,96.61,100.68,4
93,96.54,100.60,4
93,96.47,100.53,4
93,96.40,100.45,4
92,96.31,100.37,4
93,96.25,100.29,4
93,96.18,100.22,4
92,96.10,100.14,4
92,96.02,100.06,4
93,95.96,99.99,4
93,95.90,99.92,4
91,95.80,99.83,4
92,95.72,99.75,4
92,95.65,99.67,4
92,95.58,99.60,4
92,95.50,99.52,4
92,95.43,99.44,4
92,95.37,99.37,4
92,95.30,99.30,4
91,95.21,99.21,4
90,95.11,99.12,4
92,95.05,99.05,4
91,94.96,98.97,4
91,94.89,98.89,4
92,94.83,98.82,4
92,94.77,98.75,4
91,94.70,98.67,4
92,94.64,98.61,4
91,94.57,98.53,4
92,94.52,98.47,4
91,94.45,98.39,4
91,94.38,98.32,4
89,94.27,98.22,4
90,94.19,98.14,4
91,94.12,98.07,4
93,94.10,98.02,4
89,94.00,97.93,4
90,93.92,97.85,4
90,93.84,97.77,4
90,93.76,97.69,4
90,93.69,97.62,4
90,93.61,97.54,4
91,93.56,97.48,4
90,93.49,97.40,4
92,93.46,97.35,4
90,93.39,97.27,4
90,93.32,97.20,4
92,93.30,97.15,4
89,93.21,97.07,4
90,93.15,97.00,4
90,93.08,96.93,4
89,93.00,96.85,4
90,92.94,96.78,4
90,92.88,96.71,4
90,92.83,96.64,4
90,92.77,96.58,4
89,92.69,96.50,4
89,92.62,96.43,4
88,92.53,96.34,4
89,92.46,96.27,4
90,92.41,96.21,4
88,92.32,96.12,4
90,92.27,96.06,4
90,92.23,96.00,4
90,92.18,95.94,4
90,92.14,95.88,4
90,92.10,95.82,4
90,92.05,95.77,4
90,92.01,95.71,4
90,91.97,95.65,4
90,91.93,95.60,4
90,91.90,95.54,4
90,91.86,95.48,4
90,91.82,95.43,4
89,91.76,95.36,4
89,91.71,95.30,4
90,91.67,95.25,4
90,91.64,95.20,4
89,91.59,95.13,4
89,91.54,95.07,4
89,91.49,95.01,4
88,91.42,94.94,4
92,91.43,94.91,4
89,91.38,94.85,4
90,91.35,94.80,4
88,91.28,94.74,4
88,91.22,94.67,4
89,91.17,94.61,4
88,91.11,94.55,4
88,91.05,94.48,4
88,90.99,94.42,4
88,90.93,94.35,4
88,90.87,94.29,4
88,90.81,94.23,4
88,90.76,94.16,4
92,90.78,94.14,4
88,90.72,94.08,4
88,90.67,94.02,4
90,90.66,93.98,4
88,90.60,93.92,4
88,90.55,93.86,4
88,90.50,93.80,4
88,90.45,93.74,4
87,90.38,93.68,4
86,90.29,93.60,4
89,90.27,93.55,4
87,90.20,93.49,4
88,90.16,93.43,4
90,90.16,93.40,4
87,90.09,93.33,4
87,90.03,93.27,4
85,89.93,93.19,4
86,89.85,93.12,4
88,89.81,93.07,4
87,89.76,93.00,4
87,89.70,92.94,4
87,89.65,92.89,4
88,89.62,92.84,4
88,89.58,92.79,4
86,89.51,92.72,4
88,89.48,92.67,4
88,89.45,92.63,4
88,89.42,92.58,4
87,89.37,92.52,4
89,89.37,92.49,4
88,89.34,92.44,4
87,89.29,92.39,4
87,89.25,92.34,4
87,89.20,92.28,4
86,89.14,92.22,4
86,89.08,92.16,4
86,89.01,92.10,4
86,88.95,92.03,4
86,88.89,91.97,4
86,88.84,91.91,4
87,88.80,91.87,4
86,88.74,91.81,4
86,88.69,91.75,4
86,88.64,91.69,4
87,88.60,91.64,4
86,88.55,91.59,4
86,88.50,91.53,4
86,88.45,91.48,4
85,88.38,91.41,4
85,88.31,91.35,4
85,88.25,91.28,4
86,88.20,91.23,4
85,88.14,91.17,4
85,88.07,91.11,4
86,88.03,91.06,4
84,87.95,90.99,4
85,87.89,90.93,4
85,87.84,90.87,4
84,87.76,90.80,4
85,87.70,90.74,4
85,87.65,90.68,4
84,87.58,90.62,4
84,87.51,90.55,4
84,87.44,90.48,4
85,87.39,90.43,4
85,87.34,90.38,4
84,87.27,90.31,4
85,87.23,90.26,4
85,87.18,90.21,4
84,87.12,90.14,4
85,87.08,90.09,4
84,87.01,90.03,4
85,86.97,89.98,4
84,86.91,89.92,4
84,86.86,89.86,4
84,86.80,89.80,4
84,86.74,89.75,4
83,86.67,89.68,4
84,86.62,89.62,4
86,86.60,89.58,4
84,86.55,89.53,4
83,86.48,89.46,4
82,86.39,89.39,4
84,86.34,89.34,4
83,86.28,89.27,4
84,86.23,89.22,4
83,86.17,89.16,4
84,86.12,89.11,4
83,86.06,89.04,4
83,86.00,88.98,4
84,85.96,88.93,4
84,85.92,88.88,4
83,85.86,88.83,4
84,85.82,88.78,4
84,85.79,88.73,4
84,85.75,88.68,4
83,85.70,88.63,4
82,85.62,88.56,4
85,85.61,88.52,4
84,85.58,88.48,4
83,85.53,88.42,4
82,85.46,88.36,4
84,85.43,88.32,4
84,85.40,88.27,4
83,85.35,88.22,4
82,85.28,88.16,4
82,85.22,88.10,4
82,85.15,88.04,4
82,85.09,87.97,4
86,85.11,87.96,4
82,85.05,87.90,4
83,85.01,87.85,4
84,84.99,87.81,4
82,84.93,87.75,4
84,84.91,87.71,4
85,84.91,87.69,4
84,84.89,87.65,4
82,84.83,87.59,4
82,84.78,87.54,4
82,84.72,87.48,4
84,84.71,87.45,4
83,84.67,87.40,4
82,84.62,87.35,4
83,84.59,87.30,4
84,84.57,87.27,4
81,84.50,87.21,4
82,84.45,87.16,4
82,84.40,87.10,4
82,84.36,87.05,4
82,84.31,87.00,4
82,84.26,86.95,4
80,84.18,86.88,4
82,84.13,86.83,4
82,84.09,86.79,4
82,84.05,86.74,4
82,84.01,86.69,4
83,83.99,86.65,4
84,83.99,86.63,4
82,83.95,86.58,4
82,83.91,86.54,4
83,83.89,86.50,4
84,83.89,86.48,4
82,83.86,86.43,4
82,83.82,86.39,4
83,83.80,86.35,4
82,83.77,86.31,4
81,83.71,86.26,4
80,83.64,86.19,4
81,83.58,86.14,4
81,83.53,86.09,4
82,83.50,86.05,4
80,83.43,85.99,4
81,83.38,85.94,4
81,83.34,85.89,4
80,83.27,85.83,4
81,83.22,85.78,4
83,83.22,85.75,4
81,83.17,85.71,4
82,83.15,85.67,4
82,83.13,85.63,4
81,83.09,85.59,4
82,83.06,85.55,4
82,83.04,85.52,4
82,83.02,85.48,4
82,83.00,85.45,4
82,82.98,85.41,4
82,82.96,85.38,4
80,82.90,85.32,4
81,82.86,85.28,4
82,82.85,85.25,4
80,82.79,85.19,4
82,82.77,85.16,4
81,82.74,85.12,4
81,82.70,85.08,4
80,82.65,85.03,4
80,82.60,84.98,4
80,82.54,84.93,4
80,82.49,84.88,4
80,82.44,84.83,4
79,82.38,84.77,4
80,82.33,84.72,4
80,82.28,84.68,4
80,82.24,84.63,4
79,82.17,84.57,4
80,82.13,84.53,4
80,82.08,84.48,4
80,82.04,84.44,4
79,81.98,84.38,4
80,81.94,84.34,4
80,81.90,84.30,4
80,81.87,84.25,4
79,81.81,84.20,4
80,81.77,84.16,4
80,81.74,84.12,4
79,81.68,84.07,4
79,81.63,84.02,4
80,81.60,83.98,4
79,81.54,83.93,4
80,81.51,83.89,4
80,81.48,83.85,4
80,81.45,83.81,4
80,81.42,83.77,4
80,81.40,83.73,4
79,81.35,83.69,4
80,81.32,83.65,4
80,81.29,83.61,4
79,81.25,83.57,4
79,81.20,83.52,4
80,81.18,83.49,4
82,81.20,83.47,4
79,81.15,83.43,4
79,81.11,83.38,4
81,81.11,83.36,4
80,81.08,83.32,4
79,81.04,83.28,4
79,81.00,83.24,4
81,81.00,83.22,4
81,81.00,83.19,4
79,80.96,83.15,4
79,80.92,83.11,4
81,80.92,83.09,4
79,80.89,83.05,4
79,80.85,83.01,4
79,80.81,82.97,4
79,80.77,82.93,4
80,80.76,82.90,4
79,80.72,82.86,4
79,80.69,82.82,4
79,80.66,82.78,4
79,80.62,82.75,4
80,80.61,82.72,4
79,80.58,82.68,4
79,80.55,82.64,4
79,80.52,82.61,4
78,80.47,82.56,4
78,80.42,82.52,4
79,80.39,82.48,4
79,80.36,82.45,4
78,80.31,82.40,4
78,80.27,82.36,4
80,80.26,82.33,4
78,80.22,82.29,4
78,80.17,82.25,4
78,80.13,82.21,4
77,80.07,82.15,4
78,80.02,82.11,4
75,79.92,82.04,4
78,79.89,82.00,4
77,79.83,81.95,4
77,79.77,81.90,4
78,79.74,81.86,4
78,79.70,81.82,4
79,79.69,81.79,4
78,79.65,81.76,4
78,79.62,81.72,4
78,79.59,81.68,4
79,79.58,81.66,4
78,79.54,81.62,4
78,79.51,81.58,4
