Teste de posicionamento 2(EMG ao centro do bíceps (Vermelho A, Verde B) + Ref no cotovelo) - 19/10/2024 - teste8 - 5 contrações
long frequencia = 1000;                 //frequência de aquisição do sinal, neste caso, 1000 sinais por segundo
float fator1 = 0.02, fator2 = 0.01;
float incerteza = 0.13;
float pico_basal = 130; // Mínimo para ser considerado um pico de contração
int filtro_horizontal=200000; //intervalo de 200ms valores não pode ter mais de 1 contração

Biceps_D,mediaMovel_1,mediaMovel_2,Contracao
34,0.68,0.34,0
33,1.33,0.67,0
35,2.00,1.01,0
34,2.64,1.34,0
34,3.27,1.67,0
36,3.92,2.01,0
35,4.54,2.34,0
34,5.13,2.66,0
36,5.75,2.99,0
36,6.35,3.32,0
33,6.89,3.62,0
34,7.43,3.92,0
36,8.00,4.24,0
34,8.52,4.54,0
37,9.09,4.86,0
34,9.59,5.15,0
35,10.10,5.45,0
34,10.58,5.74,0
34,11.04,6.02,0
34,11.50,6.30,0
38,12.03,6.62,0
35,12.49,6.90,0
35,12.94,7.18,0
34,13.36,7.45,0
35,13.80,7.73,0
34,14.20,7.99,0
34,14.60,8.25,0
35,15.00,8.52,0
34,15.38,8.77,0
34,15.76,9.02,0
35,16.14,9.28,0
34,16.50,9.53,0
34,16.85,9.78,0
34,17.19,10.02,0
34,17.53,10.26,0
34,17.86,10.50,0
34,18.18,10.73,0
33,18.48,10.95,0
34,18.79,11.18,0
34,19.09,11.41,0
33,19.37,11.63,0
34,19.66,11.85,0
34,19.95,12.07,0
36,20.27,12.31,0
34,20.54,12.53,0
34,20.81,12.74,0
34,21.08,12.96,0
34,21.34,13.17,0
34,21.59,13.37,0
34,21.84,13.58,0
36,22.12,13.81,0
34,22.36,14.01,0
34,22.59,14.21,0
34,22.82,14.41,0
34,23.04,14.60,0
34,23.26,14.80,0
34,23.48,14.99,0
34,23.69,15.18,0
33,23.87,15.36,0
34,24.08,15.54,0
34,24.27,15.73,0
34,24.47,15.91,0
33,24.64,16.08,0
33,24.81,16.25,0
34,24.99,16.43,0
35,25.19,16.61,0
33,25.35,16.78,0
34,25.52,16.95,0
34,25.69,17.12,0
34,25.86,17.29,0
34,26.02,17.46,0
34,26.18,17.62,0
34,26.33,17.78,0
34,26.49,17.95,0
34,26.64,18.11,0
34,26.79,18.27,0
34,26.93,18.42,0
34,27.07,18.58,0
34,27.21,18.73,0
34,27.35,18.89,0
34,27.48,19.04,0
33,27.59,19.18,0
34,27.72,19.32,0
34,27.84,19.47,0
34,27.97,19.62,0
33,28.07,19.75,0
34,28.19,19.89,0
34,28.30,20.03,0
34,28.42,20.17,0
33,28.51,20.30,0
34,28.62,20.44,0
34,28.72,20.57,0
34,28.83,20.71,0
35,28.95,20.85,0
34,29.05,20.98,0
34,29.15,21.11,0
34,29.25,21.24,0
31,29.29,21.34,0
34,29.38,21.47,0
34,29.47,21.59,0
34,29.56,21.72,0
35,29.67,21.85,0
35,29.78,21.98,0
34,29.86,22.10,0
34,29.95,22.22,0
34,30.03,22.34,0
34,30.11,22.45,0
34,30.18,22.57,0
34,30.26,22.68,0
31,30.27,22.77,0
34,30.35,22.88,0
36,30.46,23.01,0
34,30.53,23.12,0
35,30.62,23.24,0
34,30.69,23.35,0
34,30.76,23.45,0
34,30.82,23.56,0
34,30.88,23.66,0
35,30.97,23.78,0
34,31.03,23.88,0
34,31.09,23.98,0
33,31.13,24.07,0
34,31.18,24.17,0
34,31.24,24.27,0
36,31.33,24.39,0
35,31.41,24.49,0
36,31.50,24.61,0
36,31.59,24.72,0
35,31.66,24.82,0
35,31.72,24.92,0
36,31.81,25.04,0
36,31.89,25.15,0
35,31.96,25.24,0
31,31.94,25.30,0
36,32.02,25.41,0
36,32.10,25.51,0
34,32.14,25.60,0
34,32.17,25.68,0
34,32.21,25.77,0
34,32.25,25.85,0
35,32.30,25.94,0
35,32.35,26.03,0
36,32.43,26.13,0
34,32.46,26.21,0
34,32.49,26.29,0
34,32.52,26.36,0
36,32.59,26.46,0
36,32.66,26.56,0
35,32.70,26.64,0
35,32.75,26.72,0
35,32.80,26.81,0
34,32.82,26.88,0
34,32.84,26.95,0
35,32.89,27.03,0
35,32.93,27.11,0
34,32.95,27.18,0
34,32.97,27.25,0
34,32.99,27.31,0
36,33.05,27.40,0
34,33.07,27.47,0
34,33.09,27.53,0
36,33.15,27.62,0
34,33.16,27.68,0
34,33.18,27.74,0
34,33.20,27.81,0
35,33.23,27.88,0
34,33.25,27.94,0
35,33.28,28.01,0
34,33.30,28.07,0
34,33.31,28.13,0
34,33.33,28.19,0
34,33.34,28.25,0
34,33.35,28.30,0
34,33.37,28.36,0
35,33.40,28.43,0
34,33.41,28.48,0
34,33.42,28.54,0
34,33.43,28.59,0
34,33.45,28.65,0
34,33.46,28.70,0
34,33.47,28.75,0
35,33.50,28.82,0
34,33.51,28.87,0
34,33.52,28.92,0
34,33.53,28.97,0
31,33.48,28.99,0
34,33.49,29.04,0
34,33.50,29.09,0
34,33.51,29.14,0
31,33.46,29.16,0
35,33.49,29.22,0
34,33.50,29.26,0
34,33.51,29.31,0
35,33.54,29.37,0
35,33.57,29.42,0
34,33.58,29.47,0
34,33.58,29.52,0
34,33.59,29.56,0
34,33.60,29.61,0
34,33.61,29.65,0
34,33.62,29.69,0
35,33.64,29.75,0
34,33.65,29.79,0
34,33.66,29.83,0
34,33.67,29.87,0
34,33.67,29.91,0
34,33.68,29.95,0
34,33.69,29.99,0
34,33.69,30.03,0
31,33.64,30.04,0
36,33.68,30.10,0
34,33.69,30.14,0
34,33.70,30.18,0
34,33.70,30.22,0
34,33.71,30.26,0
34,33.72,30.29,0
34,33.72,30.33,0
34,33.73,30.37,0
34,33.73,30.40,0
33,33.72,30.43,0
34,33.72,30.47,0
33,33.71,30.49,0
34,33.71,30.53,0
33,33.70,30.55,0
34,33.71,30.59,0
35,33.73,30.63,0
36,33.78,30.68,0
34,33.78,30.72,0
34,33.79,30.75,0
34,33.79,30.78,0
36,33.83,30.83,0
34,33.84,30.87,0
36,33.88,30.92,0
35,33.90,30.96,0
35,33.93,31.00,0
33,33.91,31.02,0
34,33.91,31.05,0
35,33.93,31.09,0
34,33.93,31.12,0
36,33.97,31.17,0
31,33.91,31.16,0
35,33.94,31.20,0
36,33.98,31.25,0
34,33.98,31.28,0
34,33.98,31.31,0
35,34.00,31.34,0
36,34.04,31.39,0
35,34.06,31.43,0
32,34.02,31.43,0
36,34.06,31.48,0
35,34.07,31.51,0
33,34.05,31.53,0
34,34.05,31.55,0
34,34.05,31.58,0
35,34.07,31.61,0
34,34.07,31.63,0
34,34.07,31.66,0
34,34.07,31.68,0
35,34.08,31.71,0
33,34.06,31.73,0
34,34.06,31.75,0
35,34.08,31.78,0
35,34.10,31.81,0
34,34.10,31.84,0
34,34.10,31.86,0
36,34.13,31.90,0
35,34.15,31.93,0
34,34.15,31.95,0
34,34.14,31.97,0
36,34.18,32.01,0
36,34.22,32.05,0
34,34.21,32.07,0
34,34.21,32.09,0
36,34.25,32.13,0
35,34.26,32.16,0
36,34.30,32.20,0
34,34.29,32.21,0
36,34.32,32.25,0
35,34.34,32.28,0
34,34.33,32.30,0
36,34.36,32.33,0
36,34.40,32.37,0
35,34.41,32.40,0
36,34.44,32.43,0
36,34.47,32.47,0
36,34.50,32.50,0
35,34.51,32.53,0
36,34.54,32.56,0
36,34.57,32.60,0
36,34.60,32.63,0
35,34.61,32.66,0
36,34.64,32.69,0
36,34.66,32.72,0
36,34.69,32.76,0
35,34.70,32.78,0
36,34.72,32.81,0
36,34.75,32.84,0
37,34.79,32.88,0
35,34.80,32.90,0
36,34.82,32.94,0
36,34.84,32.97,0
36,34.87,33.00,0
36,34.89,33.03,0
36,34.91,33.06,0
36,34.93,33.09,0
35,34.94,33.10,0
36,34.96,33.13,0
36,34.98,33.16,0
36,35.00,33.19,0
35,35.00,33.21,0
36,35.02,33.24,0
37,35.06,33.27,0
36,35.08,33.30,0
36,35.09,33.33,0
36,35.11,33.36,0
36,35.13,33.38,0
36,35.15,33.41,0
38,35.21,33.45,0
38,35.26,33.50,0
37,35.30,33.53,0
37,35.33,33.57,0
37,35.36,33.60,0
37,35.40,33.64,0
36,35.41,33.66,0
37,35.44,33.69,0
37,35.47,33.73,0
38,35.52,33.77,0
38,35.57,33.81,0
37,35.60,33.84,0
38,35.65,33.89,0
37,35.67,33.92,0
38,35.72,33.96,0
37,35.75,33.99,0
37,35.77,34.02,0
37,35.80,34.05,0
37,35.82,34.08,0
37,35.84,34.11,0
38,35.89,34.15,0
37,35.91,34.17,0
38,35.95,34.21,0
38,35.99,34.25,0
36,35.99,34.27,0
37,36.01,34.30,0
37,36.03,34.32,0
38,36.07,34.36,0
38,36.11,34.40,0
38,36.15,34.43,0
38,36.19,34.47,0
38,36.22,34.50,0
38,36.26,34.54,0
37,36.27,34.56,0
38,36.31,34.60,0
38,36.34,34.63,0
38,36.37,34.66,0
38,36.41,34.70,0
38,36.44,34.73,0
38,36.47,34.76,0
39,36.52,34.81,0
38,36.55,34.84,0
38,36.58,34.87,0
38,36.61,34.90,0
40,36.67,34.95,0
39,36.72,34.99,0
36,36.71,35.00,0
38,36.73,35.03,0
39,36.78,35.07,0
38,36.80,35.10,0
38,36.83,35.13,0
38,36.85,35.16,0
40,36.91,35.21,0
39,36.95,35.25,0
38,36.98,35.27,0
38,37.00,35.30,0
39,37.04,35.34,0
39,37.08,35.37,0
40,37.13,35.42,0
38,37.15,35.45,0
40,37.21,35.49,0
40,37.26,35.54,0
38,37.28,35.56,0
40,37.33,35.61,0
40,37.39,35.65,0
39,37.42,35.68,0
40,37.47,35.73,0
40,37.52,35.77,0
41,37.59,35.82,0
40,37.64,35.86,0
40,37.69,35.90,0
40,37.73,35.95,0
41,37.80,36.00,0
40,37.84,36.04,0
42,37.92,36.10,0
40,37.97,36.13,0
40,38.01,36.17,0
40,38.05,36.21,0
40,38.09,36.25,0
40,38.12,36.29,0
40,38.16,36.32,0
40,38.20,36.36,0
42,38.27,36.42,0
40,38.31,36.45,0
41,38.36,36.50,0
40,38.40,36.53,0
40,38.43,36.57,0
40,38.46,36.60,0
40,38.49,36.64,0
40,38.52,36.67,0
41,38.57,36.71,0
40,38.60,36.75,0
41,38.65,36.79,0
39,38.65,36.81,0
40,38.68,36.84,0
40,38.71,36.87,0
40,38.73,36.91,0
40,38.76,36.94,0
40,38.78,36.97,0
40,38.81,37.00,0
41,38.85,37.04,0
40,38.87,37.07,0
41,38.92,37.11,0
40,38.94,37.14,0
40,38.96,37.16,0
40,38.98,37.19,0
40,39.00,37.22,0
40,39.02,37.25,0
41,39.06,37.29,0
41,39.10,37.32,0
40,39.12,37.35,0
40,39.13,37.38,0
42,39.19,37.42,0
41,39.23,37.46,0
41,39.26,37.49,0
41,39.30,37.53,0
43,39.37,37.58,0
42,39.42,37.63,0
42,39.48,37.67,0
42,39.53,37.71,0
44,39.62,37.78,0
42,39.66,37.82,0
42,39.71,37.86,0
42,39.76,37.90,0
41,39.78,37.93,0
42,39.83,37.97,0
42,39.87,38.01,0
42,39.91,38.05,0
42,39.95,38.09,0
42,39.99,38.13,0
42,40.03,38.17,0
42,40.07,38.21,0
42,40.11,38.25,0
44,40.19,38.31,0
42,40.23,38.34,0
42,40.26,38.38,0
42,40.30,38.42,0
44,40.37,38.47,0
42,40.40,38.51,0
42,40.44,38.54,0
46,40.55,38.62,0
43,40.60,38.66,0
43,40.64,38.70,0
43,40.69,38.75,0
44,40.76,38.80,0
44,40.82,38.85,0
42,40.85,38.88,0
44,40.91,38.93,0
44,40.97,38.98,0
43,41.01,39.02,0
44,41.07,39.07,0
44,41.13,39.12,0
45,41.21,39.18,0
45,41.28,39.24,0
44,41.34,39.29,0
44,41.39,39.33,0
45,41.46,39.39,0
46,41.55,39.46,0
44,41.60,39.50,0
44,41.65,39.55,0
45,41.72,39.60,0
43,41.74,39.64,0
46,41.83,39.70,0
46,41.91,39.76,0
45,41.97,39.82,0
44,42.01,39.86,0
44,42.05,39.90,0
46,42.13,39.96,0
45,42.19,40.01,0
43,42.21,40.04,0
44,42.24,40.08,0
44,42.28,40.12,0
45,42.33,40.17,0
46,42.40,40.23,0
46,42.48,40.28,0
45,42.53,40.33,0
45,42.58,40.38,0
46,42.65,40.43,0
47,42.73,40.50,0
46,42.80,40.55,0
46,42.86,40.61,0
46,42.92,40.66,0
45,42.97,40.71,0
45,43.01,40.75,0
46,43.07,40.80,0
48,43.17,40.87,0
46,43.22,40.92,0
46,43.28,40.98,0
46,43.33,41.03,0
46,43.39,41.08,0
46,43.44,41.12,0
46,43.49,41.17,0
46,43.54,41.22,0
49,43.65,41.30,0
46,43.70,41.35,0
46,43.74,41.39,0
46,43.79,41.44,0
47,43.85,41.49,0
46,43.89,41.54,0
46,43.94,41.58,0
46,43.98,41.63,0
45,44.00,41.66,0
47,44.06,41.72,0
46,44.10,41.76,0
47,44.15,41.81,0
45,44.17,41.84,0
46,44.21,41.88,0
46,44.24,41.93,0
47,44.30,41.98,0
47,44.35,42.03,0
46,44.39,42.07,0
47,44.44,42.12,0
47,44.49,42.16,0
47,44.54,42.21,0
47,44.59,42.26,0
47,44.64,42.31,0
49,44.72,42.38,0
47,44.77,42.42,0
48,44.83,42.48,0
46,44.86,42.51,0
48,44.92,42.57,0
48,44.98,42.62,0
48,45.04,42.68,0
48,45.10,42.73,0
47,45.14,42.77,0
48,45.20,42.82,0
47,45.23,42.87,0
48,45.29,42.92,0
49,45.36,42.98,0
48,45.42,43.03,0
48,45.47,43.08,0
49,45.54,43.14,0
49,45.61,43.20,0
49,45.67,43.25,0
50,45.76,43.32,0
50,45.85,43.39,0
51,45.95,43.46,0
50,46.03,43.53,0
50,46.11,43.59,0
50,46.19,43.66,0
50,46.26,43.72,0
50,46.34,43.78,0
50,46.41,43.85,0
50,46.48,43.91,0
51,46.57,43.98,0
51,46.66,44.05,0
50,46.73,44.11,0
52,46.83,44.19,0
53,46.96,44.28,0
53,47.08,44.36,0
52,47.18,44.44,0
52,47.27,44.51,0
53,47.39,44.60,0
56,47.56,44.71,0
56,47.73,44.83,0
54,47.85,44.92,0
56,48.02,45.03,0
54,48.14,45.12,0
56,48.29,45.23,0
56,48.45,45.34,0
56,48.60,45.44,0
54,48.71,45.53,0
56,48.85,45.63,0
56,49.00,45.74,0
56,49.14,45.84,0
56,49.27,45.94,0
56,49.41,46.04,0
56,49.54,46.14,0
59,49.73,46.27,0
58,49.89,46.39,0
57,50.04,46.49,0
58,50.20,46.61,0
58,50.35,46.72,0
61,50.56,46.86,0
58,50.71,46.98,0
58,50.86,47.09,0
59,51.02,47.20,0
58,51.16,47.31,0
60,51.34,47.44,0
58,51.47,47.55,0
60,51.64,47.67,0
60,51.81,47.79,0
60,51.97,47.92,0
61,52.15,48.05,0
58,52.27,48.15,0
61,52.45,48.27,0
62,52.64,48.41,0
61,52.80,48.54,0
62,52.99,48.67,0
62,53.17,48.81,0
61,53.32,48.93,0
62,53.50,49.06,0
65,53.73,49.22,0
63,53.91,49.36,0
64,54.12,49.50,0
62,54.27,49.63,0
64,54.47,49.77,0
65,54.68,49.92,0
64,54.86,50.06,0
66,55.09,50.22,0
68,55.35,50.40,0
68,55.60,50.58,0
68,55.85,50.75,0
68,56.09,50.92,0
68,56.33,51.09,0
69,56.58,51.27,0
69,56.83,51.45,0
70,57.09,51.64,0
69,57.33,51.81,0
73,57.64,52.02,0
70,57.89,52.20,0
70,58.13,52.38,0
72,58.41,52.58,0
71,58.66,52.76,0
71,58.91,52.94,0
70,59.13,53.11,0
72,59.39,53.30,0
73,59.66,53.50,0
74,59.95,53.70,0
74,60.23,53.91,0
76,60.54,54.13,0
77,60.87,54.36,0
78,61.22,54.59,0
78,61.55,54.83,0
79,61.90,55.07,0
79,62.24,55.31,0
80,62.60,55.55,0
82,62.99,55.82,0
84,63.41,56.10,0
82,63.78,56.36,0
82,64.14,56.62,0
82,64.50,56.87,0
83,64.87,57.13,0
84,65.25,57.40,0
86,65.67,57.69,0
88,66.11,57.99,0
90,66.59,58.31,0
88,67.02,58.61,0
88,67.44,58.90,0
89,67.87,59.20,0
91,68.33,59.52,0
90,68.77,59.82,0
90,69.19,60.13,0
92,69.65,60.44,0
93,70.11,60.77,0
97,70.65,61.13,0
96,71.16,61.48,0
94,71.62,61.81,0
93,72.04,62.12,0
94,72.48,62.44,0
94,72.91,62.75,0
96,73.37,63.09,0
94,73.79,63.39,0
94,74.19,63.70,0
93,74.57,63.99,0
94,74.96,64.29,0
95,75.36,64.60,0
96,75.77,64.91,0
94,76.13,65.21,0
95,76.51,65.50,0
95,76.88,65.80,0
96,77.26,66.10,0
99,77.70,66.43,0
100,78.14,66.76,0
100,78.58,67.10,0
102,79.05,67.45,0
103,79.53,67.80,0
103,80.00,68.15,0
105,80.50,68.52,0
106,81.01,68.90,0
105,81.49,69.26,0
105,81.96,69.62,0
107,82.46,69.99,0
108,82.97,70.37,0
105,83.41,70.72,0
105,83.84,71.06,0
108,84.33,71.43,0
106,84.76,71.77,0
107,85.20,72.13,0
105,85.60,72.45,0
106,86.01,72.79,0
107,86.43,73.13,0
106,86.82,73.46,0
106,87.20,73.79,0
107,87.60,74.12,0
108,88.01,74.46,0
108,88.41,74.79,0
109,88.82,75.13,0
109,89.22,75.47,0
109,89.62,75.81,0
111,90.05,76.16,0
111,90.46,76.51,0
111,90.88,76.85,0
111,91.28,77.20,0
111,91.67,77.53,0
111,92.06,77.87,0
111,92.44,78.20,0
112,92.83,78.54,0
112,93.21,78.87,0
112,93.59,79.20,0
113,93.98,79.54,0
112,94.34,79.87,0
111,94.67,80.18,0
112,95.02,80.50,0
112,95.36,80.81,0
114,95.73,81.14,0
113,96.07,81.46,0
112,96.39,81.77,0
112,96.71,82.07,0
112,97.01,82.37,0
111,97.29,82.65,0
113,97.61,82.96,0
113,97.91,83.26,0
113,98.21,83.56,0
113,98.51,83.85,0
113,98.80,84.14,0
113,99.08,84.43,0
114,99.38,84.73,0
113,99.65,85.01,0
113,99.92,85.29,0
113,100.18,85.57,0
113,100.44,85.84,0
113,100.69,86.11,0
114,100.96,86.39,0
112,101.18,86.65,0
112,101.39,86.90,0
112,101.61,87.15,0
112,101.81,87.40,0
112,102.02,87.65,0
114,102.26,87.91,0
112,102.45,88.15,0
112,102.64,88.39,0
116,102.91,88.66,0
113,103.11,88.91,0
112,103.29,89.14,0
113,103.48,89.38,0
112,103.65,89.60,0
112,103.82,89.83,0
112,103.99,90.05,0
112,104.15,90.27,0
112,104.30,90.49,0
111,104.44,90.69,0
111,104.57,90.89,0
111,104.70,91.10,0
110,104.80,91.28,0
113,104.97,91.50,0
112,105.11,91.71,0
111,105.23,91.90,0
111,105.34,92.09,0
110,105.43,92.27,0
110,105.53,92.45,0
110,105.61,92.62,0
110,105.70,92.80,0
110,105.79,92.97,0
110,105.87,93.14,0
110,105.96,93.31,0
110,106.04,93.47,0
110,106.12,93.64,0
108,106.15,93.78,0
110,106.23,93.95,0
108,106.27,94.09,0
108,106.30,94.23,0
110,106.37,94.38,0
109,106.43,94.53,0
108,106.46,94.66,0
109,106.51,94.81,0
108,106.54,94.94,0
108,106.57,95.07,0
108,106.60,95.20,0
107,106.60,95.32,0
107,106.61,95.43,0
108,106.64,95.56,0
106,106.63,95.66,0
107,106.63,95.78,0
106,106.62,95.88,0
107,106.63,95.99,0
106,106.62,96.09,0
108,106.64,96.21,0
106,106.63,96.31,0
108,106.66,96.42,0
106,106.65,96.52,0
107,106.65,96.63,0
106,106.64,96.72,0
106,106.63,96.81,0
106,106.61,96.90,0
106,106.60,96.99,0
106,106.59,97.08,0
106,106.58,97.17,0
106,106.57,97.26,0
108,106.60,97.37,0
105,106.56,97.45,0
105,106.53,97.52,0
106,106.52,97.61,0
105,106.49,97.68,0
106,106.48,97.76,0
105,106.45,97.84,0
105,106.42,97.91,0
106,106.41,97.99,0
105,106.39,98.06,0
105,106.36,98.13,0
106,106.35,98.21,0
106,106.34,98.28,0
104,106.30,98.34,0
106,106.29,98.42,0
104,106.25,98.47,0
105,106.22,98.54,0
104,106.18,98.59,0
104,106.13,98.65,0
104,106.09,98.70,0
108,106.13,98.79,0
104,106.09,98.85,0
103,106.02,98.89,0
102,105.94,98.92,0
104,105.90,98.97,0
102,105.83,99.00,0
103,105.77,99.04,0
102,105.69,99.07,0
102,105.62,99.10,0
102,105.55,99.13,0
102,105.48,99.16,0
102,105.41,99.19,0
100,105.30,99.19,0
101,105.21,99.21,0
101,105.13,99.23,0
102,105.07,99.26,0
103,105.03,99.29,0
100,104.93,99.30,0
101,104.85,99.32,0
100,104.75,99.33,0
102,104.69,99.35,0
99,104.58,99.35,0
101,104.51,99.37,0
100,104.42,99.37,0
99,104.31,99.37,0
100,104.22,99.37,0
100,104.14,99.38,0
100,104.06,99.39,0
100,103.98,99.39,0
100,103.90,99.40,0
99,103.80,99.39,0
99,103.70,99.39,0
99,103.61,99.39,0
99,103.52,99.38,0
105,103.55,99.44,0
99,103.46,99.43,0
99,103.37,99.43,0
99,103.28,99.43,0
100,103.21,99.43,0
98,103.11,99.42,0
98,103.01,99.40,0
98,102.91,99.39,0
97,102.79,99.37,0
98,102.69,99.35,0
99,102.62,99.35,0
97,102.51,99.32,0
100,102.46,99.33,0
98,102.37,99.32,0
97,102.26,99.30,0
96,102.13,99.26,0
100,102.09,99.27,0
97,101.99,99.25,0
97,101.89,99.22,0
97,101.79,99.20,0
99,101.74,99.20,0
97,101.64,99.18,0
97,101.55,99.16,0
96,101.44,99.12,0
95,101.31,99.08,0
96,101.20,99.05,0
96,101.10,99.02,0
96,101.00,98.99,0
95,100.88,98.95,0
97,100.80,98.93,0
96,100.70,98.90,0
95,100.59,98.86,0
95,100.48,98.83,0
93,100.33,98.77,0
95,100.22,98.73,0
97,100.16,98.71,0
95,100.05,98.68,0
95,99.95,98.64,0
95,99.85,98.60,0
95,99.76,98.57,0
94,99.64,98.52,0
94,99.53,98.48,0
94,99.42,98.43,0
94,99.31,98.39,0
93,99.18,98.33,0
94,99.08,98.29,0
94,98.98,98.25,0
94,98.88,98.20,0
93,98.76,98.15,0
94,98.67,98.11,0
94,98.57,98.07,0
94,98.48,98.03,0
94,98.39,97.99,0
93,98.28,97.94,0
93,98.18,97.89,0
94,98.09,97.85,0
92,97.97,97.79,0
95,97.91,97.76,0
92,97.80,97.71,0
92,97.68,97.65,0
92,97.57,97.59,0
92,97.45,97.54,0
92,97.35,97.48,0
94,97.28,97.45,0
92,97.17,97.39,0
91,97.05,97.33,0
92,96.95,97.27,0
92,96.85,97.22,0
92,96.75,97.17,0
91,96.64,97.11,0
92,96.54,97.06,0
92,96.45,97.01,0
92,96.36,96.96,0
91,96.26,96.90,0
90,96.13,96.83,0
92,96.05,96.78,0
91,95.95,96.72,0
90,95.83,96.65,0
89,95.69,96.58,0
90,95.58,96.51,0
90,95.47,96.45,0
90,95.36,96.38,0
90,95.25,96.32,0
90,95.15,96.26,0
90,95.04,96.19,0
90,94.94,96.13,0
92,94.88,96.09,0
89,94.77,96.02,0
89,94.65,95.95,0
90,94.56,95.89,0
90,94.47,95.83,0
89,94.36,95.76,0
89,94.25,95.69,0
89,94.14,95.63,0
92,94.10,95.59,0
89,94.00,95.53,0
89,93.90,95.46,0
89,93.80,95.40,0
88,93.69,95.32,0
88,93.57,95.25,0
89,93.48,95.19,0
89,93.39,95.12,0
87,93.26,95.04,0
88,93.16,94.97,0
88,93.05,94.90,0
90,92.99,94.85,0
88,92.89,94.78,0
88,92.80,94.72,0
88,92.70,94.65,0
89,92.63,94.59,0
88,92.53,94.53,0
87,92.42,94.45,0
89,92.35,94.40,0
87,92.25,94.32,0
88,92.16,94.26,0
86,92.04,94.18,0
87,91.94,94.11,0
88,91.86,94.04,0
87,91.76,93.97,0
87,91.67,93.90,0
88,91.59,93.85,0
86,91.48,93.77,0
86,91.37,93.69,0
86,91.26,93.61,0
87,91.18,93.55,0
87,91.10,93.48,0
86,90.99,93.41,0
86,90.89,93.33,0
87,90.82,93.27,0
86,90.72,93.20,0
86,90.63,93.12,0
86,90.53,93.05,0
86,90.44,92.98,0
86,90.35,92.91,0
86,90.27,92.84,0
86,90.18,92.78,0
86,90.10,92.71,0
86,90.02,92.64,0
84,89.90,92.55,0
86,89.82,92.49,0
86,89.74,92.42,0
85,89.65,92.35,0
84,89.53,92.27,0
84,89.42,92.18,0
86,89.35,92.12,0
84,89.25,92.04,0
84,89.14,91.96,0
84,89.04,91.88,0
85,88.96,91.81,0
84,88.86,91.73,0
84,88.76,91.66,0
85,88.69,91.59,0
84,88.59,91.51,0
84,88.50,91.44,0
85,88.43,91.37,0
84,88.34,91.30,0
85,88.28,91.24,0
84,88.19,91.16,0
84,88.11,91.09,0
84,88.02,91.02,0
84,87.94,90.95,0
86,87.91,90.90,0
84,87.83,90.83,0
84,87.75,90.77,0
85,87.70,90.71,0
84,87.62,90.64,0
84,87.55,90.57,0
84,87.48,90.51,0
83,87.39,90.43,0
84,87.32,90.37,0
84,87.25,90.31,0
85,87.21,90.25,0
85,87.17,90.20,0
84,87.10,90.14,0
84,87.04,90.08,0
84,86.98,90.02,0
84,86.92,89.96,0
84,86.86,89.90,0
84,86.80,89.84,0
84,86.75,89.78,0
82,86.65,89.70,0
84,86.60,89.64,0
84,86.55,89.59,0
84,86.50,89.53,0
85,86.47,89.49,0
84,86.42,89.43,0
84,86.37,89.38,0
84,86.32,89.32,0
84,86.28,89.27,0
84,86.23,89.22,0
84,86.19,89.16,0
84,86.14,89.11,0
83,86.08,89.05,0
84,86.04,89.00,0
84,86.00,88.95,0
83,85.94,88.89,0
85,85.92,88.85,0
83,85.86,88.79,0
82,85.78,88.73,0
83,85.73,88.67,0
83,85.67,88.61,0
82,85.60,88.55,0
83,85.55,88.49,0
82,85.48,88.43,0
82,85.41,88.36,0
82,85.34,88.30,0
82,85.27,88.24,0
82,85.21,88.17,0
82,85.14,88.11,0
85,85.14,88.08,0
82,85.08,88.02,0
82,85.01,87.96,0
84,84.99,87.92,0
82,84.93,87.86,0
82,84.88,87.80,0
82,84.82,87.74,0
82,84.76,87.69,0
81,84.69,87.62,0
82,84.63,87.56,0
82,84.58,87.51,0
81,84.51,87.44,0
83,84.48,87.40,0
81,84.41,87.33,0
82,84.36,87.28,0
82,84.31,87.23,0
81,84.25,87.17,0
82,84.20,87.11,0
82,84.16,87.06,0
82,84.12,87.01,0
82,84.07,86.96,0
82,84.03,86.91,0
82,83.99,86.86,0
79,83.89,86.78,0
82,83.85,86.74,0
82,83.82,86.69,0
82,83.78,86.64,0
82,83.74,86.60,0
82,83.71,86.55,0
82,83.68,86.50,0
81,83.62,86.45,0
82,83.59,86.41,0
82,83.56,86.36,0
82,83.53,86.32,0
81,83.48,86.26,0
82,83.45,86.22,0
82,83.42,86.18,0
80,83.35,86.12,0
83,83.34,86.09,0
83,83.34,86.06,0
81,83.29,86.01,0
80,83.22,85.95,0
82,83.20,85.91,0
81,83.15,85.86,0
82,83.13,85.82,0
80,83.07,85.76,0
80,83.01,85.70,0
80,82.95,85.65,0
80,82.89,85.59,0
82,82.87,85.55,0
80,82.81,85.50,0
81,82.78,85.45,0
82,82.76,85.42,0
80,82.71,85.36,0
80,82.65,85.31,0
81,82.62,85.27,0
80,82.57,85.21,0
81,82.54,85.17,0
80,82.48,85.12,0
80,82.43,85.07,0
80,82.39,85.02,0
80,82.34,84.97,0
80,82.29,84.92,0
79,82.23,84.86,0
83,82.24,84.84,0
79,82.18,84.78,0
80,82.13,84.73,0
80,82.09,84.69,0
79,82.03,84.63,0
79,81.97,84.57,0
79,81.91,84.52,0
80,81.87,84.47,0
81,81.85,84.44,0
79,81.80,84.38,0
79,81.74,84.33,0
79,81.69,84.28,0
79,81.63,84.22,0
78,81.56,84.16,0
78,81.49,84.10,0
81,81.48,84.07,0
79,81.43,84.02,0
78,81.36,83.96,0
78,81.29,83.90,0
79,81.25,83.85,0
79,81.20,83.80,0
78,81.14,83.74,0
78,81.07,83.69,0
79,81.03,83.64,0
78,80.97,83.58,0
78,80.91,83.53,0
78,80.86,83.47,0
78,80.80,83.42,0
78,80.74,83.36,0
78,80.69,83.31,0
78,80.63,83.26,0
78,80.58,83.20,0
78,80.53,83.15,0
78,80.48,83.10,0
78,80.43,83.05,0
78,80.38,83.00,0
78,80.33,82.95,0
78,80.29,82.90,0
78,80.24,82.85,0
78,80.20,82.80,0
78,80.15,82.75,0
77,80.09,82.70,0
78,80.05,82.65,0
81,80.07,82.63,0
77,80.00,82.58,0
78,79.96,82.53,0
78,79.93,82.49,0
77,79.87,82.43,0
77,79.81,82.38,0
78,79.77,82.33,0
76,79.70,82.27,0
80,79.70,82.25,0
77,79.65,82.19,0
76,79.58,82.13,0
76,79.51,82.07,0
78,79.48,82.03,0
76,79.41,81.97,0
76,79.34,81.91,0
76,79.27,81.85,0
77,79.23,81.80,0
76,79.16,81.74,0
76,79.10,81.69,0
75,79.02,81.62,0
76,78.96,81.56,0
75,78.88,81.50,0
74,78.78,81.42,0
76,78.72,81.37,0
73,78.61,81.29,0
76,78.56,81.23,0
78,78.55,81.20,0
76,78.49,81.15,0
76,78.44,81.10,0
75,78.38,81.04,0
74,78.29,80.97,0
76,78.24,80.92,0
76,78.20,80.87,0
76,78.15,80.82,0
76,78.11,80.77,0
76,78.07,80.72,0
75,78.01,80.66,0
74,77.93,80.60,0
74,77.85,80.53,0
76,77.81,80.49,0
75,77.76,80.43,0
74,77.68,80.37,0
75,77.63,80.31,0
74,77.55,80.25,0
75,77.50,80.20,0
78,77.51,80.18,0
73,77.42,80.10,0
75,77.37,80.05,0
74,77.31,79.99,0
75,77.26,79.94,0
76,77.24,79.90,0
74,77.17,79.84,0
74,77.11,79.79,0
74,77.04,79.73,0
75,77.00,79.68,0
74,76.94,79.62,0
75,76.91,79.58,0
75,76.87,79.53,0
74,76.81,79.48,0
74,76.75,79.42,0
76,76.74,79.39,0
73,76.66,79.32,0
74,76.61,79.27,0
74,76.56,79.22,0
74,76.51,79.17,0
73,76.44,79.10,0
74,76.39,79.05,0
74,76.34,79.00,0
76,76.33,78.97,0
73,76.27,78.91,0
75,76.24,78.87,0
74,76.20,78.82,0
74,76.15,78.78,0
73,76.09,78.72,0
74,76.05,78.67,0
74,76.01,78.62,0
73,75.95,78.57,0
76,75.95,78.54,0
74,75.91,78.50,0
74,75.87,78.45,0
74,75.83,78.41,0
74,75.80,78.36,0
73,75.74,78.31,0
74,75.71,78.27,0
72,75.63,78.20,0
73,75.58,78.15,0
73,75.53,78.10,0
72,75.46,78.04,0
72,75.39,77.98,0
73,75.34,77.93,0
72,75.27,77.87,0
73,75.23,77.82,0
74,75.20,77.78,0
73,75.16,77.74,0
72,75.10,77.68,0
72,75.03,77.62,0
74,75.01,77.59,0
73,74.97,77.54,0
72,74.91,77.48,0
72,74.86,77.43,0
72,74.80,77.38,0
72,74.74,77.32,0
72,74.69,77.27,0
72,74.63,77.22,0
74,74.62,77.18,0
72,74.57,77.13,0
72,74.52,77.08,0
72,74.47,77.03,0
73,74.44,76.99,0
72,74.39,76.94,0
72,74.34,76.89,0
74,74.33,76.86,0
73,74.31,76.82,0
73,74.28,76.78,0
72,74.24,76.74,0
72,74.19,76.69,0
72,74.15,76.64,0
73,74.12,76.61,0
72,74.08,76.56,0
72,74.04,76.51,0
72,74.00,76.47,0
72,73.96,76.42,0
72,73.92,76.38,0
74,73.92,76.36,0
72,73.88,76.31,0
72,73.85,76.27,0
72,73.81,76.23,0
72,73.77,76.18,0
73,73.76,76.15,0
72,73.72,76.11,0
72,73.69,76.07,0
72,73.65,76.03,0
72,73.62,75.99,0
72,73.59,75.95,0
74,73.60,75.93,0
72,73.56,75.89,0
72,73.53,75.85,0
74,73.54,75.83,0
73,73.53,75.80,0
72,73.50,75.77,0
72,73.47,75.73,0
72,73.44,75.69,0
72,73.41,75.65,0
72,73.38,75.62,0
72,73.36,75.58,0
72,73.33,75.55,0
72,73.30,75.51,0
72,73.28,75.48,0
72,73.25,75.44,0
73,73.25,75.42,0
72,73.22,75.38,0
72,73.20,75.35,0
72,73.17,75.31,0
72,73.15,75.28,0
72,73.13,75.25,0
72,73.10,75.22,0
72,73.08,75.18,0
72,73.06,75.15,0
72,73.04,75.12,0
71,73.00,75.08,0
73,73.00,75.06,0
72,72.98,75.03,0
72,72.96,75.00,0
72,72.94,74.97,0
73,72.94,74.95,0
72,72.92,74.92,0
70,72.86,74.87,0
72,72.85,74.84,0
71,72.81,74.80,0
71,72.77,74.76,0
71,72.74,74.73,0
72,72.72,74.70,0
70,72.67,74.65,0
72,72.66,74.63,0
72,72.64,74.60,0
72,72.63,74.57,0
72,72.62,74.55,0
72,72.60,74.52,0
71,72.57,74.49,0
72,72.56,74.46,0
72,72.55,74.44,0
73,72.56,74.42,0
74,72.59,74.42,0
72,72.58,74.40,0
74,72.60,74.39,0
72,72.59,74.37,0
74,72.62,74.36,0
72,72.61,74.34,0
72,72.60,74.32,0
74,72.62,74.31,0
72,72.61,74.29,0
72,72.60,74.27,0
73,72.61,74.25,0
74,72.64,74.25,0
74,72.66,74.25,0
74,72.69,74.25,0
74,72.72,74.24,0
73,72.72,74.23,0
74,72.75,74.23,0
74,72.77,74.23,0
73,72.78,74.22,0
74,72.80,74.21,0
74,72.82,74.21,0
74,72.85,74.21,0
74,72.87,74.21,0
73,72.87,74.19,0
73,72.88,74.18,0
74,72.90,74.18,0
73,72.90,74.17,0
72,72.88,74.15,0
74,72.91,74.15,0
74,72.93,74.14,0
73,72.93,74.13,0
74,72.95,74.13,0
74,72.97,74.13,0
72,72.95,74.11,0
73,72.95,74.10,0
72,72.93,74.08,0
72,72.91,74.06,0
74,72.94,74.06,0
73,72.94,74.05,0
72,72.92,74.02,0
72,72.90,74.00,0
74,72.92,74.00,0
74,72.94,74.00,0
73,72.95,73.99,0
74,72.97,73.99,0
73,72.97,73.98,0
73,72.97,73.97,0
73,72.97,73.96,0
72,72.95,73.95,0
73,72.95,73.94,0
73,72.95,73.93,0
72,72.93,73.91,0
72,72.91,73.89,0
72,72.90,73.87,0
74,72.92,73.87,0
72,72.90,73.85,0
76,72.96,73.87,0
72,72.94,73.85,0
72,72.92,73.84,0
73,72.92,73.83,0
72,72.91,73.81,0
72,72.89,73.79,0
72,72.87,73.77,0
73,72.87,73.77,0
72,72.86,73.75,0
73,72.86,73.74,0
72,72.84,73.72,0
72,72.82,73.71,0
72,72.81,73.69,0
72,72.79,73.67,0
72,72.78,73.66,0
73,72.78,73.65,0
71,72.74,73.62,0
72,72.73,73.61,0
72,72.72,73.59,0
74,72.74,73.59,0
72,72.73,73.58,0
72,72.71,73.56,0
73,72.72,73.56,0
72,72.70,73.54,0
72,72.69,73.53,0
75,72.74,73.54,0
73,72.74,73.54,0
74,72.77,73.54,0
74,72.79,73.54,0
74,72.81,73.55,0
76,72.88,73.57,0
74,72.90,73.58,0
74,72.92,73.58,0
74,72.94,73.59,0
75,72.99,73.60,0
74,73.01,73.60,0
74,73.03,73.61,0
74,73.04,73.61,0
74,73.06,73.62,0
74,73.08,73.62,0
74,73.10,73.62,0
74,73.12,73.63,0
74,73.14,73.63,0
75,73.17,73.64,0
74,73.19,73.65,0
74,73.21,73.65,0
73,73.20,73.65,0
74,73.22,73.65,0
74,73.23,73.65,0
74,73.25,73.66,0
74,73.26,73.66,0
76,73.32,73.68,0
74,73.33,73.69,0
74,73.35,73.69,0
73,73.34,73.68,0
74,73.35,73.69,0
74,73.37,73.69,0
74,73.38,73.69,0
74,73.39,73.69,0
74,73.40,73.70,0
74,73.41,73.70,0
76,73.47,73.72,0
75,73.50,73.74,0
74,73.51,73.74,0
74,73.52,73.74,0
74,73.53,73.74,0
75,73.56,73.76,0
76,73.61,73.78,0
74,73.61,73.78,0
76,73.66,73.80,0
76,73.71,73.83,0
76,73.75,73.85,0
76,73.80,73.87,0
76,73.84,73.89,0
76,73.89,73.91,0
76,73.93,73.93,0
78,74.01,73.97,0
76,74.05,73.99,0
76,74.09,74.01,0
76,74.13,74.03,0
76,74.16,74.05,0
76,74.20,74.07,0
76,74.24,74.09,0
77,74.29,74.12,0
77,74.35,74.15,0
77,74.40,74.18,0
78,74.47,74.22,0
81,74.60,74.28,0
79,74.69,74.33,0
78,74.76,74.37,0
80,74.86,74.42,0
80,74.96,74.48,0
81,75.08,74.55,0
79,75.16,74.59,0
80,75.26,74.64,0
81,75.37,74.71,0
80,75.47,74.76,0
81,75.58,74.82,0
81,75.69,74.88,0
81,75.79,74.95,0
81,75.90,75.01,0
82,76.02,75.08,0
83,76.16,75.16,0
85,76.33,75.25,0
82,76.45,75.32,0
84,76.60,75.41,0
86,76.79,75.51,0
86,76.97,75.62,0
86,77.15,75.72,0
86,77.33,75.83,0
87,77.52,75.94,0
86,77.69,76.04,0
87,77.88,76.15,0
86,78.04,76.25,0
89,78.26,76.37,0
93,78.55,76.54,0
88,78.74,76.65,0
88,78.93,76.77,0
89,79.13,76.89,0
88,79.31,77.00,0
88,79.48,77.11,0
88,79.65,77.22,0
89,79.84,77.34,0
89,80.02,77.45,0
90,80.22,77.58,0
90,80.42,77.70,0
89,80.59,77.82,0
89,80.76,77.93,0
88,80.90,78.03,0
90,81.08,78.15,0
90,81.26,78.27,0
87,81.38,78.36,0
88,81.51,78.45,0
90,81.68,78.57,0
92,81.89,78.70,0
91,82.07,78.82,0
90,82.23,78.94,0
90,82.38,79.05,0
91,82.55,79.17,0
90,82.70,79.27,0
90,82.85,79.38,0
92,83.03,79.51,0
92,83.21,79.63,0
92,83.39,79.76,0
94,83.60,79.90,0
93,83.79,80.03,0
95,84.01,80.18,0
95,84.23,80.33,0
94,84.43,80.46,0
96,84.66,80.62,0
98,84.93,80.79,0
96,85.15,80.95,0
96,85.36,81.10,0
96,85.58,81.25,0
97,85.80,81.40,0
98,86.05,81.57,0
98,86.29,81.73,0
98,86.52,81.90,0
98,86.75,82.06,0
98,86.98,82.22,0
102,87.28,82.41,0
102,87.57,82.61,0
101,87.84,82.79,0
103,88.14,83.00,0
105,88.48,83.22,0
104,88.79,83.42,0
104,89.10,83.63,0
105,89.41,83.84,0
103,89.68,84.04,0
105,89.99,84.24,0
107,90.33,84.47,0
109,90.70,84.72,0
110,91.09,84.97,0
109,91.45,85.21,0
109,91.80,85.45,0
108,92.12,85.67,0
109,92.46,85.91,0
109,92.79,86.14,0
111,93.16,86.39,0
112,93.53,86.64,0
115,93.96,86.93,0
113,94.34,87.19,0
113,94.72,87.45,0
116,95.14,87.73,0
115,95.54,88.00,0
115,95.93,88.27,0
115,96.31,88.54,0
116,96.70,88.82,0
118,97.13,89.11,0
118,97.55,89.40,0
117,97.94,89.67,0
119,98.36,89.97,0
121,98.81,90.28,0
123,99.29,90.60,0
123,99.77,90.93,0
123,100.23,91.25,0
121,100.65,91.55,0
121,101.06,91.84,0
121,101.45,92.13,0
122,101.87,92.43,0
123,102.29,92.74,0
124,102.72,93.05,0
124,103.15,93.36,0
125,103.58,93.67,0
126,104.03,94.00,0
128,104.51,94.34,0
128,104.98,94.67,0
128,105.44,95.01,0
132,105.97,95.38,0
133,106.51,95.75,0
134,107.06,96.14,0
133,107.58,96.50,0
133,108.09,96.87,0
134,108.61,97.24,0
134,109.12,97.61,0
136,109.65,97.99,0
136,110.18,98.37,0
136,110.70,98.75,0
136,111.20,99.12,0
137,111.72,99.50,0
136,112.21,99.87,0
136,112.68,100.23,0
136,113.15,100.58,0
135,113.58,100.93,0
136,114.03,101.28,0
137,114.49,101.64,0
136,114.92,101.98,0
137,115.36,102.33,0
137,115.80,102.68,0
135,116.18,103.00,0
136,116.58,103.33,0
135,116.95,103.65,0
136,117.33,103.97,0
136,117.70,104.29,0
137,118.09,104.62,0
137,118.46,104.94,0
135,118.80,105.24,0
137,119.16,105.56,0
139,119.56,105.89,0
137,119.90,106.21,0
140,120.31,106.54,0
141,120.72,106.89,0
141,121.13,107.23,0
140,121.50,107.56,0
140,121.87,107.88,0
141,122.26,108.21,0
141,122.63,108.54,0
141,123.00,108.86,0
141,123.36,109.19,0
141,123.71,109.50,0
141,124.06,109.82,0
143,124.44,110.15,0
143,124.81,110.48,0
145,125.21,110.82,0
146,125.63,111.18,0
148,126.07,111.54,0
146,126.47,111.89,0
147,126.88,112.24,0
145,127.25,112.57,0
149,127.68,112.93,0
149,128.11,113.29,0
150,128.55,113.66,0
152,129.01,114.04,0
152,129.47,114.42,0
153,129.94,114.81,0
152,130.39,115.18,0
154,130.86,115.57,0
154,131.32,115.95,0
155,131.79,116.34,0
155,132.26,116.73,0
155,132.71,117.11,0
154,133.14,117.48,0
156,133.60,117.87,0
155,134.02,118.24,0
154,134.42,118.60,0
157,134.88,118.98,0
155,135.28,119.34,0
155,135.67,119.70,0
155,136.06,120.05,0
155,136.44,120.40,0
155,136.81,120.75,0
157,137.21,121.11,0
158,137.63,121.48,0
157,138.02,121.83,0
157,138.40,122.18,0
157,138.77,122.53,0
157,139.13,122.88,0
157,139.49,123.22,0
157,139.84,123.56,0
157,140.18,123.89,0
157,140.52,124.22,0
157,140.85,124.55,0
159,141.21,124.89,0
160,141.59,125.24,0
157,141.90,125.56,0
159,142.24,125.90,0
160,142.59,126.24,0
159,142.92,126.57,0
158,143.22,126.88,0
158,143.52,127.19,0
158,143.81,127.50,0
157,144.07,127.79,0
157,144.33,128.09,0
157,144.58,128.38,0
157,144.83,128.66,0
157,145.08,128.94,0
157,145.31,129.23,0
157,145.55,129.50,0
157,145.78,129.78,0
155,145.96,130.03,0
157,146.18,130.30,0
156,146.38,130.56,0
155,146.55,130.80,0
156,146.74,131.05,0
155,146.91,131.29,0
156,147.09,131.54,0
154,147.23,131.76,0
156,147.40,132.01,0
154,147.53,132.23,0
155,147.68,132.45,0
153,147.79,132.66,0
153,147.89,132.86,0
153,147.99,133.06,0
153,148.10,133.26,0
153,148.19,133.46,0
154,148.31,133.67,0
153,148.40,133.86,0
153,148.50,134.05,0
152,148.57,134.23,0
152,148.63,134.41,0
155,148.76,134.61,0
152,148.83,134.79,0
152,148.89,134.96,0
151,148.93,135.12,0
151,148.97,135.28,0
151,149.01,135.44,0
151,149.05,135.59,0
151,149.09,135.75,0
151,149.13,135.90,0
150,149.15,136.04,0
150,149.16,136.18,0
150,149.18,136.32,0
150,149.20,136.45,0
149,149.19,136.58,0
149,149.19,136.70,0
149,149.19,136.83,0
149,149.18,136.95,0
149,149.18,137.07,0
150,149.20,137.20,0
149,149.19,137.32,0
148,149.17,137.42,0
148,149.14,137.53,0
147,149.10,137.62,0
148,149.08,137.73,0
147,149.04,137.82,0
148,149.02,137.92,0
147,148.98,138.01,0
148,148.96,138.11,0
147,148.92,138.20,0
147,148.88,138.29,0
147,148.84,138.38,0
147,148.81,138.46,0
145,148.73,138.53,0
146,148.67,138.60,0
146,148.62,138.68,0
146,148.57,138.75,0
146,148.52,138.82,0
146,148.47,138.89,0
145,148.40,138.96,0
145,148.33,139.02,0
145,148.26,139.08,0
145,148.20,139.14,0
145,148.13,139.19,0
145,148.07,139.25,0
145,148.01,139.31,0
145,147.95,139.37,0
144,147.87,139.41,0
144,147.79,139.46,0
144,147.72,139.50,0
143,147.62,139.54,0
144,147.55,139.58,0
143,147.46,139.62,0
143,147.37,139.65,0
143,147.28,139.69,0
143,147.20,139.72,0
143,147.11,139.75,0
142,147.01,139.77,0
142,146.91,139.80,0
142,146.81,139.82,0
141,146.70,139.83,0
141,146.58,139.84,0
141,146.47,139.85,0
141,146.36,139.86,0
141,146.25,139.88,0
141,146.15,139.89,0
141,146.05,139.90,0
139,145.91,139.89,0
140,145.79,139.89,0
140,145.67,139.89,0
140,145.56,139.89,0
140,145.45,139.89,0
139,145.32,139.88,0
140,145.21,139.89,0
139,145.09,139.88,0
140,144.99,139.88,0
139,144.87,139.87,0
139,144.75,139.86,0
138,144.61,139.84,0
138,144.48,139.82,0
138,144.35,139.81,0
137,144.20,139.78,0
137,144.06,139.75,0
137,143.92,139.72,0
137,143.78,139.69,0
138,143.67,139.68,0
137,143.53,139.65,0
136,143.38,139.61,0
137,143.25,139.59,0
137,143.13,139.56,0
137,143.01,139.54,0
135,142.85,139.49,0
136,142.71,139.46,0
135,142.55,139.41,0
136,142.42,139.38,0
135,142.28,139.33,0
136,142.15,139.30,0
135,142.01,139.26,0
135,141.87,139.22,0
134,141.71,139.16,0
134,141.56,139.11,0
134,141.40,139.06,0
134,141.26,139.01,0
133,141.09,138.95,0
133,140.93,138.89,0
133,140.77,138.83,0
133,140.62,138.77,0
134,140.48,138.73,0
133,140.33,138.67,0
133,140.19,138.61,0
132,140.02,138.55,0
131,139.84,138.47,0
131,139.67,138.40,0
133,139.53,138.34,0
132,139.38,138.28,0
131,139.21,138.21,0
132,139.07,138.14,0
133,138.95,138.09,0
131,138.79,138.02,0
131,138.63,137.95,0
129,138.44,137.86,0
130,138.27,137.78,0
130,138.11,137.70,0
130,137.94,137.63,0
130,137.79,137.55,0
129,137.61,137.47,0
129,137.44,137.38,1
129,137.27,137.30,1
129,137.10,137.21,2
129,136.94,137.13,2
130,136.80,137.06,2
129,136.65,136.98,2
129,136.49,136.90,2
129,136.34,136.82,2
129,136.20,136.74,2
129,136.05,136.67,2
128,135.89,136.58,2
129,135.75,136.50,2
128,135.60,136.42,2
129,135.47,136.34,2
128,135.32,136.26,2
127,135.15,136.17,2
127,134.99,136.08,2
127,134.83,135.99,2
127,134.67,135.90,2
127,134.52,135.81,2
127,134.37,135.72,2
128,134.24,135.64,2
126,134.08,135.55,2
127,133.93,135.46,2
129,133.84,135.40,2
127,133.70,135.31,2
125,133.53,135.21,2
125,133.35,135.11,2
126,133.21,135.01,2
125,133.04,134.91,2
125,132.88,134.82,2
125,132.72,134.72,2
125,132.57,134.62,2
125,132.42,134.52,2
125,132.27,134.43,2
123,132.09,134.31,2
123,131.90,134.20,2
124,131.75,134.10,2
124,131.59,134.00,2
123,131.42,133.89,2
122,131.23,133.77,2
123,131.07,133.66,2
124,130.92,133.57,2
123,130.77,133.46,2
122,130.59,133.34,2
124,130.46,133.25,2
122,130.29,133.14,2
122,130.12,133.03,2
122,129.96,132.92,2
121,129.78,132.80,2
121,129.61,132.68,2
122,129.45,132.57,2
122,129.31,132.47,2
122,129.16,132.36,2
121,129.00,132.25,2
121,128.84,132.14,2
121,128.68,132.03,2
121,128.53,131.92,2
121,128.38,131.81,2
121,128.23,131.70,2
121,128.08,131.59,2
121,127.94,131.49,2
120,127.78,131.37,2
120,127.63,131.26,2
120,127.47,131.14,2
120,127.33,131.03,2
120,127.18,130.92,2
119,127.02,130.80,2
119,126.85,130.69,2
119,126.70,130.57,2
119,126.54,130.45,2
118,126.37,130.33,2
117,126.19,130.19,2
118,126.02,130.07,2
119,125.88,129.96,2
117,125.70,129.83,2
117,125.53,129.70,2
117,125.36,129.58,2
119,125.23,129.47,2
115,125.03,129.33,2
117,124.87,129.20,2
117,124.71,129.08,2
117,124.56,128.96,2
117,124.40,128.84,2
117,124.26,128.72,2
116,124.09,128.60,2
116,123.93,128.47,2
116,123.77,128.34,2
116,123.61,128.22,2
117,123.48,128.11,2
115,123.31,127.98,2
117,123.19,127.87,2
115,123.02,127.74,2
115,122.86,127.61,2
115,122.71,127.49,2
116,122.57,127.37,2
115,122.42,127.25,2
115,122.27,127.12,2
115,122.13,127.00,2
114,121.96,126.87,2
115,121.82,126.75,2
114,121.67,126.63,2
114,121.51,126.50,2
114,121.36,126.38,2
113,121.20,126.24,2
112,121.01,126.10,2
114,120.87,125.98,2
113,120.72,125.85,2
114,120.58,125.73,2
113,120.43,125.60,2
113,120.28,125.48,2
113,120.14,125.35,2
114,120.01,125.24,2
113,119.87,125.12,2
113,119.73,125.00,2
112,119.58,124.87,2
112,119.43,124.74,2
111,119.26,124.60,2
116,119.19,124.51,2
111,119.03,124.38,2
111,118.87,124.24,2
111,118.71,124.11,2
111,118.56,123.98,2
111,118.41,123.85,2
111,118.26,123.72,2
111,118.11,123.60,2
111,117.97,123.47,2
111,117.83,123.34,2
111,117.70,123.22,2
109,117.52,123.08,2
109,117.35,122.94,2
109,117.18,122.80,2
109,117.02,122.66,2
110,116.88,122.53,2
109,116.72,122.40,2
110,116.59,122.27,2
109,116.44,122.14,2
109,116.29,122.01,2
109,116.14,121.88,2
109,116.00,121.75,2
110,115.88,121.63,2
109,115.74,121.51,2
109,115.61,121.38,2
109,115.47,121.26,2
108,115.33,121.13,2
107,115.16,120.99,2
109,115.04,120.87,2
108,114.89,120.74,2
108,114.76,120.61,2
107,114.60,120.47,2
109,114.49,120.36,2
108,114.36,120.23,2
107,114.21,120.10,2
109,114.11,119.99,2
107,113.97,119.86,2
107,113.83,119.73,2
107,113.69,119.61,2
108,113.58,119.49,2
106,113.43,119.35,2
105,113.26,119.21,2
106,113.11,119.08,2
107,112.99,118.96,2
105,112.83,118.82,2
105,112.67,118.68,2
107,112.56,118.56,2
106,112.43,118.44,2
105,112.28,118.30,2
107,112.17,118.19,2
105,112.03,118.06,2
105,111.89,117.93,2
105,111.75,117.80,2
105,111.62,117.67,2
105,111.48,117.54,2
105,111.36,117.42,2
104,111.21,117.28,2
104,111.06,117.15,2
104,110.92,117.02,2
103,110.76,116.88,2
105,110.65,116.76,2
103,110.50,116.62,2
101,110.31,116.47,2
104,110.18,116.34,2
104,110.06,116.22,2
103,109.92,116.09,2
103,109.78,115.96,2
103,109.64,115.83,2
103,109.51,115.70,2
101,109.34,115.55,2
102,109.19,115.42,2
102,109.05,115.28,2
102,108.91,115.15,2
101,108.75,115.01,2
101,108.59,114.87,2
101,108.44,114.73,2
101,108.29,114.59,2
103,108.19,114.48,2
102,108.06,114.35,2
101,107.92,114.22,2
101,107.78,114.09,2
103,107.69,113.97,2
101,107.55,113.84,2
101,107.42,113.72,2
101,107.29,113.59,2
101,107.17,113.46,2
101,107.05,113.34,2
102,106.94,113.22,2
101,106.83,113.10,2
101,106.71,112.98,2
101,106.59,112.86,2
101,106.48,112.74,2
101,106.37,112.63,2
101,106.27,112.51,2
100,106.14,112.38,2
100,106.02,112.26,2
101,105.92,112.15,2
99,105.78,112.02,2
99,105.64,111.89,2
99,105.51,111.76,2
98,105.36,111.62,2
97,105.19,111.47,2
98,105.05,111.34,2
98,104.91,111.21,2
98,104.77,111.07,2
97,104.61,110.93,2
98,104.48,110.80,2
99,104.37,110.69,2
98,104.25,110.56,2
99,104.14,110.44,2
97,104.00,110.31,2
98,103.88,110.19,2
98,103.76,110.06,2
98,103.64,109.94,2
98,103.53,109.82,2
98,103.42,109.71,2
98,103.31,109.59,2
97,103.19,109.46,2
96,103.04,109.33,2
98,102.94,109.21,2
96,102.80,109.08,2
97,102.69,108.96,2
96,102.55,108.83,2
98,102.46,108.72,2
96,102.33,108.60,2
95,102.19,108.46,2
96,102.06,108.34,2
95,101.92,108.20,2
96,101.80,108.08,2
95,101.67,107.95,2
96,101.55,107.83,2
96,101.44,107.71,2
94,101.29,107.57,2
95,101.17,107.45,2
94,101.02,107.31,2
96,100.92,107.20,2
96,100.83,107.09,2
95,100.71,106.97,2
96,100.61,106.86,2
95,100.50,106.74,2
95,100.39,106.62,2
95,100.28,106.51,2
93,100.14,106.37,2
94,100.02,106.25,2
94,99.90,106.13,2
96,99.82,106.02,2
95,99.72,105.91,2
94,99.61,105.79,2
94,99.50,105.68,2
94,99.39,105.56,2
95,99.30,105.45,2
93,99.17,105.33,2
96,99.11,105.24,2
94,99.01,105.12,2
93,98.89,105.00,2
94,98.79,104.89,2
93,98.67,104.77,2
92,98.54,104.65,2
93,98.43,104.53,2
93,98.32,104.41,2
93,98.21,104.30,2
93,98.11,104.19,2
93,98.01,104.08,2
92,97.89,103.95,2
92,97.77,103.84,2
92,97.65,103.72,2
93,97.56,103.61,2
92,97.45,103.49,2
92,97.34,103.38,2
92,97.23,103.26,2
92,97.13,103.15,2
91,97.01,103.03,2
92,96.91,102.92,2
93,96.83,102.82,2
91,96.71,102.70,2
91,96.60,102.59,2
91,96.49,102.47,2
91,96.38,102.36,2
92,96.29,102.25,2
91,96.18,102.14,2
92,96.10,102.04,2
92,96.02,101.94,2
92,95.94,101.84,2
91,95.84,101.73,2
92,95.76,101.63,2
91,95.67,101.53,2
91,95.57,101.42,2
92,95.50,101.33,2
91,95.41,101.22,2
90,95.30,101.11,2
90,95.20,101.00,2
90,95.09,100.89,2
89,94.97,100.77,2
89,94.85,100.65,2
90,94.75,100.55,2
90,94.66,100.44,2
89,94.55,100.33,2
92,94.50,100.24,2
90,94.41,100.14,2
91,94.34,100.05,2
89,94.23,99.94,2
89,94.13,99.83,2
90,94.04,99.73,2
90,93.96,99.63,2
88,93.84,99.52,2
90,93.77,99.42,2
90,93.69,99.33,2
90,93.62,99.24,2
90,93.54,99.14,2
90,93.47,99.05,2
90,93.40,98.96,2
90,93.34,98.87,2
90,93.27,98.78,2
90,93.20,98.69,2
89,93.12,98.60,2
88,93.02,98.49,2
89,92.94,98.40,2
89,92.86,98.30,2
88,92.76,98.20,2
88,92.67,98.10,2
90,92.61,98.02,2
88,92.52,97.92,2
88,92.43,97.82,2
88,92.34,97.72,2
88,92.25,97.62,2
89,92.19,97.54,2
88,92.11,97.44,2
88,92.02,97.35,2
88,91.94,97.25,2
89,91.88,97.17,2
88,91.81,97.08,2
88,91.73,96.99,2
88,91.66,96.90,2
87,91.56,96.80,2
87,91.47,96.70,2
87,91.38,96.60,2
88,91.31,96.52,2
87,91.23,96.42,2
87,91.14,96.33,2
90,91.12,96.27,2
88,91.06,96.18,2
88,91.00,96.10,2
88,90.94,96.02,2
86,90.84,95.92,2
88,90.78,95.84,2
88,90.73,95.76,2
88,90.67,95.68,2
88,90.62,95.61,2
88,90.57,95.53,2
88,90.51,95.46,2
88,90.46,95.38,2
88,90.42,95.31,2
88,90.37,95.23,2
88,90.32,95.16,2
87,90.25,95.08,2
88,90.21,95.01,2
86,90.12,94.92,2
87,90.06,94.84,2
87,90.00,94.76,2
86,89.92,94.67,2
87,89.86,94.60,2
87,89.80,94.52,2
87,89.75,94.45,2
88,89.71,94.38,2
87,89.66,94.31,2
87,89.61,94.24,2
87,89.55,94.16,2
88,89.52,94.10,2
86,89.45,94.02,2
88,89.42,93.96,2
86,89.35,93.88,2
86,89.29,93.80,2
86,89.22,93.72,2
86,89.16,93.65,2
86,89.09,93.57,2
86,89.03,93.49,2
86,88.97,93.42,2
85,88.89,93.34,2
86,88.83,93.26,2
86,88.78,93.19,2
86,88.72,93.12,2
88,88.71,93.07,2
88,88.69,93.02,2
86,88.64,92.95,2
86,88.59,92.88,2
87,88.56,92.82,2
88,88.54,92.77,2
86,88.49,92.70,2
86,88.44,92.63,2
87,88.41,92.58,2
86,88.37,92.51,2
86,88.32,92.45,2
86,88.27,92.38,2
87,88.25,92.33,2
87,88.22,92.28,2
86,88.18,92.21,2
86,88.13,92.15,2
85,88.07,92.08,2
86,88.03,92.02,2
86,87.99,91.96,2
86,87.95,91.90,2
86,87.91,91.84,2
86,87.87,91.78,2
87,87.86,91.73,2
86,87.82,91.68,2
86,87.78,91.62,2
86,87.75,91.56,2
86,87.71,91.51,2
86,87.68,91.45,2
87,87.66,91.41,2
86,87.63,91.35,2
86,87.60,91.30,2
88,87.61,91.27,2
86,87.57,91.21,2
86,87.54,91.16,2
86,87.51,91.11,2
86,87.48,91.06,2
85,87.43,91.00,2
86,87.40,90.95,2
84,87.33,90.88,2
86,87.31,90.83,2
86,87.28,90.78,2
86,87.26,90.73,2
86,87.23,90.69,2
86,87.21,90.64,2
85,87.16,90.58,2
85,87.12,90.53,2
84,87.06,90.46,2
84,87.00,90.40,2
84,86.94,90.33,2
84,86.88,90.27,2
84,86.82,90.21,2
84,86.76,90.15,2
84,86.71,90.08,2
86,86.69,90.04,2
84,86.64,89.98,2
84,86.59,89.92,2
85,86.56,89.87,2
87,86.56,89.85,2
84,86.51,89.79,2
84,86.46,89.73,2
84,86.41,89.67,2
84,86.36,89.62,2
84,86.32,89.56,2
84,86.27,89.50,2
84,86.23,89.45,2
84,86.18,89.39,2
84,86.14,89.34,2
84,86.10,89.29,2
84,86.05,89.23,2
86,86.05,89.20,2
84,86.01,89.15,2
83,85.95,89.09,2
84,85.91,89.04,2
84,85.87,88.99,2
84,85.84,88.94,2
83,85.78,88.88,2
85,85.76,88.84,2
83,85.71,88.78,2
82,85.63,88.71,2
82,85.56,88.65,2
83,85.51,88.59,2
84,85.48,88.54,2
84,85.45,88.50,2
82,85.38,88.43,2
84,85.35,88.39,2
84,85.33,88.34,2
82,85.26,88.28,2
82,85.20,88.22,2
84,85.17,88.18,2
84,85.15,88.13,2
84,85.12,88.09,2
84,85.10,88.05,2
84,85.08,88.01,2
82,85.02,87.95,2
83,84.98,87.90,2
82,84.92,87.84,2
84,84.90,87.80,2
84,84.88,87.77,2
82,84.82,87.71,2
82,84.77,87.65,2
84,84.75,87.62,2
84,84.74,87.58,2
82,84.68,87.52,2
82,84.63,87.47,2
83,84.60,87.42,2
82,84.54,87.37,2
82,84.49,87.32,2
81,84.42,87.25,2
84,84.42,87.22,2
82,84.37,87.17,2
82,84.32,87.12,2
82,84.27,87.06,2
82,84.23,87.01,2
82,84.18,86.96,2
82,84.14,86.91,2
82,84.10,86.86,2
79,84.00,86.79,2
80,83.92,86.72,2
82,83.88,86.67,2
83,83.86,86.63,2
81,83.80,86.58,2
81,83.75,86.52,2
82,83.71,86.48,2
82,83.68,86.43,2
81,83.62,86.38,2
82,83.59,86.33,2
80,83.52,86.27,2
82,83.49,86.23,2
81,83.44,86.18,2
82,83.41,86.13,2
80,83.34,86.07,2
80,83.28,86.01,2
81,83.23,85.96,2
81,83.19,85.91,2
80,83.12,85.85,2
80,83.06,85.79,2
81,83.02,85.75,2
82,83.00,85.71,2
80,82.94,85.65,2
80,82.88,85.60,2
81,82.84,85.55,2
80,82.78,85.49,2
80,82.73,85.44,2
79,82.65,85.37,2
81,82.62,85.33,2
82,82.61,85.30,2
81,82.58,85.25,2
80,82.52,85.20,2
79,82.45,85.14,2
82,82.45,85.11,2
81,82.42,85.07,2
80,82.37,85.02,2
80,82.32,84.97,2
80,82.27,84.92,2
81,82.25,84.88,2
80,82.20,84.83,2
79,82.14,84.77,2
80,82.10,84.72,2
80,82.06,84.68,2
79,81.99,84.62,2
80,81.95,84.57,2
80,81.92,84.53,2
80,81.88,84.48,2
78,81.80,84.42,2
79,81.74,84.36,2
80,81.71,84.32,2
79,81.65,84.27,2
79,81.60,84.21,2
79,81.55,84.16,2
81,81.54,84.13,2
79,81.49,84.08,2
79,81.44,84.03,2
80,81.41,83.99,2
80,81.38,83.95,2
80,81.35,83.91,2
80,81.33,83.87,2
79,81.28,83.82,2
80,81.25,83.78,2
80,81.23,83.74,2
79,81.18,83.70,2
79,81.14,83.65,2
79,81.10,83.60,2
79,81.06,83.56,2
78,80.99,83.50,2
79,80.95,83.46,2
79,80.92,83.41,2
79,80.88,83.37,2
79,80.84,83.32,2
79,80.80,83.28,2
79,80.77,83.24,2
79,80.73,83.20,2
78,80.68,83.14,2
79,80.64,83.10,2
79,80.61,83.06,2
81,80.62,83.04,2
79,80.59,83.00,2
79,80.55,82.96,2
79,80.52,82.92,2
78,80.47,82.87,2
78,80.42,82.82,2
79,80.39,82.78,2
79,80.37,82.75,2
78,80.32,82.70,2
78,80.27,82.65,2
80,80.27,82.63,2
79,80.24,82.59,2
78,80.20,82.54,2
79,80.17,82.51,2
80,80.17,82.48,2
80,80.17,82.46,2
80,80.16,82.43,2
80,80.16,82.41,2
79,80.14,82.38,2
80,80.13,82.35,2
80,80.13,82.33,2
79,80.11,82.29,2
85,80.21,82.32,2
81,80.22,82.31,2
82,80.26,82.31,2
82,80.29,82.30,2
82,80.33,82.30,2
82,80.36,82.30,2
82,80.39,82.29,2
82,80.43,82.29,2
82,80.46,82.29,2
82,80.49,82.28,2
84,80.56,82.30,2
82,80.59,82.30,2
83,80.64,82.31,2
84,80.70,82.32,2
82,80.73,82.32,2
82,80.75,82.32,2
79,80.72,82.28,2
82,80.74,82.28,2
84,80.81,82.30,2
82,80.83,82.29,2
82,80.86,82.29,2
82,80.88,82.29,2
81,80.88,82.28,2
82,80.90,82.27,2
83,80.95,82.28,2
86,81.05,82.32,2
84,81.11,82.33,2
82,81.12,82.33,2
83,81.16,82.34,2
83,81.20,82.34,2
82,81.21,82.34,2
82,81.23,82.34,2
83,81.27,82.34,2
84,81.32,82.36,2
84,81.37,82.38,2
82,81.39,82.37,2
82,81.40,82.37,2
84,81.45,82.39,2
84,81.50,82.40,2
83,81.53,82.41,2
86,81.62,82.44,2
85,81.69,82.47,2
85,81.75,82.49,2
84,81.80,82.51,2
85,81.86,82.53,2
87,81.97,82.58,2
86,82.05,82.61,2
86,82.13,82.65,2
86,82.20,82.68,2
85,82.26,82.70,2
86,82.33,82.74,2
86,82.41,82.77,2
86,82.48,82.80,2
87,82.57,82.84,2
88,82.68,82.90,2
86,82.75,82.93,2
86,82.81,82.96,2
87,82.89,83.00,2
87,82.98,83.04,2
90,83.12,83.11,2
87,83.19,83.15,2
88,83.29,83.20,2
87,83.36,83.23,2
87,83.44,83.27,2
89,83.55,83.33,2
89,83.66,83.38,2
88,83.74,83.43,2
89,83.85,83.49,2
89,83.95,83.54,2
89,84.05,83.60,2
89,84.15,83.65,2
90,84.27,83.71,2
88,84.34,83.76,2
90,84.46,83.82,2
88,84.53,83.86,2
90,84.64,83.92,2
89,84.72,83.97,2
90,84.83,84.03,2
90,84.93,84.09,2
90,85.03,84.15,2
91,85.15,84.22,2
90,85.25,84.28,2
90,85.35,84.34,2
92,85.48,84.41,2
92,85.61,84.49,2
92,85.74,84.56,2
92,85.86,84.64,2
94,86.03,84.73,2
94,86.18,84.82,2
94,86.34,84.92,2
94,86.49,85.01,2
96,86.68,85.12,2
95,86.85,85.22,2
95,87.01,85.31,2
96,87.19,85.42,2
96,87.37,85.53,2
95,87.52,85.62,2
96,87.69,85.72,2
98,87.90,85.85,2
98,88.10,85.97,2
99,88.32,86.10,2
100,88.55,86.24,2
100,88.78,86.38,2
102,89.05,86.53,2
103,89.32,86.70,2
104,89.62,86.87,2
103,89.89,87.03,2
104,90.17,87.20,2
104,90.44,87.37,2
104,90.72,87.53,2
103,90.96,87.69,2
103,91.20,87.84,2
103,91.44,87.99,2
103,91.67,88.14,2
105,91.94,88.31,2
105,92.20,88.48,2
106,92.47,88.65,2
106,92.74,88.83,2
107,93.03,89.01,2
106,93.29,89.18,2
108,93.58,89.37,2
109,93.89,89.56,2
108,94.17,89.75,2
109,94.47,89.94,2
112,94.82,90.16,2
111,95.14,90.37,2
110,95.44,90.57,2
110,95.73,90.76,2
110,96.02,90.95,2
109,96.28,91.13,2
111,96.57,91.33,2
111,96.86,91.53,2
113,97.18,91.74,2
113,97.50,91.96,2
115,97.85,92.19,2
115,98.19,92.42,2
115,98.53,92.64,2
115,98.86,92.86,2
117,99.22,93.11,2
118,99.60,93.35,2
120,100.00,93.62,2
120,100.40,93.88,2
120,100.80,94.15,2
120,101.18,94.40,2
122,101.60,94.68,2
124,102.04,94.97,2
123,102.46,95.25,2
124,102.89,95.54,2
124,103.32,95.83,2
124,103.73,96.11,2
124,104.14,96.39,2
125,104.55,96.67,2
125,104.96,96.96,2
125,105.36,97.24,2
124,105.74,97.50,2
126,106.14,97.79,2
126,106.54,98.07,2
126,106.93,98.35,2
126,107.31,98.63,2
128,107.72,98.92,2
128,108.13,99.21,2
128,108.53,99.50,2
128,108.91,99.78,2
128,109.30,100.07,2
130,109.71,100.37,2
129,110.10,100.65,2
131,110.51,100.96,2
133,110.96,101.28,2
131,111.36,101.57,2
133,111.80,101.89,2
133,112.22,102.20,2
132,112.62,102.50,2
132,113.00,102.79,2
132,113.38,103.08,2
132,113.76,103.37,2
133,114.14,103.67,2
136,114.58,103.99,2
136,115.01,104.31,2
137,115.45,104.64,2
138,115.90,104.97,2
139,116.36,105.31,2
139,116.81,105.65,2
139,117.26,105.98,2
139,117.69,106.31,2
140,118.14,106.65,2
139,118.56,106.97,2
139,118.96,107.29,2
141,119.40,107.63,2
141,119.84,107.97,2
142,120.28,108.31,2
143,120.73,108.65,2
142,121.16,108.99,2
143,121.60,109.33,2
141,121.98,109.64,2
143,122.41,109.98,2
143,122.82,110.31,2
143,123.22,110.63,2
143,123.62,110.96,2
143,124.00,111.28,2
145,124.42,111.62,2
144,124.82,111.94,2
145,125.22,112.27,2
145,125.61,112.60,2
145,126.00,112.92,2
146,126.40,113.25,2
145,126.77,113.57,2
145,127.14,113.88,2
146,127.52,114.20,2
145,127.87,114.51,2
145,128.21,114.82,2
147,128.58,115.14,2
147,128.95,115.46,2
147,129.31,115.77,2
148,129.69,116.10,2
149,130.07,116.42,2
149,130.45,116.75,2
149,130.82,117.07,2
148,131.17,117.38,2
149,131.52,117.70,2
149,131.87,118.01,2
149,132.22,118.32,2
149,132.55,118.63,2
149,132.88,118.93,2
148,133.18,119.22,2
148,133.48,119.51,2
148,133.77,119.80,2
147,134.03,120.07,2
148,134.31,120.35,2
148,134.59,120.62,2
148,134.86,120.90,2
147,135.10,121.16,2
147,135.34,121.42,2
147,135.57,121.67,2
148,135.82,121.94,2
147,136.04,122.19,2
147,136.26,122.43,2
147,136.48,122.68,2
151,136.77,122.96,2
147,136.97,123.20,2
148,137.19,123.45,2
146,137.37,123.68,2
147,137.56,123.91,2
145,137.71,124.12,2
146,137.87,124.34,2
146,138.04,124.56,2
146,138.20,124.77,2
145,138.33,124.97,2
145,138.47,125.17,2
145,138.60,125.37,2
145,138.72,125.57,2
145,138.85,125.76,2
145,138.97,125.95,2
145,139.09,126.15,2
144,139.19,126.32,2
145,139.31,126.51,2
143,139.38,126.68,2
145,139.49,126.86,2
143,139.56,127.02,2
143,139.63,127.18,2
143,139.70,127.34,2
143,139.77,127.49,2
143,139.83,127.65,2
142,139.87,127.79,2
141,139.90,127.93,2
142,139.94,128.07,2
142,139.98,128.21,2
140,139.98,128.32,2
142,140.02,128.46,2
142,140.06,128.60,2
141,140.08,128.72,2
141,140.10,128.84,2
141,140.12,128.96,2
141,140.13,129.08,2
141,140.15,129.20,2
141,140.17,129.32,2
141,140.18,129.44,2
140,140.18,129.54,2
141,140.20,129.66,2
140,140.19,129.76,2
140,140.19,129.86,2
140,140.19,129.97,2
139,140.16,130.06,2
140,140.16,130.16,2
139,140.14,130.24,2
140,140.13,130.34,2
139,140.11,130.43,2
139,140.09,130.51,2
139,140.07,130.60,2
139,140.04,130.68,2
138,140.00,130.76,2
139,139.98,130.84,2
137,139.92,130.90,2
137,139.87,130.96,2
137,139.81,131.02,2
137,139.75,131.08,2
137,139.70,131.14,2
137,139.64,131.20,2
137,139.59,131.26,2
137,139.54,131.31,2
137,139.49,131.37,2
136,139.42,131.42,2
137,139.37,131.47,2
136,139.30,131.52,2
137,139.26,131.57,2
137,139.21,131.63,2
136,139.15,131.67,2
133,139.02,131.68,2
136,138.96,131.73,2
136,138.90,131.77,2
137,138.87,131.82,2
136,138.81,131.86,2
137,138.77,131.92,2
136,138.72,131.96,2
135,138.64,131.99,2
135,138.57,132.02,2
135,138.50,132.05,2
136,138.45,132.09,2
135,138.38,132.12,2
135,138.31,132.14,2
135,138.25,132.17,2
135,138.18,132.20,2
134,138.10,132.22,2
133,138.00,132.23,2
134,137.92,132.24,2
134,137.84,132.26,2
133,137.74,132.27,2
135,137.69,132.30,2
133,137.59,132.30,2
134,137.52,132.32,2
133,137.43,132.33,2
133,137.34,132.33,2
135,137.29,132.36,2
134,137.23,132.38,2
133,137.14,132.38,2
132,137.04,132.38,2
132,136.94,132.38,2
132,136.84,132.37,2
133,136.76,132.38,2
132,136.67,132.38,2
132,136.58,132.37,2
131,136.46,132.36,2
132,136.38,132.35,2
131,136.27,132.34,2
132,136.18,132.34,2
131,136.08,132.32,2
131,135.98,132.31,2
129,135.84,132.28,2
130,135.72,132.25,2
129,135.59,132.22,2
130,135.47,132.20,2
129,135.35,132.17,2
129,135.22,132.14,2
129,135.09,132.10,2
129,134.97,132.07,2
129,134.85,132.04,2
129,134.74,132.01,2
128,134.60,131.97,2
128,134.47,131.93,2
129,134.36,131.90,2
128,134.23,131.86,2
128,134.11,131.83,2
127,133.97,131.78,2
128,133.85,131.74,2
127,133.71,131.69,2
127,133.57,131.65,2
127,133.44,131.60,2
127,133.31,131.55,2
127,133.19,131.51,2
127,133.06,131.46,2
125,132.90,131.40,2
127,132.79,131.35,2
127,132.67,131.31,2
126,132.54,131.26,2
126,132.41,131.20,2
125,132.26,131.14,2
125,132.11,131.08,2
125,131.97,131.02,2
125,131.83,130.96,2
125,131.69,130.90,2
125,131.56,130.84,2
123,131.39,130.76,2
126,131.28,130.72,2
124,131.14,130.65,2
124,130.99,130.58,2
124,130.85,130.52,2
124,130.72,130.45,2
127,130.64,130.42,2
123,130.49,130.34,2
123,130.34,130.27,3
123,130.19,130.20,3
123,130.05,130.12,4
123,129.91,130.05,4
123,129.77,129.98,4
123,129.63,129.91,4
121,129.46,129.82,4
123,129.33,129.76,4
122,129.19,129.68,4
122,129.04,129.60,4
122,128.90,129.52,4
121,128.74,129.44,4
121,128.59,129.36,4
121,128.44,129.27,4
121,128.29,129.19,4
122,128.16,129.12,4
121,128.02,129.04,4
121,127.88,128.96,4
121,127.74,128.88,4
121,127.61,128.80,4
121,127.47,128.72,4
120,127.32,128.63,4
120,127.18,128.55,4
120,127.03,128.46,4
120,126.89,128.38,4
121,126.78,128.30,4
119,126.62,128.21,4
120,126.49,128.13,4
119,126.34,128.04,4
119,126.19,127.95,4
119,126.05,127.86,4
119,125.91,127.77,4
119,125.77,127.68,4
118,125.61,127.58,4
117,125.44,127.48,4
118,125.29,127.38,4
117,125.13,127.28,4
121,125.04,127.22,4
117,124.88,127.11,4
117,124.72,127.01,4
117,124.57,126.91,4
117,124.42,126.81,4
117,124.27,126.71,4
117,124.13,126.62,4
117,123.98,126.52,4
117,123.84,126.43,4
116,123.69,126.32,4
117,123.55,126.23,4
116,123.40,126.13,4
116,123.25,126.03,4
116,123.11,125.93,4
116,122.97,125.83,4
115,122.81,125.72,4
119,122.73,125.65,4
115,122.58,125.54,4
115,122.42,125.44,4
115,122.28,125.33,4
115,122.13,125.23,4
115,121.99,125.13,4
115,121.85,125.03,4
114,121.69,124.92,4
114,121.54,124.81,4
113,121.37,124.69,4
114,121.22,124.58,4
115,121.09,124.49,4
114,120.95,124.38,4
113,120.79,124.27,4
113,120.64,124.16,4
113,120.49,124.04,4
113,120.34,123.93,4
113,120.19,123.82,4
113,120.05,123.72,4
113,119.90,123.61,4
113,119.77,123.50,4
113,119.63,123.40,4
113,119.50,123.29,4
113,119.37,123.19,4
112,119.22,123.08,4
112,119.08,122.97,4
111,118.92,122.85,4
113,118.80,122.75,4
112,118.66,122.64,4
112,118.53,122.54,4
112,118.40,122.43,4
112,118.27,122.33,4
113,118.16,122.23,4
112,118.04,122.13,4
111,117.90,122.02,4
111,117.76,121.91,4
112,117.65,121.81,4
111,117.51,121.70,4
111,117.38,121.60,4
111,117.26,121.49,4
111,117.13,121.38,4
111,117.01,121.28,4
110,116.87,121.17,4
111,116.75,121.07,4
110,116.62,120.96,4
110,116.48,120.85,4
110,116.35,120.74,4
110,116.23,120.63,4
109,116.08,120.51,4
110,115.96,120.41,4
109,115.82,120.29,4
109,115.68,120.18,4
109,115.55,120.07,4
109,115.42,119.96,4
109,115.29,119.85,4
106,115.11,119.71,4
109,114.98,119.60,4
108,114.84,119.49,4
109,114.73,119.38,4
108,114.59,119.27,4
108,114.46,119.16,4
109,114.35,119.05,4
108,114.22,118.94,4
108,114.10,118.83,4
108,113.98,118.73,4
107,113.84,118.61,4
108,113.72,118.50,4
107,113.59,118.39,4
108,113.48,118.28,4
107,113.35,118.17,4
108,113.24,118.07,4
107,113.11,117.96,4
107,112.99,117.85,4
107,112.87,117.74,4
105,112.71,117.61,4
107,112.60,117.51,4
107,112.49,117.40,4
106,112.36,117.29,4
106,112.23,117.18,4
105,112.09,117.05,4
105,111.95,116.93,4
105,111.81,116.81,4
106,111.69,116.71,4
106,111.58,116.60,4
105,111.44,116.48,4
105,111.32,116.37,4
105,111.19,116.25,4
105,111.07,116.14,4
105,110.94,116.03,4
105,110.83,115.92,4
105,110.71,115.81,4
105,110.59,115.70,4
105,110.48,115.60,4
105,110.37,115.49,4
108,110.33,115.41,4
105,110.22,115.31,4
104,110.09,115.20,4
104,109.97,115.09,4
103,109.83,114.96,4
103,109.70,114.84,4
103,109.56,114.73,4
103,109.43,114.61,4
103,109.30,114.49,4
103,109.18,114.38,4
104,109.07,114.27,4
103,108.95,114.16,4
105,108.87,114.07,4
103,108.76,113.96,4
103,108.64,113.85,4
103,108.53,113.74,4
102,108.40,113.62,4
103,108.29,113.52,4
103,108.18,113.41,4
101,108.04,113.29,4
102,107.92,113.18,4
103,107.82,113.07,4
102,107.70,112.96,4
102,107.59,112.85,4
101,107.46,112.73,4
101,107.33,112.62,4
101,107.20,112.50,4
101,107.08,112.39,4
101,106.96,112.27,4
101,106.84,112.16,4
99,106.68,112.03,4
99,106.53,111.90,4
100,106.40,111.78,4
100,106.27,111.66,4
100,106.14,111.54,4
100,106.02,111.43,4
99,105.88,111.30,4
100,105.76,111.19,4
100,105.65,111.08,4
99,105.51,110.96,4
100,105.40,110.85,4
100,105.30,110.74,4
99,105.17,110.62,4
99,105.05,110.51,4
99,104.93,110.39,4
98,104.79,110.27,4
99,104.67,110.16,4
99,104.56,110.04,4
101,104.49,109.95,4
99,104.38,109.84,4
99,104.27,109.74,4
102,104.22,109.66,4
97,104.08,109.53,4
100,104.00,109.44,4
99,103.90,109.33,4
98,103.78,109.22,4
99,103.68,109.12,4
98,103.57,109.01,4
98,103.46,108.90,4
98,103.35,108.79,4
97,103.22,108.67,4
98,103.12,108.56,4
95,102.96,108.43,4
96,102.82,108.30,4
97,102.70,108.19,4
97,102.59,108.08,4
97,102.48,107.97,4
96,102.35,107.85,4
98,102.26,107.75,4
96,102.13,107.63,4
96,102.01,107.51,4
96,101.89,107.40,4
96,101.77,107.29,4
96,101.66,107.17,4
96,101.54,107.06,4
96,101.43,106.95,4
97,101.34,106.85,4
97,101.26,106.75,4
98,101.19,106.66,4
97,101.11,106.57,4
98,101.05,106.48,4
96,100.95,106.38,4
97,100.87,106.28,4
96,100.77,106.18,4
97,100.69,106.09,4
96,100.60,105.99,4
98,100.55,105.91,4
102,100.58,105.87,4
96,100.49,105.77,4
95,100.38,105.66,4
96,100.29,105.57,4
95,100.18,105.46,4
96,100.10,105.37,4
95,100.00,105.26,4
94,99.88,105.15,4
95,99.78,105.05,4
95,99.68,104.95,4
95,99.59,104.85,4
95,99.50,104.75,4
96,99.43,104.66,4
95,99.34,104.57,4
93,99.21,104.45,4
95,99.13,104.36,4
95,99.05,104.26,4
95,98.97,104.17,4
95,98.89,104.08,4
95,98.81,103.99,4
93,98.69,103.88,4
95,98.62,103.79,4
94,98.53,103.69,4
93,98.42,103.58,4
95,98.35,103.50,4
94,98.26,103.40,4
95,98.20,103.32,4
95,98.13,103.24,4
94,98.05,103.14,4
94,97.97,103.05,4
93,97.87,102.95,4
93,97.77,102.85,4
93,97.68,102.75,4
95,97.62,102.68,4
93,97.53,102.58,4
92,97.42,102.47,4
92,97.31,102.37,4
93,97.22,102.27,4
93,97.14,102.18,4
92,97.04,102.08,4
93,96.96,101.99,4
93,96.88,101.90,4
92,96.78,101.80,4
92,96.68,101.70,4
92,96.59,101.61,4
92,96.50,101.51,4
92,96.41,101.41,4
93,96.34,101.33,4
92,96.25,101.24,4
92,96.17,101.14,4
92,96.09,101.05,4
93,96.02,100.97,4
91,95.92,100.87,4
91,95.82,100.77,4
91,95.73,100.68,4
91,95.63,100.58,4
91,95.54,100.48,4
92,95.47,100.40,4
90,95.36,100.29,4
91,95.27,100.20,4
91,95.19,100.11,4
91,95.10,100.02,4
91,95.02,99.93,4
91,94.94,99.84,4
90,94.84,99.74,4
91,94.77,99.65,4
90,94.67,99.56,4
91,94.60,99.47,4
90,94.51,99.38,4
90,94.42,99.28,4
90,94.33,99.19,4
93,94.30,99.13,4
90,94.21,99.04,4
90,94.13,98.95,4
90,94.05,98.86,4
90,93.97,98.77,4
91,93.91,98.69,4
89,93.81,98.59,4
89,93.71,98.50,4
90,93.64,98.41,4
90,93.57,98.33,4
90,93.49,98.25,4
90,93.42,98.16,4
88,93.32,98.06,4
89,93.23,97.97,4
90,93.17,97.89,4
88,93.06,97.79,4
88,92.96,97.69,4
89,92.88,97.61,4
89,92.80,97.52,4
88,92.71,97.43,4
87,92.59,97.32,4
89,92.52,97.24,4
88,92.43,97.15,4
88,92.34,97.05,4
88,92.26,96.96,4
89,92.19,96.88,4
88,92.11,96.80,4
87,92.00,96.70,4
88,91.92,96.61,4
89,91.87,96.53,4
88,91.79,96.45,4
87,91.69,96.35,4
89,91.64,96.28,4
88,91.57,96.20,4
88,91.50,96.12,4
88,91.43,96.04,4
88,91.36,95.95,4
88,91.29,95.88,4
88,91.22,95.80,4
88,91.16,95.72,4
88,91.10,95.64,4
89,91.05,95.58,4
87,90.97,95.49,4
86,90.87,95.39,4
88,90.82,95.32,4
88,90.76,95.25,4
87,90.68,95.16,4
86,90.59,95.07,4
86,90.50,94.98,4
87,90.43,94.90,4
86,90.34,94.81,4
86,90.25,94.73,4
87,90.19,94.65,4
86,90.10,94.56,4
86,90.02,94.48,4
86,89.94,94.39,4
86,89.86,94.31,4
86,89.79,94.22,4
86,89.71,94.14,4
87,89.66,94.07,4
87,89.60,94.00,4
87,89.55,93.93,4
86,89.48,93.85,4
86,89.41,93.77,4
86,89.34,93.69,4
86,89.28,93.62,4
86,89.21,93.54,4
85,89.13,93.46,4
86,89.06,93.38,4
86,89.00,93.31,4
86,88.94,93.23,4
86,88.88,93.16,4
85,88.81,93.08,4
84,88.71,92.99,4
86,88.66,92.92,4
86,88.60,92.85,4
85,88.53,92.77,4
84,88.44,92.68,4
84,88.35,92.60,4
84,88.26,92.51,4
85,88.20,92.44,4
84,88.11,92.35,4
85,88.05,92.28,4
84,87.97,92.20,4
84,87.89,92.11,4
84,87.81,92.03,4
84,87.74,91.95,4
84,87.66,91.87,4
85,87.61,91.80,4
84,87.54,91.73,4
84,87.47,91.65,4
84,87.40,91.57,4
84,87.33,91.50,4
84,87.26,91.42,4
84,87.20,91.35,4
84,87.13,91.27,4
84,87.07,91.20,4
83,86.99,91.12,4
84,86.93,91.05,4
84,86.87,90.98,4
83,86.79,90.90,4
85,86.76,90.84,4
84,86.70,90.77,4
83,86.63,90.69,4
84,86.58,90.63,4
83,86.50,90.55,4
82,86.41,90.46,4
81,86.31,90.37,4
84,86.26,90.31,4
83,86.19,90.23,4
83,86.13,90.16,4
82,86.05,90.08,4
82,85.97,90.00,4
84,85.93,89.94,4
82,85.85,89.86,4
82,85.77,89.78,4
83,85.72,89.71,4
81,85.62,89.62,4
82,85.55,89.55,4
82,85.48,89.47,4
82,85.41,89.40,4
82,85.34,89.32,4
82,85.27,89.25,4
82,85.21,89.18,4
81,85.12,89.10,4
81,85.04,89.02,4
82,84.98,88.95,4
82,84.92,88.88,4
82,84.86,88.81,4
81,84.79,88.73,4
82,84.73,88.66,4
80,84.64,88.58,4
82,84.58,88.51,4
82,84.53,88.44,4
80,84.44,88.36,4
82,84.39,88.30,4
81,84.32,88.22,4
81,84.26,88.15,4
81,84.19,88.08,4
80,84.11,88.00,4
81,84.05,87.93,4
81,83.99,87.86,4
82,83.95,87.80,4
80,83.87,87.72,4
80,83.79,87.65,4
82,83.75,87.59,4
80,83.68,87.51,4
80,83.61,87.44,4
79,83.51,87.35,4
80,83.44,87.28,4
80,83.37,87.21,4
80,83.31,87.14,4
79,83.22,87.05,4
81,83.18,86.99,4
80,83.11,86.92,4
80,83.05,86.85,4
79,82.97,86.78,4
82,82.95,86.73,4
80,82.89,86.66,4
81,82.85,86.60,4
80,82.80,86.54,4
80,82.74,86.47,4
80,82.69,86.41,4
79,82.61,86.33,4
80,82.56,86.27,4
80,82.51,86.21,4
82,82.50,86.17,4
79,82.43,86.09,4
81,82.40,86.04,4
81,82.37,85.99,4
82,82.36,85.95,4
79,82.30,85.88,4
80,82.25,85.82,4
80,82.21,85.77,4
82,82.20,85.73,4
82,82.20,85.69,4
81,82.17,85.64,4
83,82.19,85.62,4
81,82.17,85.57,4
81,82.14,85.53,4
81,82.12,85.48,4
84,82.16,85.47,4
80,82.11,85.41,4
81,82.09,85.37,4
81,82.07,85.32,4
80,82.03,85.27,4
82,82.03,85.24,4
81,82.01,85.20,4
80,81.97,85.14,4
82,81.97,85.11,4
80,81.93,85.06,4
81,81.91,85.02,4
81,81.89,84.98,4
81,81.87,84.94,4
81,81.86,84.90,4
81,81.84,84.86,4
81,81.82,84.82,4
81,81.81,84.79,4
81,81.79,84.75,4
81,81.77,84.71,4
81,81.76,84.67,4
81,81.74,84.64,4
82,81.75,84.61,4
81,81.73,84.57,4
81,81.72,84.54,4
81,81.71,84.50,4
80,81.67,84.46,4
80,81.64,84.41,4
81,81.62,84.38,4
81,81.61,84.34,4
80,81.58,84.30,4
80,81.55,84.26,4
81,81.54,84.23,4
81,81.53,84.19,4
80,81.50,84.15,4
80,81.47,84.11,4
81,81.46,84.08,4
81,81.45,84.05,4
80,81.42,84.01,4
80,81.39,83.97,4
81,81.38,83.94,4
80,81.36,83.90,4
80,81.33,83.86,4
80,81.30,83.82,4
81,81.30,83.79,4
80,81.27,83.75,4
80,81.24,83.72,4
80,81.22,83.68,4
81,81.21,83.65,4
81,81.21,83.63,4
80,81.19,83.59,4
80,81.16,83.55,4
81,81.16,83.53,4
80,81.14,83.49,4
80,81.11,83.46,4
80,81.09,83.42,4
79,81.05,83.38,4
80,81.03,83.35,4
80,81.01,83.31,4
80,80.99,83.28,4
79,80.95,83.24,4
80,80.93,83.20,4
80,80.91,83.17,4
79,80.87,83.13,4
79,80.83,83.09,4
80,80.82,83.06,4
79,80.78,83.02,4
79,80.75,82.98,4
81,80.75,82.96,4
80,80.74,82.93,4
80,80.72,82.90,4
82,80.75,82.89,4
80,80.73,82.86,4
80,80.72,82.83,4
80,80.70,82.80,4
82,80.73,82.80,4
81,80.73,82.78,4
80,80.72,82.75,4
82,80.75,82.74,4
79,80.71,82.71,4
80,80.70,82.68,4
80,80.68,82.65,4
80,80.67,82.63,4
79,80.64,82.59,4
80,80.62,82.56,4
81,80.63,82.55,4
79,80.60,82.51,4
79,80.57,82.48,4
80,80.55,82.45,4
80,80.54,82.43,4
81,80.55,82.41,4
81,80.56,82.40,4
81,80.57,82.39,4
81,80.58,82.37,4
81,80.59,82.36,4
81,80.60,82.34,4
82,80.62,82.34,4
85,80.71,82.37,4
84,80.78,82.38,4
81,80.78,82.37,4
82,80.81,82.37,4
82,80.83,82.36,4
81,80.83,82.35,4
81,80.84,82.34,4
82,80.86,82.33,4
81,80.86,82.32,4
82,80.89,82.32,4
81,80.89,82.30,4
81,80.89,82.29,4
80,80.87,82.27,4
81,80.87,82.25,4
80,80.86,82.23,4
82,80.88,82.23,4
81,80.88,82.22,4
81,80.88,82.20,4
81,80.89,82.19,4
80,80.87,82.17,4
82,80.89,82.17,4
80,80.87,82.15,4
80,80.86,82.13,4
80,80.84,82.10,4
81,80.84,82.09,4
80,80.83,82.07,4
80,80.81,82.05,4
81,80.81,82.04,4
80,80.80,82.02,4
80,80.78,82.00,4
80,80.77,81.98,4
81,80.77,81.97,4
81,80.77,81.96,4
80,80.76,81.94,4
80,80.74,81.92,4
80,80.73,81.90,4
80,80.71,81.88,4
80,80.70,81.86,4
80,80.69,81.85,4
81,80.69,81.84,4
80,80.68,81.82,4
80,80.66,81.80,4
80,80.65,81.78,4
79,80.62,81.76,4
80,80.61,81.74,4
80,80.59,81.72,4
80,80.58,81.70,4
80,80.57,81.69,4
80,80.56,81.67,4
80,80.55,81.65,4
78,80.50,81.62,4
79,80.47,81.59,4
79,80.44,81.56,4
78,80.39,81.53,4
80,80.38,81.51,4
79,80.35,81.49,4
79,80.33,81.46,4
80,80.32,81.45,4
78,80.27,81.41,4
79,80.25,81.39,4
78,80.20,81.36,4
78,80.16,81.32,4
79,80.14,81.30,4
80,80.13,81.29,4
78,80.09,81.25,4
78,80.05,81.22,4
79,80.03,81.20,4
79,80.01,81.18,4
80,80.01,81.16,4
78,79.97,81.13,4
78,79.93,81.10,4
79,79.91,81.08,4
78,79.87,81.05,4
78,79.83,81.02,4
78,79.80,80.99,4
79,79.78,80.97,4
79,79.77,80.95,4
78,79.73,80.92,4
78,79.70,80.89,4
79,79.68,80.87,4
78,79.65,80.84,4
79,79.63,80.83,4
78,79.60,80.80,4
79,79.59,80.78,4
78,79.56,80.75,4
77,79.51,80.71,4
78,79.48,80.69,4
78,79.45,80.66,4
78,79.42,80.63,4
78,79.39,80.61,4
79,79.38,80.59,4
80,79.39,80.58,4
80,79.41,80.58,4
80,79.42,80.57,4
79,79.41,80.56,4
79,79.40,80.54,4
79,79.39,80.53,4
78,79.37,80.50,4
78,79.34,80.48,4
79,79.33,80.46,4
81,79.37,80.47,4
79,79.36,80.45,4
79,79.35,80.44,4
79,79.34,80.42,4
79,79.34,80.41,4
80,79.35,80.40,4
80,79.36,80.40,4
81,79.40,80.41,4
81,79.43,80.41,4
81,79.46,80.42,4
82,79.51,80.43,4
84,79.60,80.47,4
84,79.69,80.51,4
83,79.75,80.53,4
82,79.80,80.54,4
84,79.88,80.58,4
85,79.99,80.62,4
84,80.07,80.66,4
84,80.14,80.69,4
84,80.22,80.72,4
85,80.32,80.77,4
84,80.39,80.80,4
84,80.46,80.83,4
82,80.49,80.84,4
84,80.56,80.87,4
83,80.61,80.90,4
84,80.68,80.93,4
85,80.77,80.97,4
84,80.83,81.00,4
84,80.89,81.03,4
84,80.96,81.06,4
84,81.02,81.09,4
85,81.10,81.13,4
84,81.16,81.15,4
84,81.21,81.18,4
84,81.27,81.21,4
85,81.34,81.25,4
84,81.40,81.28,4
84,81.45,81.30,4
86,81.54,81.35,4
86,81.63,81.40,4
86,81.72,81.44,4
86,81.80,81.49,4
87,81.91,81.54,4
86,81.99,81.59,4
86,82.07,81.63,4
86,82.15,81.68,4
88,82.26,81.74,4
88,82.38,81.80,4
88,82.49,81.86,4
90,82.64,81.95,4
90,82.79,82.03,4
90,82.93,82.11,4
90,83.07,82.18,4
90,83.21,82.26,4
90,83.35,82.34,4
89,83.46,82.41,4
90,83.59,82.48,4
92,83.76,82.58,4
90,83.88,82.65,4
90,84.01,82.73,4
90,84.13,82.80,4
92,84.28,82.89,4
92,84.44,82.98,4
92,84.59,83.07,4
94,84.78,83.18,4
94,84.96,83.29,4
94,85.14,83.40,4
94,85.32,83.50,4
96,85.53,83.63,4
94,85.70,83.73,4
94,85.87,83.83,4
94,86.03,83.94,4
94,86.19,84.04,4
94,86.35,84.14,4
95,86.52,84.24,4
96,86.71,84.36,4
97,86.92,84.49,4
95,87.08,84.59,4
96,87.26,84.71,4
100,87.51,84.86,4
100,87.76,85.01,4
101,88.03,85.17,4
101,88.28,85.33,4
101,88.54,85.49,4
103,88.83,85.66,4
104,89.13,85.85,4
103,89.41,86.02,4
104,89.70,86.20,4
106,90.03,86.39,4
107,90.37,86.60,4
106,90.68,86.79,4
108,91.03,87.01,4
107,91.34,87.21,4
108,91.68,87.41,4
108,92.00,87.62,4
108,92.32,87.82,4
108,92.64,88.03,4
110,92.99,88.25,4
109,93.31,88.45,4
110,93.64,88.67,4
110,93.97,88.88,4
111,94.31,89.10,4
113,94.68,89.34,4
114,95.07,89.59,4
114,95.45,89.83,4
114,95.82,90.07,4
113,96.16,90.30,4
115,96.54,90.55,4
113,96.87,90.78,4
114,97.21,91.01,4
114,97.55,91.24,4
113,97.85,91.46,4
114,98.18,91.68,4
115,98.51,91.91,4
114,98.82,92.13,4
115,99.15,92.36,4
115,99.46,92.59,4
113,99.73,92.79,4
115,100.04,93.02,4
115,100.34,93.24,4
115,100.63,93.45,4
114,100.90,93.66,4
116,101.20,93.88,4
118,101.54,94.12,4
116,101.83,94.34,4
116,102.11,94.56,4
118,102.43,94.79,4
118,102.74,95.03,4
120,103.09,95.27,4
120,103.42,95.52,4
120,103.75,95.77,4
120,104.08,96.01,4
121,104.42,96.26,4
122,104.77,96.52,4
122,105.11,96.77,4
122,105.45,97.02,4
123,105.80,97.28,4
123,106.15,97.54,4
124,106.50,97.81,4
128,106.93,98.11,4
124,107.28,98.37,4
125,107.63,98.63,4
125,107.98,98.90,4
126,108.34,99.17,4
128,108.73,99.46,4
128,109.12,99.74,4
126,109.45,100.00,4
128,109.82,100.28,4
129,110.21,100.57,4
129,110.58,100.86,4
129,110.95,101.14,4
131,111.35,101.44,4
131,111.75,101.73,4
133,112.17,102.04,4
133,112.59,102.35,4
132,112.98,102.65,4
133,113.38,102.95,4
135,113.81,103.27,4
135,114.23,103.59,4
135,114.65,103.90,4
136,115.08,104.23,4
135,115.47,104.53,4
137,115.90,104.86,4
139,116.37,105.20,4
140,116.84,105.55,4
139,117.28,105.88,4
140,117.74,106.22,4
141,118.20,106.57,4
141,118.66,106.92,4
139,119.06,107.24,4
141,119.50,107.57,4
141,119.93,107.91,4
141,120.35,108.24,4
141,120.77,108.57,4
141,121.17,108.89,4
140,121.55,109.20,4
141,121.94,109.52,4
140,122.30,109.82,4
139,122.63,110.12,4
139,122.96,110.41,4
139,123.28,110.69,4
140,123.62,110.98,4
140,123.94,111.27,4
140,124.26,111.56,4
140,124.58,111.85,4
141,124.91,112.14,4
139,125.19,112.41,4
141,125.51,112.69,4
140,125.80,112.97,4
140,126.08,113.24,4
140,126.36,113.50,4
141,126.65,113.78,4
140,126.92,114.04,4
141,127.20,114.31,4
141,127.48,114.58,4
141,127.75,114.84,4
141,128.01,115.10,4
141,128.27,115.36,4
143,128.57,115.64,4
143,128.85,115.91,4
143,129.14,116.18,4
142,129.39,116.44,4
143,129.67,116.71,4
141,129.89,116.95,4
143,130.16,117.21,4
142,130.39,117.46,4
142,130.62,117.70,4
141,130.83,117.94,4
143,131.08,118.19,4
141,131.27,118.42,4
141,131.47,118.64,4
141,131.66,118.86,4
141,131.85,119.09,4
141,132.03,119.31,4
141,132.21,119.52,4
140,132.36,119.73,4
140,132.52,119.93,4
141,132.69,120.14,4
139,132.81,120.33,4
140,132.96,120.53,4
140,133.10,120.72,4
139,133.22,120.90,4
140,133.35,121.09,4
139,133.46,121.27,4
138,133.55,121.44,4
140,133.68,121.63,4
137,133.75,121.78,4
137,133.82,121.93,4
139,133.92,122.10,4
137,133.98,122.25,4
138,134.06,122.41,4
137,134.12,122.56,4
137,134.18,122.70,4
137,134.23,122.84,4
137,134.29,122.98,4
136,134.32,123.11,4
137,134.38,123.25,4
136,134.41,123.38,4
136,134.44,123.51,4
136,134.47,123.63,4
137,134.52,123.77,4
136,134.55,123.89,4
136,134.58,124.01,4
135,134.59,124.12,4
135,134.60,124.23,4
135,134.61,124.34,4
135,134.61,124.44,4
135,134.62,124.55,4
134,134.61,124.64,4
134,134.60,124.74,4
133,134.56,124.82,4
133,134.53,124.90,4
133,134.50,124.98,4
133,134.47,125.06,4
134,134.46,125.15,4
133,134.43,125.23,4
133,134.41,125.31,4
135,134.42,125.40,4
133,134.39,125.48,4
133,134.36,125.55,4
133,134.33,125.63,4
133,134.31,125.70,4
133,134.28,125.78,4
133,134.26,125.85,4
132,134.21,125.91,4
132,134.17,125.97,4
132,134.12,126.03,4
131,134.06,126.08,4
131,134.00,126.13,4
131,133.94,126.18,4
134,133.94,126.26,4
131,133.88,126.30,4
131,133.82,126.35,4
131,133.77,126.40,4
132,133.73,126.45,4
130,133.66,126.49,4
130,133.58,126.52,4
129,133.49,126.55,4
130,133.42,126.58,4
131,133.37,126.63,4
130,133.31,126.66,4
129,133.22,126.68,4
129,133.14,126.71,4
129,133.05,126.73,4
129,132.97,126.75,4
129,132.89,126.78,4
129,132.82,126.80,4
129,132.74,126.82,4
128,132.64,126.83,4
128,132.55,126.84,4
128,132.46,126.86,4
128,132.37,126.87,4
127,132.26,126.87,4
128,132.18,126.88,4
127,132.07,126.88,4
127,131.97,126.88,4
127,131.87,126.88,4
127,131.78,126.88,4
127,131.68,126.89,4
127,131.59,126.89,4
127,131.50,126.89,4
127,131.41,126.89,4
127,131.32,126.89,4
127,131.23,126.89,4
126,131.13,126.88,4
125,131.00,126.86,4
125,130.88,126.84,4
125,130.77,126.83,4
125,130.65,126.81,4
125,130.54,126.79,4
125,130.43,126.77,4
123,130.28,126.73,4
126,130.19,126.73,4
125,130.09,126.71,4
125,129.99,126.69,4
125,129.89,126.68,4
124,129.77,126.65,4
125,129.67,126.63,4
124,129.56,126.61,4
124,129.45,126.58,4
123,129.32,126.54,4
124,129.21,126.52,4
123,129.09,126.48,4
122,128.95,126.44,4
123,128.83,126.40,4
124,128.73,126.38,4
123,128.62,126.35,4
122,128.49,126.30,4
122,128.36,126.26,4
124,128.27,126.24,4
121,128.12,126.19,4
121,127.98,126.13,4
121,127.84,126.08,4
121,127.70,126.03,4
122,127.59,125.99,4
121,127.46,125.94,4
121,127.33,125.89,4
121,127.20,125.84,4
121,127.08,125.79,4
120,126.94,125.74,4
121,126.82,125.69,4
120,126.68,125.63,4
119,126.53,125.57,4
120,126.40,125.51,4
120,126.27,125.45,4
119,126.12,125.39,4
119,125.98,125.33,4
119,125.84,125.26,4
119,125.71,125.20,4
119,125.57,125.14,4
119,125.44,125.08,4
118,125.29,125.01,4
118,125.15,124.94,4
119,125.02,124.88,4
118,124.88,124.81,4
118,124.74,124.74,4
117,124.59,124.66,4
117,124.44,124.59,4
117,124.29,124.51,4
117,124.14,124.44,4
117,124.00,124.36,4
119,123.90,124.31,4
117,123.76,124.23,4
117,123.63,124.16,4
116,123.47,124.08,4
116,123.33,124.00,4
117,123.20,123.93,4
117,123.07,123.86,4
116,122.93,123.78,4
116,122.79,123.70,4
116,122.66,123.63,4
115,122.51,123.54,4
116,122.38,123.46,4
115,122.23,123.38,4
115,122.08,123.30,4
115,121.94,123.21,4
115,121.80,123.13,4
114,121.65,123.04,4
113,121.47,122.94,4
113,121.30,122.84,4
114,121.16,122.75,4
113,121.00,122.65,4
113,120.84,122.56,4
113,120.68,122.46,4
113,120.52,122.37,4
113,120.37,122.27,4
113,120.23,122.18,4
113,120.08,122.09,4
113,119.94,122.00,4
113,119.80,121.91,4
113,119.67,121.82,4
111,119.49,121.71,4
112,119.34,121.61,4
113,119.22,121.53,4
111,119.05,121.42,4
113,118.93,121.34,4
111,118.77,121.24,4
112,118.64,121.14,4
111,118.48,121.04,4
112,118.35,120.95,4
111,118.21,120.85,4
111,118.06,120.75,4
111,117.92,120.66,4
111,117.78,120.56,4
111,117.65,120.46,4
111,117.51,120.37,4
110,117.36,120.26,4
110,117.22,120.16,4
112,117.11,120.08,4
110,116.97,119.98,4
110,116.83,119.88,4
109,116.67,119.77,4
109,116.52,119.66,4
109,116.37,119.56,4
109,116.22,119.45,4
109,116.08,119.35,4
110,115.96,119.25,4
109,115.82,119.15,4
109,115.68,119.05,4
111,115.59,118.97,4
109,115.46,118.87,4
109,115.33,118.77,4
109,115.20,118.67,4
109,115.08,118.58,4
109,114.95,118.48,4
111,114.88,118.41,4
109,114.76,118.31,4
109,114.64,118.22,4
109,114.53,118.13,4
108,114.40,118.02,4
109,114.29,117.93,4
109,114.19,117.85,4
107,114.04,117.74,4
109,113.94,117.65,4
108,113.82,117.55,4
106,113.67,117.44,4
108,113.55,117.34,4
107,113.42,117.24,4
109,113.33,117.16,4
108,113.23,117.07,4
108,113.12,116.97,4
107,113.00,116.88,4
107,112.88,116.78,4
107,112.76,116.68,4
107,112.65,116.58,4
107,112.53,116.49,4
106,112.40,116.38,4
107,112.30,116.29,4
107,112.19,116.19,4
108,112.11,116.11,4
107,112.00,116.02,4
105,111.86,115.91,4
105,111.73,115.80,4
105,111.59,115.69,4
105,111.46,115.59,4
106,111.35,115.49,4
105,111.22,115.39,4
105,111.10,115.28,4
105,110.98,115.18,4
105,110.86,115.08,4
105,110.74,114.98,4
105,110.63,114.88,4
104,110.49,114.77,4
104,110.36,114.66,4
104,110.24,114.55,4
104,110.11,114.45,4
104,109.99,114.34,4
104,109.87,114.24,4
104,109.75,114.14,4
104,109.64,114.04,4
105,109.54,113.95,4
103,109.41,113.84,4
104,109.30,113.74,4
103,109.18,113.63,4
107,109.14,113.57,4
103,109.01,113.46,4
104,108.91,113.36,4
103,108.79,113.26,4
103,108.68,113.16,4
102,108.54,113.05,4
103,108.43,112.95,4
102,108.31,112.84,4
103,108.20,112.74,4
101,108.05,112.62,4
101,107.91,112.51,4
101,107.78,112.39,4
102,107.66,112.29,4
103,107.57,112.19,4
101,107.44,112.08,4
101,107.31,111.97,4
101,107.18,111.86,4
101,107.06,111.75,4
101,106.94,111.64,4
101,106.82,111.54,4
101,106.70,111.43,4
99,106.55,111.31,4
100,106.42,111.20,4
100,106.29,111.08,4
100,106.16,110.97,4
100,106.04,110.86,4
100,105.92,110.75,4
99,105.78,110.64,4
99,105.64,110.52,4
99,105.51,110.41,4
102,105.44,110.32,4
100,105.33,110.22,4
99,105.21,110.11,4
99,105.08,109.99,4
99,104.96,109.88,4
98,104.82,109.77,4
98,104.68,109.65,4
101,104.61,109.56,4
98,104.48,109.45,4
98,104.35,109.33,4
98,104.22,109.22,4
97,104.08,109.10,4
98,103.96,108.99,4
98,103.84,108.88,4
98,103.72,108.77,4
97,103.59,108.65,4
97,103.45,108.53,4
98,103.34,108.43,4
97,103.22,108.31,4
95,103.05,108.18,4
97,102.93,108.07,4
97,102.81,107.96,4
96,102.68,107.84,4
97,102.56,107.73,4
96,102.43,107.61,4
97,102.32,107.51,4
96,102.20,107.39,4
96,102.07,107.28,4
96,101.95,107.16,4
95,101.81,107.04,4
98,101.74,106.95,4
97,101.64,106.85,4
96,101.53,106.74,4
96,101.42,106.64,4
96,101.31,106.53,4
95,101.18,106.42,4
95,101.06,106.30,4
95,100.94,106.19,4
94,100.80,106.07,4
95,100.68,105.96,4
94,100.55,105.84,4
95,100.44,105.73,4
94,100.31,105.61,4
94,100.18,105.49,4
94,100.06,105.38,4
94,99.94,105.27,4
94,99.82,105.15,4
93,99.68,105.03,4
95,99.59,104.93,4
94,99.48,104.82,4
93,99.35,104.70,4
93,99.22,104.59,4
93,99.10,104.47,4
94,99.00,104.37,4
93,98.88,104.25,4
93,98.76,104.14,4
93,98.64,104.03,4
92,98.51,103.91,4
93,98.40,103.80,4
92,98.27,103.68,4
92,98.15,103.56,4
93,98.04,103.46,4
92,97.92,103.34,4
92,97.80,103.23,4
92,97.69,103.12,4
93,97.59,103.02,4
92,97.48,102.91,4
91,97.35,102.79,4
93,97.27,102.69,4
93,97.18,102.59,4
91,97.06,102.48,4
91,96.94,102.36,4
91,96.82,102.25,4
91,96.70,102.14,4
91,96.59,102.02,4
90,96.46,101.90,4
94,96.41,101.83,4
90,96.28,101.71,4
91,96.17,101.60,4
91,96.07,101.49,4
91,95.97,101.39,4
90,95.85,101.28,4
90,95.73,101.16,4
89,95.60,101.04,4
90,95.48,100.93,4
89,95.36,100.81,4
90,95.25,100.70,4
89,95.12,100.59,4
89,95.00,100.47,4
89,94.88,100.36,4
90,94.78,100.25,4
89,94.67,100.14,4
89,94.55,100.03,4
90,94.46,99.93,4
91,94.39,99.84,4
89,94.29,99.73,4
89,94.18,99.62,4
88,94.06,99.51,4
91,94.00,99.42,4
88,93.88,99.31,4
88,93.76,99.19,4
88,93.64,99.08,4
88,93.53,98.97,4
88,93.42,98.86,4
88,93.31,98.75,4
88,93.20,98.65,4
88,93.10,98.54,4
88,93.00,98.43,4
88,92.90,98.33,4
87,92.78,98.22,4
88,92.69,98.11,4
87,92.57,98.00,4
86,92.44,97.88,4
87,92.33,97.77,4
88,92.24,97.68,4
87,92.14,97.57,4
86,92.02,97.45,4
88,91.94,97.36,4
85,91.80,97.24,4
86,91.68,97.12,4
86,91.57,97.01,4
87,91.48,96.91,4
86,91.37,96.80,4
86,91.26,96.69,4
86,91.15,96.59,4
88,91.09,96.50,4
86,90.99,96.40,4
86,90.89,96.29,4
86,90.79,96.19,4
87,90.72,96.10,4
88,90.66,96.02,4
86,90.57,95.92,4
86,90.48,95.82,4
86,90.39,95.72,4
86,90.30,95.62,4
86,90.21,95.53,4
87,90.15,95.44,4
87,90.09,95.36,4
86,90.01,95.26,4
86,89.93,95.17,4
86,89.85,95.08,4
86,89.77,94.99,4
85,89.67,94.89,4
86,89.60,94.80,4
86,89.53,94.71,4
85,89.44,94.61,4
84,89.33,94.51,4
86,89.26,94.42,4
84,89.16,94.32,4
85,89.07,94.23,4
85,88.99,94.13,4
84,88.89,94.03,4
85,88.82,93.94,4
84,88.72,93.84,4
85,88.64,93.75,4
85,88.57,93.67,4
84,88.48,93.57,4
84,88.39,93.47,4
84,88.30,93.38,4
84,88.22,93.29,4
84,88.13,93.19,4
84,88.05,93.10,4
86,88.01,93.03,4
84,87.93,92.94,4
84,87.85,92.85,4
85,87.79,92.77,4
87,87.78,92.71,4
84,87.70,92.63,4
84,87.63,92.54,4
83,87.54,92.44,4
86,87.50,92.38,4
82,87.39,92.28,4
82,87.29,92.17,4
83,87.20,92.08,4
86,87.18,92.02,4
84,87.11,91.94,4
82,87.01,91.84,4
82,86.91,91.74,4
84,86.85,91.67,4
82,86.76,91.57,4
82,86.66,91.47,4
82,86.57,91.38,4
79,86.42,91.25,4
81,86.31,91.15,4
82,86.22,91.06,4
82,86.14,90.97,4
81,86.03,90.87,4
81,85.93,90.77,4
81,85.83,90.67,4
82,85.76,90.59,4
80,85.64,90.48,4
81,85.55,90.39,4
80,85.44,90.28,4
80,85.33,90.18,4
81,85.24,90.09,4
81,85.16,90.00,4
81,85.08,89.91,4
81,84.99,89.82,4
80,84.89,89.72,4
80,84.80,89.62,4
80,84.70,89.53,4
81,84.63,89.44,4
82,84.57,89.37,4
80,84.48,89.27,4
80,84.39,89.18,4
79,84.28,89.08,4
81,84.22,89.00,4
80,84.13,88.91,4
80,84.05,88.82,4
80,83.97,88.73,4
80,83.89,88.64,4
80,83.81,88.56,4
80,83.74,88.47,4
80,83.66,88.39,4
80,83.59,88.30,4
80,83.52,88.22,4
78,83.41,88.12,4
79,83.32,88.03,4
80,83.25,87.95,4
78,83.15,87.85,4
78,83.04,87.75,4
80,82.98,87.67,4
80,82.92,87.59,4
80,82.87,87.52,4
80,82.81,87.44,4
80,82.75,87.37,4
79,82.68,87.28,4
78,82.58,87.19,4
79,82.51,87.11,4
79,82.44,87.03,4
80,82.39,86.96,4
80,82.35,86.89,4
79,82.28,86.81,4
79,82.21,86.73,4
80,82.17,86.66,4
78,82.09,86.58,4
79,82.02,86.50,4
79,81.96,86.43,4
78,81.88,86.34,4
79,81.83,86.27,4
78,81.75,86.19,4
79,81.69,86.12,4
79,81.64,86.04,4
78,81.57,85.96,4
79,81.52,85.89,4
79,81.47,85.82,4
78,81.40,85.75,4
79,81.35,85.68,4
78,81.28,85.60,4
79,81.24,85.54,4
79,81.19,85.47,4
79,81.15,85.41,4
78,81.08,85.33,4
79,81.04,85.27,4
82,81.06,85.24,4
78,81.00,85.16,4
78,80.94,85.09,4
78,80.88,85.02,4
78,80.82,84.95,4
78,80.77,84.88,4
78,80.71,84.81,4
79,80.68,84.75,4
78,80.62,84.69,4
79,80.59,84.63,4
78,80.54,84.56,4
79,80.51,84.51,4
79,80.48,84.45,4
80,80.47,84.41,4
79,80.44,84.35,4
79,80.41,84.30,4
80,80.40,84.26,4
79,80.38,84.21,4
79,80.35,84.15,4
79,80.32,84.10,4
79,80.29,84.05,4
79,80.27,84.00,4
78,80.22,83.94,4
78,80.18,83.88,4
81,80.20,83.85,4
78,80.15,83.79,4
78,80.11,83.74,4
81,80.13,83.71,4
79,80.10,83.66,4
79,80.08,83.61,4
79,80.06,83.57,4
78,80.02,83.51,4
79,80.00,83.47,4
79,79.98,83.42,4
78,79.94,83.37,4
85,80.04,83.39,4
80,80.04,83.35,4
80,80.04,83.32,4
80,80.04,83.28,4
80,80.04,83.25,4
80,80.04,83.22,4
80,80.04,83.19,4
80,80.03,83.16,4
80,80.03,83.12,4
80,80.03,83.09,4
80,80.03,83.06,4
80,80.03,83.03,4
81,80.05,83.01,4
81,80.07,82.99,4
80,80.07,82.96,4
78,80.03,82.91,4
80,80.03,82.88,4
80,80.03,82.85,4
80,80.03,82.82,4
80,80.03,82.80,4
80,80.02,82.77,4
80,80.02,82.74,4
80,80.02,82.71,4
78,79.98,82.67,4
79,79.96,82.63,4
79,79.94,82.59,4
80,79.95,82.57,4
79,79.93,82.53,4
79,79.91,82.50,4
79,79.89,82.46,4
80,79.89,82.44,4
79,79.87,82.40,4
79,79.86,82.37,4
79,79.84,82.33,4
78,79.80,82.29,4
79,79.79,82.26,4
79,79.77,82.23,4
78,79.74,82.18,4
80,79.74,82.16,4
78,79.71,82.12,4
79,79.69,82.09,4
78,79.66,82.05,4
78,79.63,82.01,4
78,79.59,81.97,4
79,79.58,81.94,4
78,79.55,81.90,4
78,79.52,81.86,4
78,79.49,81.82,4
79,79.48,81.79,4
78,79.45,81.75,4
78,79.42,81.72,4
78,79.39,81.68,4
79,79.38,81.65,4
78,79.36,81.62,4
79,79.35,81.59,4
79,79.34,81.56,4
79,79.33,81.54,4
78,79.31,81.50,4
79,79.30,81.48,4
78,79.28,81.44,4
78,79.25,81.41,4
80,79.27,81.40,4
78,79.24,81.36,4
78,79.22,81.33,4
78,79.19,81.29,4
79,79.19,81.27,4
78,79.16,81.24,4
78,79.14,81.21,4
79,79.14,81.18,4
81,79.17,81.18,4
78,79.15,81.15,4
78,79.13,81.12,4
78,79.11,81.09,4
77,79.06,81.05,4
78,79.04,81.02,4
82,79.10,81.03,4
80,79.12,81.02,4
79,79.12,81.00,4
78,79.09,80.97,4
78,79.07,80.94,4
77,79.03,80.90,4
79,79.03,80.88,4
78,79.01,80.85,4
78,78.99,80.82,4
77,78.95,80.78,4
79,78.95,80.76,4
78,78.93,80.74,4
78,78.91,80.71,4
77,78.87,80.67,4
78,78.86,80.65,4
78,78.84,80.62,4
78,78.82,80.59,4
77,78.79,80.56,4
77,78.75,80.52,4
78,78.74,80.50,4
78,78.72,80.47,4
78,78.71,80.45,4
78,78.69,80.42,4
78,78.68,80.40,4
78,78.67,80.37,4
78,78.65,80.35,4
78,78.64,80.33,4
78,78.63,80.30,4
78,78.61,80.28,4
77,78.58,80.25,4
78,78.57,80.23,4
76,78.52,80.18,4
80,78.55,80.18,4
77,78.52,80.15,4
77,78.49,80.12,4
77,78.46,80.09,4
76,78.41,80.05,4
77,78.38,80.02,4
78,78.37,80.00,4
76,78.32,79.96,4
76,78.28,79.92,4
78,78.27,79.90,4
77,78.25,79.87,4
77,78.22,79.84,4
79,78.24,79.83,4
78,78.23,79.81,4
77,78.21,79.78,4
78,78.20,79.77,4
76,78.16,79.73,4
77,78.14,79.70,4
78,78.13,79.68,4
78,78.13,79.67,4
78,78.13,79.65,4
78,78.13,79.63,4
78,78.12,79.62,4
78,78.12,79.60,4
78,78.12,79.59,4
77,78.10,79.56,4
78,78.09,79.54,4
78,78.09,79.53,4
78,78.09,79.51,4
78,78.09,79.50,4
80,78.13,79.50,4
80,78.16,79.51,4
78,78.16,79.49,4
79,78.18,79.49,4
78,78.17,79.47,4
77,78.15,79.45,4
78,78.15,79.43,4
78,78.15,79.42,4
78,78.14,79.41,4
79,78.16,79.40,4
78,78.16,79.39,4
79,78.17,79.38,4
78,78.17,79.37,4
78,78.17,79.36,4
78,78.16,79.34,4
78,78.16,79.33,4
78,78.16,79.32,4
79,78.17,79.31,4
78,78.17,79.30,4
78,78.17,79.29,4
77,78.14,79.26,4
78,78.14,79.25,4
78,78.14,79.24,4
78,78.13,79.23,4
78,78.13,79.21,4
78,78.13,79.20,4
78,78.13,79.19,4
80,78.16,79.20,4
77,78.14,79.18,4
79,78.16,79.17,4
78,78.16,79.16,4
78,78.15,79.15,4
77,78.13,79.13,4
78,78.13,79.12,4
78,78.12,79.11,4
79,78.14,79.11,4
80,78.18,79.11,4
80,78.21,79.12,4
80,78.25,79.13,4
81,78.31,79.15,4
80,78.34,79.16,4
80,78.37,79.17,4
80,78.41,79.18,4
81,78.46,79.19,4
80,78.49,79.20,4
80,78.52,79.21,4
80,78.55,79.22,4
80,78.58,79.23,4
82,78.65,79.25,4
80,78.67,79.26,4
80,78.70,79.27,4
81,78.75,79.29,4
80,78.77,79.29,4
80,78.79,79.30,4
80,78.82,79.31,4
82,78.88,79.33,4
81,78.92,79.35,4
82,78.99,79.38,4
80,79.01,79.38,4
81,79.05,79.40,4
80,79.07,79.41,4
84,79.16,79.45,4
80,79.18,79.46,4
80,79.20,79.46,4
80,79.21,79.47,4
80,79.23,79.47,4
81,79.26,79.49,4
82,79.32,79.51,4
84,79.41,79.56,4
80,79.42,79.56,4
80,79.44,79.57,4
81,79.47,79.58,4
82,79.52,79.61,4
80,79.53,79.61,4
82,79.58,79.63,4
81,79.61,79.65,4
80,79.61,79.65,4
80,79.62,79.65,4
82,79.67,79.68,4
81,79.70,79.69,4
81,79.72,79.70,4
80,79.73,79.71,4
79,79.71,79.70,4
82,79.76,79.72,4
82,79.80,79.75,4
82,79.85,79.77,4
82,79.89,79.79,4
82,79.93,79.81,4
82,79.97,79.83,4
82,80.01,79.86,4
82,80.05,79.88,4
81,80.07,79.89,4
82,80.11,79.91,4
86,80.23,79.97,4
82,80.26,79.99,4
82,80.30,80.01,4
82,80.33,80.03,4
81,80.35,80.04,4
82,80.38,80.06,4
84,80.45,80.10,4
82,80.48,80.12,4
82,80.51,80.14,4
82,80.54,80.16,4
84,80.61,80.19,4
84,80.68,80.23,4
84,80.75,80.27,4
83,80.79,80.30,4
84,80.86,80.33,4
86,80.96,80.39,4
84,81.02,80.43,4
84,81.08,80.46,4
83,81.12,80.49,4
83,81.16,80.51,4
84,81.21,80.55,4
84,81.27,80.58,4
83,81.30,80.61,4
84,81.36,80.64,4
84,81.41,80.67,4
84,81.46,80.71,4
83,81.49,80.73,4
84,81.54,80.76,4
84,81.59,80.80,4
84,81.64,80.83,4
86,81.73,80.88,4
85,81.79,80.92,4
85,81.86,80.96,4
85,81.92,81.00,4
85,81.98,81.04,4
87,82.08,81.10,4
84,82.12,81.13,4
84,82.16,81.16,4
85,82.21,81.20,4
85,82.27,81.24,4
84,82.30,81.26,4
84,82.34,81.29,4
86,82.41,81.34,4
84,82.44,81.36,4
85,82.49,81.40,4
84,82.52,81.43,4
84,82.55,81.45,4
85,82.60,81.49,4
86,82.67,81.53,4
86,82.74,81.58,4
86,82.80,81.62,4
86,82.87,81.67,4
86,82.93,81.71,4
86,82.99,81.75,4
87,83.07,81.80,4
87,83.15,81.86,4
87,83.23,81.91,4
87,83.30,81.96,4
88,83.40,82.02,4
88,83.49,82.08,4
92,83.66,82.18,4
90,83.79,82.26,4
89,83.89,82.32,4
90,84.01,82.40,4
90,84.13,82.48,4
88,84.21,82.53,4
90,84.32,82.61,4
89,84.42,82.67,4
90,84.53,82.74,4
90,84.64,82.82,4
91,84.77,82.90,4
90,84.87,82.97,4
90,84.97,83.04,4
92,85.11,83.13,4
94,85.29,83.24,4
94,85.47,83.35,4
94,85.64,83.45,4
94,85.80,83.56,4
95,85.99,83.67,4
94,86.15,83.78,4
94,86.31,83.88,4
96,86.50,84.00,4
95,86.67,84.11,4
96,86.86,84.23,4
98,87.08,84.37,4
98,87.30,84.50,4
98,87.51,84.64,4
98,87.72,84.77,4
102,88.01,84.94,4
100,88.25,85.09,4
99,88.46,85.23,4
100,88.69,85.38,4
101,88.94,85.54,4
104,89.24,85.72,4
101,89.47,85.87,4
101,89.71,86.02,4
101,89.93,86.17,4
101,90.15,86.32,4
101,90.37,86.47,4
101,90.58,86.62,4
103,90.83,86.78,4
102,91.05,86.93,4
103,91.29,87.09,4
105,91.57,87.27,4
106,91.86,87.46,4
104,92.10,87.62,4
103,92.32,87.78,4
105,92.57,87.95,4
104,92.80,88.11,4
105,93.04,88.28,4
105,93.28,88.45,4
105,93.52,88.61,4
105,93.75,88.78,4
105,93.97,88.94,4
104,94.17,89.09,4
105,94.39,89.25,4
105,94.60,89.41,4
108,94.87,89.59,4
106,95.09,89.76,4
105,95.29,89.91,4
105,95.48,90.06,4
107,95.71,90.23,4
108,95.96,90.41,4
110,96.24,90.60,4
111,96.54,90.81,4
111,96.82,91.01,4
116,97.21,91.26,4
116,97.58,91.50,4
118,97.99,91.77,4
117,98.37,92.02,4
115,98.71,92.25,4
117,99.07,92.50,4
119,99.47,92.76,4
119,99.86,93.03,4
119,100.24,93.29,4
120,100.64,93.55,4
120,101.03,93.82,4
120,101.40,94.08,4
121,101.80,94.35,4
121,102.18,94.62,4
121,102.56,94.88,4
122,102.95,95.15,4
122,103.33,95.42,4
122,103.70,95.69,4
124,104.11,95.97,4
122,104.46,96.23,4
123,104.84,96.50,4
122,105.18,96.75,4
123,105.53,97.01,4
122,105.86,97.26,4
123,106.21,97.52,4
123,106.54,97.78,4
123,106.87,98.03,4
124,107.21,98.29,4
123,107.53,98.53,4
122,107.82,98.77,4
123,108.12,99.01,4
123,108.42,99.25,4
123,108.71,99.49,4
122,108.98,99.71,4
126,109.32,99.98,4
124,109.61,100.22,4
124,109.90,100.46,4
126,110.22,100.71,4
125,110.52,100.95,4
129,110.89,101.23,4
127,111.21,101.49,4
127,111.53,101.75,4
127,111.83,102.00,4
127,112.14,102.25,4
127,112.44,102.50,4
128,112.75,102.75,4
128,113.05,103.00,4
128,113.35,103.25,4
128,113.64,103.50,4
127,113.91,103.74,4
127,114.17,103.97,4
127,114.43,104.20,4
128,114.70,104.44,4
129,114.99,104.68,4
128,115.25,104.92,4
128,115.50,105.15,4
131,115.81,105.41,4
130,116.10,105.65,4
131,116.39,105.91,4
132,116.71,106.17,4
131,116.99,106.41,4
133,117.31,106.68,4
131,117.59,106.92,4
133,117.89,107.18,4
133,118.20,107.44,4
133,118.49,107.70,4
133,118.78,107.95,4
133,119.07,108.20,4
133,119.35,108.45,4
133,119.62,108.70,4
133,119.89,108.94,4
135,120.19,109.20,4
133,120.44,109.44,4
134,120.72,109.68,4
133,120.96,109.92,4
133,121.20,110.15,4
133,121.44,110.37,4
135,121.71,110.62,4
135,121.98,110.86,4
135,122.24,111.11,4
135,122.49,111.35,4
135,122.74,111.58,4
135,122.99,111.82,4
134,123.21,112.04,4
133,123.40,112.25,4
135,123.63,112.47,4
135,123.86,112.70,4
133,124.04,112.90,4
135,124.26,113.12,4
133,124.44,113.32,4
133,124.61,113.52,4
133,124.78,113.71,4
133,124.94,113.91,4
133,125.10,114.10,4
133,125.26,114.29,4
132,125.40,114.46,4
131,125.51,114.63,4
132,125.64,114.80,4
131,125.74,114.97,4
132,125.87,115.14,4
131,125.97,115.29,4
132,126.09,115.46,4
131,126.19,115.62,4
133,126.33,115.79,4
131,126.42,115.94,4
134,126.57,116.12,4
132,126.68,116.28,4
132,126.79,116.44,4
132,126.89,116.59,4
132,126.99,116.75,4
132,127.09,116.90,4
132,127.19,117.05,4
132,127.29,117.20,4
131,127.36,117.34,4
133,127.48,117.50,4
131,127.55,117.63,4
132,127.63,117.78,4
132,127.72,117.92,4
132,127.81,118.06,4
131,127.87,118.19,4
132,127.95,118.33,4
131,128.02,118.45,4
133,128.11,118.60,4
131,128.17,118.72,4
131,128.23,118.84,4
131,128.28,118.97,4
131,128.34,119.09,4
131,128.39,119.21,4
131,128.44,119.32,4
131,128.50,119.44,4
131,128.55,119.56,4
131,128.59,119.67,4
131,128.64,119.78,4
131,128.69,119.90,4
131,128.74,120.01,4
131,128.78,120.12,4
130,128.81,120.22,4
132,128.87,120.33,4
129,128.87,120.42,4
129,128.87,120.51,4
129,128.88,120.59,4
130,128.90,120.69,4
129,128.90,120.77,4
130,128.92,120.86,4
129,128.93,120.94,4
129,128.93,121.02,4
129,128.93,121.10,4
129,128.93,121.18,4
130,128.95,121.27,4
129,128.95,121.35,4
129,128.95,121.42,4
129,128.95,121.50,4
129,128.95,121.57,4
129,128.96,121.65,4
129,128.96,121.72,4
128,128.94,121.78,4
129,128.94,121.86,4
129,128.94,121.93,4
128,128.92,121.99,4
128,128.90,122.05,4
128,128.88,122.11,4
127,128.85,122.16,4
127,128.81,122.21,4
127,128.77,122.25,4
126,128.72,122.29,4
127,128.68,122.34,4
127,128.65,122.39,4
127,128.62,122.43,4
126,128.56,122.47,4
125,128.49,122.49,4
125,128.42,122.52,4
125,128.36,122.54,4
126,128.31,122.58,4
125,128.24,122.60,4
125,128.18,122.63,4
127,128.15,122.67,4
125,128.09,122.69,4
125,128.03,122.72,4
125,127.97,122.74,4
125,127.91,122.76,4
125,127.85,122.78,4
124,127.77,122.80,4
125,127.72,122.82,4
124,127.64,122.83,4
124,127.57,122.84,4
123,127.48,122.84,4
125,127.43,122.86,4
123,127.34,122.87,4
126,127.31,122.90,4
123,127.23,122.90,4
122,127.12,122.89,4
123,127.04,122.89,4
124,126.98,122.90,4
122,126.88,122.89,4
123,126.80,122.89,4
122,126.71,122.88,4
121,126.59,122.87,4
122,126.50,122.86,4
122,126.41,122.85,4
121,126.30,122.83,4
121,126.20,122.81,4
121,126.09,122.79,4
121,125.99,122.78,4
121,125.89,122.76,4
120,125.77,122.73,4
120,125.66,122.70,4
120,125.54,122.68,4
121,125.45,122.66,4
120,125.34,122.63,4
120,125.24,122.61,4
119,125.11,122.57,4
119,124.99,122.53,4
117,124.83,122.48,4
119,124.71,122.44,4
119,124.60,122.41,4
118,124.47,122.37,4
118,124.34,122.32,4
118,124.21,122.28,4
118,124.09,122.24,4
118,123.97,122.19,4
119,123.87,122.16,4
118,123.75,122.12,4
118,123.63,122.08,4
118,123.52,122.04,4
119,123.43,122.01,4
117,123.30,121.96,4
119,123.22,121.93,4
117,123.09,121.88,4
117,122.97,121.83,4
117,122.85,121.78,4
118,122.75,121.74,4
116,122.62,121.69,4
116,122.49,121.63,4
116,122.36,121.57,4
115,122.21,121.51,4
116,122.09,121.45,4
115,121.94,121.39,4
116,121.82,121.33,4
115,121.69,121.27,4
116,121.57,121.22,4
115,121.44,121.16,4
115,121.31,121.09,4
115,121.19,121.03,4
115,121.06,120.97,4
113,120.90,120.89,4
114,120.76,120.82,4
115,120.65,120.77,4
115,120.54,120.71,4
113,120.39,120.63,4
113,120.24,120.55,4
113,120.09,120.48,4
113,119.95,120.40,4
114,119.83,120.34,4
113,119.70,120.27,4
113,119.56,120.19,4
113,119.43,120.12,4
113,119.30,120.05,4
113,119.18,119.98,4
113,119.05,119.91,4
113,118.93,119.84,4
112,118.79,119.76,4
113,118.68,119.70,4
113,118.56,119.63,4
112,118.43,119.55,4
113,118.32,119.49,4
111,118.18,119.40,4
111,118.03,119.32,4
111,117.89,119.23,4
111,117.76,119.15,4
111,117.62,119.07,4
111,117.49,118.99,4
111,117.36,118.91,4
110,117.21,118.82,4
110,117.07,118.73,4
111,116.95,118.66,4
111,116.83,118.58,4
109,116.67,118.48,4
110,116.54,118.40,4
111,116.43,118.32,4
111,116.32,118.25,4
109,116.17,118.16,4
110,116.05,118.08,4
109,115.91,117.99,4
109,115.77,117.90,4
109,115.63,117.81,4
109,115.50,117.72,4
110,115.39,117.64,4
109,115.26,117.56,4
109,115.14,117.47,4
109,115.01,117.39,4
109,114.89,117.30,4
109,114.78,117.22,4
109,114.66,117.14,4
109,114.55,117.06,4
109,114.44,116.97,4
107,114.29,116.87,4
108,114.16,116.79,4
109,114.06,116.71,4
109,113.96,116.63,4
109,113.86,116.55,4
108,113.74,116.47,4
108,113.63,116.38,4
108,113.51,116.30,4
109,113.42,116.23,4
108,113.32,116.15,4
108,113.21,116.06,4
107,113.08,115.97,4
108,112.98,115.89,4
106,112.84,115.79,4
107,112.73,115.71,4
107,112.61,115.62,4
107,112.50,115.53,4
107,112.39,115.45,4
108,112.30,115.37,4
107,112.20,115.29,4
107,112.09,115.21,4
105,111.95,115.11,4
107,111.85,115.02,4
107,111.75,114.94,4
106,111.64,114.85,4
107,111.55,114.78,4
106,111.44,114.69,4
107,111.35,114.61,4
105,111.22,114.52,4
105,111.10,114.42,4
106,110.99,114.34,4
106,110.89,114.25,4
106,110.80,114.17,4
106,110.70,114.09,4
106,110.61,114.01,4
107,110.53,113.94,4
105,110.42,113.85,4
105,110.31,113.76,4
105,110.21,113.67,4
107,110.14,113.61,4
105,110.04,113.52,4
105,109.94,113.43,4
109,109.92,113.39,4
105,109.82,113.31,4
105,109.73,113.22,4
105,109.63,113.14,4
106,109.56,113.07,4
106,109.49,113.00,4
106,109.42,112.93,4
105,109.33,112.85,4
106,109.26,112.78,4
105,109.18,112.70,4
104,109.07,112.62,4
105,108.99,112.54,4
105,108.91,112.46,4
105,108.84,112.39,4
106,108.78,112.33,4
105,108.70,112.25,4
102,108.57,112.15,4
105,108.50,112.08,4
105,108.43,112.01,4
105,108.36,111.94,4
105,108.29,111.87,4
105,108.23,111.80,4
105,108.16,111.73,4
105,108.10,111.66,4
104,108.02,111.59,4
105,107.96,111.52,4
105,107.90,111.46,4
104,107.82,111.38,4
105,107.76,111.32,4
105,107.71,111.25,4
104,107.63,111.18,4
105,107.58,111.12,4
104,107.51,111.05,4
103,107.42,110.97,4
104,107.35,110.90,4
104,107.28,110.83,4
104,107.22,110.76,4
104,107.15,110.69,4
103,107.07,110.62,4
103,106.99,110.54,4
104,106.93,110.48,4
103,106.85,110.40,4
103,106.77,110.33,4
103,106.70,110.25,4
103,106.62,110.18,4
103,106.55,110.11,4
103,106.48,110.04,4
102,106.39,109.96,4
102,106.30,109.88,4
101,106.20,109.79,4
102,106.11,109.71,4
103,106.05,109.64,4
102,105.97,109.57,4
102,105.89,109.49,4
101,105.79,109.41,4
104,105.76,109.35,4
101,105.66,109.27,4
101,105.57,109.19,4
101,105.48,109.11,4
101,105.39,109.02,4
101,105.30,108.94,4
100,105.19,108.85,4
100,105.09,108.77,4
101,105.01,108.69,4
100,104.91,108.60,4
100,104.81,108.52,4
100,104.71,108.43,4
100,104.62,108.35,4
100,104.53,108.26,4
101,104.46,108.19,4
100,104.37,108.11,4
100,104.28,108.03,4
100,104.19,107.95,4
99,104.09,107.86,4
98,103.97,107.76,4
98,103.85,107.66,4
100,103.77,107.58,4
98,103.66,107.49,4
98,103.54,107.39,4
98,103.43,107.30,4
98,103.32,107.21,4
99,103.24,107.12,4
98,103.13,107.03,4
98,103.03,106.94,4
98,102.93,106.85,4
98,102.83,106.77,4
98,102.73,106.68,4
97,102.62,106.58,4
98,102.53,106.49,4
97,102.42,106.40,4
98,102.33,106.32,4
95,102.18,106.20,4
98,102.10,106.12,4
97,102.00,106.03,4
96,101.88,105.93,4
97,101.78,105.84,4
96,101.66,105.74,4
96,101.55,105.64,4
96,101.44,105.55,4
96,101.33,105.45,4
95,101.20,105.35,4
96,101.10,105.25,4
96,101.00,105.16,4
96,100.90,105.07,4
96,100.80,104.98,4
95,100.68,104.88,4
96,100.59,104.79,4
95,100.48,104.69,4
95,100.37,104.60,4
96,100.28,104.51,4
95,100.18,104.41,4
96,100.09,104.33,4
94,99.97,104.23,4
95,99.87,104.14,4
96,99.79,104.05,4
94,99.68,103.95,4
95,99.58,103.86,4
95,99.49,103.78,4
95,99.40,103.69,4
95,99.31,103.60,4
96,99.25,103.52,4
95,99.16,103.44,4
95,99.08,103.35,4
95,99.00,103.27,4
95,98.92,103.19,4
95,98.84,103.11,4
94,98.74,103.02,4
94,98.65,102.93,4
96,98.60,102.86,4
95,98.52,102.78,4
94,98.43,102.69,4
95,98.36,102.61,4
94,98.28,102.53,4
94,98.19,102.44,4
94,98.11,102.36,4
93,98.01,102.26,4
93,97.91,102.17,4
95,97.85,102.10,4
93,97.75,102.01,4
94,97.68,101.93,4
94,97.60,101.85,4
94,97.53,101.77,4
93,97.44,101.68,4
95,97.39,101.62,4
94,97.32,101.54,4
95,97.28,101.47,4
95,97.23,101.41,4
96,97.21,101.36,4
94,97.14,101.28,4
94,97.08,101.21,4
93,97.00,101.13,4
93,96.92,101.05,4
95,96.88,100.99,4
94,96.82,100.92,4
94,96.77,100.85,4
94,96.71,100.78,4
95,96.68,100.72,4
94,96.62,100.65,4
94,96.57,100.59,4
93,96.50,100.51,4
93,96.43,100.44,4
93,96.36,100.36,4
94,96.31,100.30,4
93,96.25,100.22,4
93,96.18,100.15,4
94,96.14,100.09,4
93,96.08,100.02,4
93,96.01,99.95,4
93,95.95,99.88,4
92,95.87,99.80,4
92,95.80,99.72,4
92,95.72,99.65,4
92,95.65,99.57,4
91,95.55,99.48,4
93,95.50,99.42,4
92,95.43,99.34,4
92,95.36,99.27,4
92,95.30,99.20,4
92,95.23,99.13,4
92,95.17,99.06,4
91,95.08,98.97,4
92,95.02,98.91,4
90,94.92,98.82,4
91,94.84,98.74,4
91,94.77,98.66,4
90,94.67,98.57,4
91,94.60,98.50,4
90,94.50,98.41,4
90,94.41,98.33,4
90,94.33,98.25,4
90,94.24,98.16,4
89,94.13,98.07,4
90,94.05,97.99,4
91,93.99,97.92,4
90,93.91,97.84,4
90,93.83,97.76,4
90,93.76,97.69,4
96,93.80,97.67,4
89,93.71,97.58,4
89,93.61,97.50,4
88,93.50,97.40,4
89,93.41,97.32,4
89,93.32,97.23,4
89,93.23,97.15,4
89,93.15,97.07,4
90,93.09,97.00,4
88,92.99,96.91,4
88,92.89,96.82,4
89,92.81,96.74,4
90,92.75,96.68,4
88,92.66,96.59,4
88,92.56,96.50,4
89,92.49,96.43,4
88,92.40,96.34,4
88,92.31,96.26,4
88,92.23,96.18,4
88,92.14,96.10,4
87,92.04,96.00,4
88,91.96,95.92,4
88,91.88,95.85,4
88,91.80,95.77,4
88,91.73,95.69,4
87,91.63,95.60,4
86,91.52,95.51,4
87,91.43,95.42,4
88,91.36,95.35,4
86,91.25,95.25,4
86,91.15,95.16,4
87,91.07,95.08,4
87,90.98,95.00,4
86,90.88,94.91,4
88,90.83,94.84,4
86,90.73,94.75,4
87,90.66,94.67,4
86,90.56,94.59,4
86,90.47,94.50,4
86,90.38,94.42,4
86,90.29,94.33,4
86,90.21,94.25,4
86,90.12,94.17,4
87,90.06,94.09,4
87,90.00,94.02,4
86,89.92,93.94,4
86,89.84,93.86,4
86,89.77,93.78,4
86,89.69,93.71,4
86,89.62,93.63,4
86,89.54,93.55,4
87,89.49,93.49,4
86,89.42,93.41,4
86,89.35,93.34,4
86,89.29,93.27,4
86,89.22,93.19,4
85,89.14,93.11,4
86,89.07,93.04,4
86,89.01,92.97,4
85,88.93,92.89,4
84,88.83,92.80,4
86,88.78,92.73,4
84,88.68,92.65,4
85,88.61,92.57,4
84,88.52,92.48,4
86,88.47,92.42,4
86,88.42,92.35,4
85,88.35,92.28,4
84,88.26,92.20,4
84,88.18,92.12,4
84,88.09,92.04,4
84,88.01,91.95,4
84,87.93,91.88,4
85,87.87,91.81,4
84,87.79,91.73,4
84,87.72,91.65,4
84,87.64,91.57,4
84,87.57,91.50,4
84,87.50,91.42,4
84,87.43,91.35,4
83,87.34,91.27,4
84,87.27,91.19,4
83,87.19,91.11,4
82,87.09,91.02,4
83,87.00,90.94,4
84,86.94,90.87,4
82,86.84,90.78,4
83,86.77,90.70,4
84,86.71,90.64,4
82,86.62,90.55,4
82,86.53,90.47,4
84,86.48,90.40,4
84,86.43,90.34,4
84,86.38,90.27,4
82,86.29,90.19,4
84,86.24,90.13,4
81,86.14,90.04,4
82,86.06,89.96,4
82,85.98,89.88,4
86,85.98,89.84,4
81,85.88,89.75,4
82,85.80,89.67,4
82,85.72,89.60,4
84,85.69,89.54,4
82,85.61,89.46,4
82,85.54,89.39,4
82,85.47,89.32,4
85,85.46,89.27,4
83,85.41,89.21,4
82,85.34,89.14,4
82,85.28,89.07,4
81,85.19,88.99,4
82,85.13,88.92,4
82,85.07,88.85,4
82,85.00,88.78,4
83,84.96,88.72,4
82,84.90,88.65,4
82,84.85,88.59,4
82,84.79,88.52,4
81,84.71,88.45,4
81,84.64,88.37,4
81,84.57,88.30,4
80,84.48,88.21,4
79,84.37,88.12,4
81,84.30,88.05,4
82,84.25,87.99,4
82,84.21,87.93,4
81,84.14,87.86,4
81,84.08,87.79,4
81,84.02,87.73,4
80,83.94,87.65,4
80,83.86,87.57,4
81,83.80,87.51,4
80,83.73,87.43,4
80,83.65,87.36,4
79,83.56,87.27,4
81,83.51,87.21,4
80,83.44,87.14,4
80,83.37,87.07,4
80,83.30,87.00,4
80,83.24,86.93,4
80,83.17,86.86,4
80,83.11,86.79,4
80,83.05,86.72,4
80,82.98,86.65,4
80,82.92,86.59,4
79,82.85,86.51,4
81,82.81,86.46,4
80,82.75,86.39,4
80,82.70,86.33,4
80,82.64,86.26,4
79,82.57,86.19,4
80,82.52,86.13,4
80,82.47,86.07,4
79,82.40,86.00,4
79,82.33,85.93,4
78,82.25,85.85,4
79,82.18,85.78,4
78,82.10,85.70,4
79,82.03,85.63,4
78,81.95,85.56,4
80,81.92,85.50,4
78,81.84,85.43,4
79,81.78,85.36,4
78,81.70,85.29,4
79,81.65,85.23,4
79,81.60,85.16,4
79,81.55,85.10,4
80,81.51,85.05,4
78,81.44,84.98,4
78,81.38,84.91,4
78,81.31,84.84,4
79,81.26,84.78,4
78,81.20,84.72,4
78,81.13,84.65,4
78,81.07,84.58,4
77,80.99,84.51,4
78,80.93,84.44,4
77,80.85,84.37,4
78,80.79,84.30,4
81,80.80,84.27,4
78,80.74,84.21,4
78,80.69,84.15,4
78,80.63,84.08,4
77,80.56,84.01,4
78,80.51,83.95,4
78,80.46,83.89,4
78,80.41,83.83,4
77,80.34,83.77,4
77,80.27,83.70,4
78,80.23,83.64,4
76,80.14,83.57,4
77,80.08,83.50,4
78,80.04,83.44,4
78,80.00,83.39,4
77,79.94,83.33,4
78,79.90,83.27,4
77,79.84,83.21,4
78,79.81,83.16,4
78,79.77,83.11,4
78,79.73,83.06,4
78,79.70,83.01,4
78,79.67,82.96,4
77,79.61,82.90,4
78,79.58,82.85,4
76,79.51,82.78,4
77,79.46,82.72,4
77,79.41,82.66,4
77,79.36,82.61,4
76,79.29,82.54,4
76,79.23,82.48,4
76,79.16,82.41,4
77,79.12,82.36,4
76,79.06,82.29,4
76,79.00,82.23,4
76,78.94,82.17,4
76,78.88,82.11,4
76,78.82,82.04,4
76,78.76,81.98,4
76,78.71,81.92,4
77,78.67,81.88,4
76,78.62,81.82,4
76,78.57,81.76,4
76,78.52,81.70,4
76,78.47,81.64,4
76,78.42,81.59,4
76,78.37,81.53,4
76,78.32,81.48,4
75,78.26,81.41,4
74,78.17,81.34,4
79,78.19,81.31,4
76,78.14,81.26,4
75,78.08,81.20,4
75,78.02,81.14,4
76,77.98,81.08,4
76,77.94,81.03,4
76,77.90,80.98,4
74,77.82,80.91,4
76,77.79,80.86,4
75,77.73,80.81,4
74,77.66,80.74,4
74,77.58,80.67,4
74,77.51,80.60,4
75,77.46,80.55,4
74,77.39,80.48,4
78,77.40,80.46,4
72,77.30,80.37,4
75,77.25,80.32,4
76,77.22,80.28,4
74,77.16,80.21,4
74,77.10,80.15,4
76,77.07,80.11,4
74,77.01,80.05,4
75,76.97,80.00,4
73,76.89,79.93,4
75,76.86,79.88,4
76,76.84,79.84,4
74,76.78,79.78,4
75,76.75,79.73,4
74,76.69,79.68,4
74,76.64,79.62,4
74,76.58,79.56,4
74,76.53,79.51,4
74,76.48,79.45,4
74,76.43,79.40,4
76,76.42,79.36,4
73,76.36,79.30,4
74,76.31,79.25,4
74,76.26,79.20,4
74,76.22,79.14,4
73,76.15,79.08,4
74,76.11,79.03,4
73,76.05,78.97,4
74,76.01,78.92,4
74,75.97,78.87,4
73,75.91,78.81,4
73,75.85,78.75,4
73,75.79,78.70,4
73,75.74,78.64,4
72,75.66,78.57,4
73,75.61,78.52,4
74,75.58,78.47,4
73,75.52,78.42,4
72,75.45,78.35,4
72,75.38,78.29,4
72,75.32,78.23,4
72,75.25,78.17,4
72,75.19,78.10,4
73,75.14,78.05,4
72,75.08,77.99,4
72,75.02,77.93,4
73,74.98,77.88,4
72,74.92,77.82,4
71,74.84,77.76,4
72,74.78,77.70,4
73,74.75,77.65,4
73,74.71,77.60,4
72,74.66,77.55,4
72,74.60,77.49,4
72,74.55,77.44,4
72,74.50,77.38,4
72,74.45,77.33,4
72,74.40,77.28,4
72,74.35,77.22,4
72,74.31,77.17,4
72,74.26,77.12,4
70,74.18,77.05,4
72,74.13,77.00,4
73,74.11,76.96,4
70,74.03,76.89,4
70,73.95,76.82,4
71,73.89,76.76,4
71,73.83,76.70,4
70,73.75,76.64,4
70,73.68,76.57,4
71,73.63,76.52,4
71,73.57,76.46,4
71,73.52,76.41,4
70,73.45,76.34,4
71,73.40,76.29,4
71,73.35,76.23,4
72,73.33,76.19,4
72,73.30,76.15,4
71,73.25,76.10,4
71,73.21,76.05,4
70,73.14,75.99,4
72,73.12,75.95,4
73,73.12,75.92,4
72,73.10,75.88,4
72,73.08,75.84,4
72,73.05,75.80,4
72,73.03,75.76,4
72,73.01,75.73,4
74,73.03,75.71,4
72,73.01,75.67,4
71,72.97,75.63,4
72,72.95,75.59,4
69,72.87,75.52,4
71,72.83,75.48,4
72,72.82,75.44,4
71,72.78,75.40,4
71,72.75,75.35,4
70,72.69,75.30,4
71,72.66,75.26,4
74,72.68,75.25,4
74,72.71,75.23,4
72,72.70,75.20,4
71,72.66,75.16,4
72,72.65,75.13,4
72,72.64,75.10,4
71,72.60,75.05,4
70,72.55,75.00,4
70,72.50,74.95,4
70,72.45,74.90,4
70,72.40,74.86,4
71,72.37,74.82,4
72,72.37,74.79,4
70,72.32,74.74,4
70,72.27,74.69,4
70,72.23,74.65,4
70,72.18,74.60,4
69,72.12,74.54,4
70,72.08,74.50,4
70,72.03,74.45,4
71,72.01,74.42,4
70,71.97,74.38,4
70,71.93,74.33,4
70,71.90,74.29,4
71,71.88,74.26,4
70,71.84,74.21,4
69,71.78,74.16,4
70,71.75,74.12,4
71,71.73,74.09,4
69,71.68,74.04,4
70,71.64,74.00,4
70,71.61,73.96,4
69,71.56,73.91,4
69,71.51,73.86,4
69,71.46,73.81,4
68,71.39,73.75,4
69,71.34,73.70,4
68,71.27,73.65,4
68,71.21,73.59,4
69,71.16,73.54,4
69,71.12,73.50,4
68,71.06,73.44,4
68,71.00,73.39,4
68,70.94,73.34,4
69,70.90,73.29,4
68,70.84,73.24,4
68,70.78,73.19,4
69,70.75,73.14,4
69,70.71,73.10,4
68,70.66,73.05,4
68,70.61,73.00,4
70,70.59,72.97,4
70,70.58,72.94,4
68,70.53,72.89,4
68,70.48,72.84,4
69,70.45,72.81,4
69,70.42,72.77,4
68,70.37,72.72,4
68,70.33,72.67,4
69,70.30,72.64,4
68,70.25,72.59,4
68,70.21,72.54,4
68,70.16,72.50,4
69,70.14,72.46,4
69,70.12,72.43,4
70,70.12,72.40,4
68,70.07,72.36,4
69,70.05,72.33,4
69,70.03,72.29,4
68,69.99,72.25,4
68,69.95,72.21,4
69,69.93,72.18,4
68,69.89,72.13,4
68,69.85,72.09,4
68,69.82,72.05,4
69,69.80,72.02,4
70,69.81,72.00,4
68,69.77,71.96,4
68,69.73,71.92,4
69,69.72,71.89,4
68,69.68,71.85,4
68,69.65,71.81,4
68,69.62,71.78,4
68,69.59,71.74,4
70,69.59,71.72,4
68,69.56,71.68,4
68,69.53,71.65,4
68,69.50,71.61,4
70,69.51,71.59,4
68,69.48,71.56,4
68,69.45,71.52,4
67,69.40,71.48,4
68,69.37,71.44,4
69,69.37,71.42,4
68,69.34,71.38,4
68,69.31,71.35,4
68,69.29,71.32,4
68,69.26,71.28,4
68,69.23,71.25,4
68,69.21,71.22,4
68,69.19,71.19,4
68,69.16,71.15,4
67,69.12,71.11,4
67,69.08,71.07,4
70,69.09,71.06,4
68,69.07,71.03,4
67,69.03,70.99,4
68,69.01,70.96,4
68,68.99,70.93,4
68,68.97,70.90,4
66,68.91,70.85,4
66,68.85,70.80,4
69,68.86,70.79,4
68,68.84,70.76,4
66,68.78,70.71,4
67,68.75,70.67,4
69,68.75,70.66,4
67,68.72,70.62,4
66,68.66,70.57,4
66,68.61,70.53,4
67,68.58,70.49,4
66,68.53,70.45,4
66,68.47,70.40,4
68,68.47,70.38,4
71,68.52,70.39,4
66,68.47,70.34,4
66,68.42,70.30,4
66,68.37,70.26,4
67,68.34,70.22,4
66,68.29,70.18,4
67,68.27,70.15,4
65,68.20,70.10,4
64,68.12,70.04,4
66,68.08,70.00,4
66,68.03,69.96,4
65,67.97,69.91,4
66,67.93,69.87,4
66,67.90,69.83,4
66,67.86,69.79,4
66,67.82,69.75,4
65,67.76,69.71,4
66,67.73,69.67,4
66,67.69,69.63,4
66,67.66,69.60,4
65,67.61,69.55,4
66,67.58,69.51,4
66,67.54,69.48,4
66,67.51,69.44,4
66,67.48,69.41,4
66,67.45,69.38,4
66,67.42,69.34,4
65,67.38,69.30,4
66,67.35,69.27,4
66,67.32,69.23,4
65,67.27,69.19,4
66,67.25,69.16,4
65,67.20,69.12,4
64,67.14,69.07,4
64,67.08,69.01,4
65,67.04,68.97,4
65,66.99,68.93,4
64,66.94,68.89,4
66,66.92,68.86,4
65,66.88,68.82,4
66,66.86,68.79,4
64,66.80,68.74,4
66,66.79,68.71,4
65,66.75,68.68,4
65,66.72,68.64,4
66,66.70,68.61,4
64,66.65,68.57,4
65,66.62,68.53,4
64,66.56,68.49,4
66,66.55,68.46,4
66,66.54,68.44,4
65,66.51,68.40,4
64,66.46,68.36,4
65,66.43,68.33,4
64,66.38,68.28,4
64,66.33,68.24,4
64,66.29,68.20,4
64,66.24,68.16,4
66,66.24,68.13,4
64,66.19,68.09,4
66,66.19,68.07,4
64,66.14,68.03,4
65,66.12,68.00,4
65,66.10,67.97,4
68,66.14,67.97,4
64,66.09,67.93,4
64,66.05,67.89,4
64,66.01,67.85,4
64,65.97,67.81,4
65,65.95,67.79,4
64,65.91,67.75,4
64,65.87,67.71,4
64,65.84,67.67,4
64,65.80,67.64,4
64,65.76,67.60,4
64,65.73,67.56,4
64,65.69,67.53,4
64,65.66,67.49,4
63,65.61,67.45,4
64,65.58,67.41,4
64,65.54,67.38,4
64,65.51,67.35,4
64,65.48,67.31,4
64,65.45,67.28,4
64,65.42,67.25,4
64,65.40,67.21,4
64,65.37,67.18,4
64,65.34,67.15,4
65,65.33,67.13,4
64,65.31,67.10,4
64,65.28,67.07,4
64,65.25,67.04,4
65,65.25,67.02,4
64,65.22,66.99,4
64,65.20,66.96,4
64,65.18,66.93,4
64,65.15,66.90,4
64,65.13,66.87,4
64,65.11,66.84,4
65,65.11,66.82,4
64,65.08,66.79,4
64,65.06,66.76,4
62,65.00,66.72,4
64,64.98,66.69,4
65,64.98,66.67,4
64,64.96,66.65,4
64,64.94,66.62,4
66,64.96,66.61,4
64,64.94,66.59,4
64,64.92,66.56,4
64,64.91,66.54,4
63,64.87,66.50,4
64,64.85,66.48,4
64,64.83,66.45,4
62,64.78,66.41,4
63,64.74,66.37,4
64,64.73,66.35,4
64,64.71,66.33,4
64,64.70,66.30,4
65,64.70,66.29,4
63,64.67,66.26,4
62,64.62,66.21,4
64,64.60,66.19,4
64,64.59,66.17,4
63,64.56,66.14,4
62,64.51,66.10,4
64,64.50,66.08,4
64,64.49,66.05,4
62,64.44,66.01,4
62,64.39,65.97,4
64,64.38,65.95,4
60,64.29,65.89,4
62,64.25,65.86,4
62,64.20,65.82,4
62,64.16,65.78,4
63,64.14,65.75,4
62,64.09,65.71,4
62,64.05,65.68,4
64,64.05,65.66,4
63,64.03,65.63,4
62,63.99,65.60,4
62,63.95,65.56,4
62,63.91,65.53,4
62,63.87,65.49,4
62,63.83,65.46,4
62,63.80,65.42,4
64,63.80,65.41,4
62,63.77,65.37,4
62,63.73,65.34,4
64,63.74,65.33,4
62,63.70,65.29,4
62,63.67,65.26,4
62,63.63,65.23,4
61,63.58,65.18,4
61,63.53,65.14,4
62,63.50,65.11,4
63,63.49,65.09,4
63,63.48,65.07,4
62,63.45,65.04,4
62,63.42,65.01,4
65,63.45,65.01,4
62,63.42,64.98,4
62,63.40,64.95,4
62,63.37,64.92,4
62,63.34,64.89,4
61,63.29,64.85,4
62,63.27,64.82,4
62,63.24,64.79,4
61,63.20,64.76,4
64,63.21,64.75,4
62,63.19,64.72,4
62,63.17,64.69,4
61,63.12,64.66,4
62,63.10,64.63,4
62,63.08,64.60,4
62,63.06,64.58,4
61,63.01,64.54,4
62,62.99,64.52,4
62,62.97,64.49,4
62,62.95,64.47,4
61,62.92,64.43,4
62,62.90,64.41,4
62,62.88,64.38,4
62,62.86,64.36,4
62,62.84,64.34,4
61,62.81,64.30,4
60,62.75,64.26,4
60,62.70,64.22,4
61,62.66,64.18,4
61,62.63,64.15,4
62,62.62,64.13,4
61,62.58,64.10,4
61,62.55,64.07,4
60,62.50,64.03,4
60,62.45,63.99,4
61,62.42,63.96,4
60,62.37,63.92,4
60,62.33,63.88,4
60,62.28,63.84,4
60,62.23,63.80,4
61,62.21,63.77,4
60,62.17,63.74,4
60,62.12,63.70,4
60,62.08,63.66,4
61,62.06,63.64,4
60,62.02,63.60,4
62,62.02,63.58,4
62,62.02,63.57,4
60,61.98,63.53,4
60,61.94,63.50,4
60,61.90,63.46,4
61,61.88,63.44,4
61,61.86,63.41,4
60,61.83,63.38,4
60,61.79,63.34,4
61,61.77,63.32,4
59,61.72,63.28,4
60,61.68,63.25,4
60,61.65,63.21,4
60,61.62,63.18,4
59,61.56,63.14,4
60,61.53,63.11,4
62,61.54,63.10,4
60,61.51,63.07,4
59,61.46,63.02,4
59,61.41,62.98,4
60,61.38,62.95,4
61,61.38,62.93,4
60,61.35,62.91,4
58,61.28,62.86,4
61,61.28,62.84,4
60,61.25,62.81,4
60,61.23,62.78,4
61,61.22,62.76,4
60,61.20,62.74,4
61,61.19,62.72,4
60,61.17,62.69,4
60,61.15,62.66,4
57,61.06,62.61,4
60,61.04,62.58,4
59,61.00,62.55,4
60,60.98,62.52,4
60,60.96,62.50,4
59,60.92,62.46,4
59,60.88,62.43,4
60,60.87,62.40,4
60,60.85,62.38,4
59,60.81,62.34,4
62,60.83,62.34,4
60,60.82,62.32,4
59,60.78,62.28,4
58,60.73,62.24,4
59,60.69,62.21,4
60,60.68,62.19,4
59,60.64,62.15,4
59,60.61,62.12,4
61,60.62,62.11,4
60,60.61,62.09,4
59,60.57,62.06,4
59,60.54,62.03,4
58,60.49,61.99,4
60,60.48,61.97,4
58,60.43,61.93,4
58,60.38,61.89,4
60,60.38,61.87,4
58,60.33,61.83,4
58,60.28,61.79,4
59,60.26,61.77,4
60,60.25,61.75,4
59,60.23,61.72,4
58,60.18,61.68,4
57,60.12,61.64,4
57,60.06,61.59,4
58,60.01,61.55,4
58,59.97,61.52,4
58,59.94,61.48,4
58,59.90,61.45,4
58,59.86,61.41,4
58,59.82,61.38,4
58,59.78,61.35,4
58,59.75,61.31,4
58,59.71,61.28,4
58,59.68,61.25,4
59,59.67,61.22,4
57,59.61,61.18,4
58,59.58,61.15,4
58,59.55,61.12,4
58,59.52,61.09,4
57,59.47,61.05,4
58,59.44,61.02,4
58,59.41,60.99,4
58,59.38,60.96,4
58,59.35,60.93,4
58,59.33,60.90,4
58,59.30,60.87,4
60,59.31,60.86,4
58,59.29,60.83,4
58,59.26,60.80,4
58,59.24,60.78,4
58,59.21,60.75,4
58,59.19,60.72,4
58,59.16,60.69,4
58,59.14,60.67,4
58,59.12,60.64,4
58,59.10,60.61,4
56,59.03,60.57,4
58,59.01,60.54,4
58,58.99,60.52,4
57,58.95,60.48,4
56,58.89,60.44,4
57,58.86,60.40,4
57,58.82,60.37,4
57,58.78,60.33,4
56,58.73,60.29,4
58,58.71,60.27,4
57,58.68,60.23,4
58,58.66,60.21,4
56,58.61,60.17,4
56,58.56,60.13,4
57,58.53,60.10,4
56,58.48,60.06,4
58,58.47,60.04,4
58,58.46,60.02,4
57,58.43,59.99,4
58,58.42,59.97,4
56,58.37,59.93,4
56,58.32,59.89,4
57,58.30,59.86,4
56,58.25,59.82,4
56,58.21,59.78,4
58,58.20,59.76,4
57,58.18,59.74,4
56,58.14,59.70,4
57,58.11,59.67,4
56,58.07,59.63,4
57,58.05,59.61,4
56,58.01,59.57,4
57,57.99,59.55,4
57,57.97,59.52,4
57,57.95,59.50,4
56,57.91,59.46,4
57,57.89,59.44,4
56,57.85,59.40,4
56,57.82,59.37,4
57,57.80,59.34,4
62,57.88,59.37,4
56,57.85,59.34,4
56,57.81,59.30,4
56,57.77,59.27,4
56,57.74,59.24,4
56,57.70,59.21,4
57,57.69,59.18,4
57,57.68,59.16,4
56,57.64,59.13,4
56,57.61,59.10,4
56,57.58,59.07,4
57,57.57,59.05,4
56,57.53,59.02,4
56,57.50,58.99,4
57,57.49,58.97,4
56,57.46,58.94,4
56,57.43,58.91,4
56,57.41,58.88,4
57,57.40,58.86,4
56,57.37,58.83,4
56,57.34,58.80,4
56,57.32,58.77,4
56,57.29,58.75,4
56,57.26,58.72,4
56,57.24,58.69,4
56,57.21,58.67,4
57,57.21,58.65,4
56,57.18,58.62,4
56,57.16,58.60,4
56,57.14,58.57,4
57,57.14,58.55,4
57,57.13,58.54,4
56,57.11,58.51,4
56,57.09,58.49,4
56,57.07,58.46,4
56,57.04,58.44,4
56,57.02,58.41,4
56,57.00,58.39,4
56,56.98,58.37,4
56,56.96,58.34,4
56,56.94,58.32,4
56,56.93,58.30,4
58,56.95,58.29,4
56,56.93,58.27,4
56,56.91,58.25,4
54,56.85,58.20,4
56,56.83,58.18,4
56,56.82,58.16,4
56,56.80,58.14,4
54,56.74,58.10,4
55,56.71,58.07,4
55,56.68,58.04,4
56,56.66,58.02,4
56,56.65,58.00,4
56,56.64,57.98,4
56,56.62,57.96,4
54,56.57,57.92,4
56,56.56,57.90,4
57,56.57,57.89,4
55,56.54,57.86,4
54,56.49,57.82,4
56,56.48,57.80,4
55,56.45,57.77,4
55,56.42,57.75,4
54,56.37,57.71,4
56,56.36,57.69,4
55,56.34,57.67,4
55,56.31,57.64,4
54,56.26,57.60,4
56,56.26,57.59,4
55,56.23,57.56,4
54,56.19,57.52,4
54,56.14,57.49,4
56,56.14,57.47,4
55,56.12,57.45,4
55,56.10,57.43,4
56,56.09,57.41,4
55,56.07,57.39,4
56,56.07,57.37,4
55,56.05,57.35,4
57,56.07,57.35,4
56,56.07,57.33,4
56,56.07,57.32,4
56,56.06,57.31,4
56,56.06,57.29,4
56,56.06,57.28,4
56,56.06,57.27,4
55,56.04,57.24,4
56,56.04,57.23,4
56,56.04,57.22,4
56,56.04,57.21,4
55,56.02,57.19,4
54,55.98,57.15,4
56,55.98,57.14,4
56,55.98,57.13,4
55,55.96,57.11,4
55,55.94,57.09,4
54,55.90,57.06,4
55,55.88,57.04,4
54,55.84,57.01,4
56,55.85,57.00,4
55,55.83,56.98,4
56,55.83,56.97,4
55,55.82,56.95,4
56,55.82,56.94,4
55,55.80,56.92,4
55,55.79,56.90,4
55,55.77,56.88,4
55,55.76,56.86,4
55,55.74,56.84,4
56,55.75,56.83,4
56,55.75,56.83,4
55,55.74,56.81,4
55,55.72,56.79,4
54,55.69,56.76,4
56,55.69,56.75,4
54,55.66,56.73,4
54,55.63,56.70,4
54,55.59,56.67,4
57,55.62,56.68,4
55,55.61,56.66,4
54,55.58,56.63,4
55,55.57,56.62,4
53,55.51,56.58,4
55,55.50,56.56,4
54,55.47,56.54,4
56,55.48,56.53,4
55,55.48,56.52,4
54,55.45,56.49,4
56,55.46,56.49,4
56,55.47,56.48,4
53,55.42,56.45,4
54,55.39,56.42,4
54,55.36,56.40,4
55,55.35,56.39,4
54,55.33,56.36,4
54,55.30,56.34,4
54,55.28,56.31,4
56,55.29,56.31,4
54,55.26,56.29,4
54,55.24,56.27,4
54,55.21,56.24,4
55,55.21,56.23,4
54,55.19,56.21,4
54,55.16,56.19,4
54,55.14,56.16,4
55,55.14,56.15,4
55,55.13,56.14,4
54,55.11,56.12,4
55,55.11,56.11,4
54,55.09,56.09,4
54,55.06,56.07,4
54,55.04,56.05,4
54,55.02,56.03,4
55,55.02,56.01,4
54,55.00,55.99,4
54,54.98,55.97,4
54,54.96,55.95,4
54,54.94,55.94,4
54,54.92,55.92,4
53,54.88,55.89,4
54,54.87,55.87,4
54,54.85,55.85,4
54,54.83,55.83,4
56,54.86,55.83,4
54,54.84,55.81,4
55,54.84,55.81,4
54,54.83,55.79,4
54,54.81,55.77,4
54,54.79,55.75,4
55,54.80,55.74,4
54,54.78,55.73,4
53,54.75,55.70,4
54,54.73,55.68,4
54,54.72,55.67,4
56,54.74,55.67,4
54,54.73,55.65,4
53,54.69,55.63,4
53,54.66,55.60,4
54,54.65,55.58,4
54,54.63,55.57,4
53,54.60,55.54,4
54,54.59,55.53,4
53,54.56,55.50,4
54,54.54,55.49,4
53,54.51,55.46,4
54,54.50,55.45,4
53,54.47,55.42,4
54,54.46,55.41,4
53,54.43,55.38,4
51,54.37,55.34,4
53,54.34,55.32,4
54,54.33,55.30,4
52,54.29,55.27,4
54,54.28,55.26,4
53,54.25,55.24,4
53,54.23,55.21,4
53,54.20,55.19,4
54,54.20,55.18,4
53,54.18,55.16,4
54,54.17,55.15,4
54,54.17,55.13,4
52,54.13,55.10,4
54,54.12,55.09,4
53,54.10,55.07,4
52,54.06,55.04,4
54,54.06,55.03,4
54,54.06,55.02,4
53,54.04,55.00,4
54,54.03,54.99,4
52,53.99,54.96,4
53,53.97,54.94,4
53,53.95,54.92,4
54,53.96,54.91,4
54,53.96,54.90,4
53,53.94,54.88,4
54,53.94,54.87,4
53,53.92,54.86,4
53,53.90,54.84,4
53,53.88,54.82,4
54,53.89,54.81,4
52,53.85,54.78,4
54,53.85,54.77,4
54,53.85,54.77,4
54,53.86,54.76,4
54,53.86,54.75,4
53,53.84,54.73,4
53,53.83,54.72,4
52,53.79,54.69,4
52,53.75,54.66,4
56,53.80,54.68,4
52,53.76,54.65,4
54,53.77,54.64,4
54,53.77,54.64,4
53,53.76,54.62,4
53,53.74,54.60,4
52,53.71,54.58,4
52,53.67,54.55,4
53,53.66,54.54,4
52,53.63,54.51,4
52,53.59,54.49,4
52,53.56,54.46,4
53,53.55,54.45,4
52,53.52,54.42,4
52,53.49,54.40,4
53,53.48,54.38,4
52,53.45,54.36,4
55,53.48,54.37,4
54,53.49,54.36,4
54,53.50,54.36,4
53,53.49,54.35,4
54,53.50,54.34,4
