Teste de posicionamento 2(EMG ao centro do bíceps (Vermelho A, Verde B) + Ref no cotovelo) - 16/04/2024 - teste1 - 5 contrações
long frequencia = 1000;                 //frequência de aquisição do sinal, neste caso, 1000 sinais por segundo
float fator1 = 0.02, fator2 = 0.01;
float incerteza = 0.13;
float pico_basal = 130; // Mínimo para ser considerado um pico de contração
int filtro_horizontal=200000; //intervalo de 200ms valores não pode ter mais de 1 contração

Biceps_D,mediaMovel_1,mediaMovel_2,Contracao
112,2.24,1.12,0
111,4.42,2.22,0
112,6.57,3.32,0
112,8.68,4.40,0
111,10.72,5.47,0
111,12.73,6.52,0
112,14.71,7.58,0
110,16.62,8.60,0
111,18.51,9.63,0
112,20.38,10.65,0
113,22.23,11.67,0
111,24.00,12.67,0
111,25.74,13.65,0
111,27.45,14.62,0
115,29.20,15.63,0
112,30.86,16.59,0
112,32.48,17.55,0
111,34.05,18.48,0
111,35.59,19.41,0
110,37.08,20.31,0
111,38.56,21.22,0
111,40.00,22.12,0
111,41.42,23.01,0
112,42.84,23.90,0
111,44.20,24.77,0
111,45.53,25.63,0
112,46.86,26.49,0
109,48.11,27.32,0
111,49.36,28.15,0
111,50.60,28.98,0
109,51.77,29.78,0
109,52.91,30.58,0
115,54.15,31.42,0
113,55.33,32.24,0
110,56.42,33.01,0
111,57.51,33.79,0
111,58.58,34.56,0
109,59.59,35.31,0
110,60.60,36.06,0
111,61.61,36.81,0
113,62.64,37.57,0
112,63.62,38.31,0
111,64.57,39.04,0
111,65.50,39.76,0
110,66.39,40.46,0
112,67.30,41.18,0
109,68.14,41.85,0
110,68.97,42.54,0
111,69.81,43.22,0
112,70.66,43.91,0
111,71.46,44.58,0
109,72.21,45.22,0
113,73.03,45.90,0
111,73.79,46.55,0
112,74.55,47.21,0
109,75.24,47.82,0
110,75.94,48.45,0
110,76.62,49.06,0
111,77.31,49.68,0
111,77.98,50.29,0
110,78.62,50.89,0
109,79.23,51.47,0
112,79.88,52.08,0
110,80.49,52.66,0
109,81.06,53.22,0
111,81.66,53.80,0
111,82.24,54.37,0
110,82.80,54.93,0
109,83.32,55.47,0
109,83.84,56.00,0
111,84.38,56.55,0
111,84.91,57.10,0
111,85.43,57.64,0
109,85.90,58.15,0
109,86.37,58.66,0
115,86.94,59.22,0
111,87.42,59.74,0
110,87.87,60.24,0
109,88.29,60.73,0
113,88.79,61.25,0
112,89.25,61.76,0
110,89.67,62.24,0
110,90.07,62.72,0
111,90.49,63.20,0
109,90.86,63.66,0
113,91.31,64.15,0
109,91.66,64.60,0
109,92.01,65.05,0
111,92.39,65.51,0
109,92.72,65.94,0
110,93.06,66.38,0
111,93.42,66.83,0
111,93.77,67.27,0
109,94.08,67.69,0
109,94.38,68.10,0
108,94.65,68.50,0
111,94.98,68.92,0
110,95.28,69.33,0
109,95.55,69.73,0
110,95.84,70.13,0
111,96.14,70.54,0
111,96.44,70.95,0
109,96.69,71.33,0
111,96.98,71.72,0
111,97.26,72.12,0
111,97.53,72.51,0
110,97.78,72.88,0
110,98.03,73.25,0
110,98.27,73.62,0
109,98.48,73.97,0
110,98.71,74.33,0
111,98.96,74.70,0
110,99.18,75.05,0
113,99.45,75.43,0
111,99.69,75.79,0
111,99.91,76.14,0
111,100.13,76.49,0
110,100.33,76.82,0
111,100.54,77.17,0
110,100.73,77.49,0
110,100.92,77.82,0
111,101.12,78.15,0
111,101.32,78.48,0
113,101.55,78.83,0
111,101.74,79.15,0
111,101.93,79.47,0
112,102.13,79.79,0
111,102.30,80.10,0
110,102.46,80.40,0
110,102.61,80.70,0
111,102.78,81.00,0
110,102.92,81.29,0
110,103.06,81.58,0
112,103.24,81.88,0
112,103.42,82.18,0
112,103.59,82.48,0
110,103.72,82.76,0
109,103.82,83.02,0
111,103.97,83.30,0
110,104.09,83.57,0
109,104.19,83.82,0
110,104.30,84.08,0
110,104.42,84.34,0
110,104.53,84.60,0
110,104.64,84.85,0
110,104.74,85.10,0
110,104.85,85.35,0
111,104.97,85.61,0
110,105.07,85.85,0
112,105.21,86.11,0
110,105.31,86.35,0
114,105.48,86.63,0
110,105.57,86.86,0
112,105.70,87.11,0
112,105.83,87.36,0
110,105.91,87.59,0
110,105.99,87.81,0
110,106.07,88.04,0
111,106.17,88.27,0
114,106.33,88.52,0
110,106.40,88.74,0
112,106.51,88.97,0
110,106.58,89.18,0
111,106.67,89.40,0
110,106.74,89.60,0
111,106.82,89.82,0
110,106.89,90.02,0
111,106.97,90.23,0
111,107.05,90.44,0
110,107.11,90.63,0
111,107.19,90.84,0
112,107.28,91.05,0
110,107.34,91.24,0
110,107.39,91.43,0
110,107.44,91.61,0
112,107.53,91.82,0
110,107.58,92.00,0
109,107.61,92.17,0
110,107.66,92.35,0
113,107.76,92.55,0
111,107.83,92.74,0
110,107.87,92.91,0
110,107.92,93.08,0
111,107.98,93.26,0
110,108.02,93.43,0
110,108.06,93.59,0
110,108.10,93.76,0
111,108.15,93.93,0
110,108.19,94.09,0
110,108.23,94.25,0
111,108.28,94.42,0
112,108.36,94.59,0
110,108.39,94.75,0
111,108.44,94.91,0
110,108.47,95.06,0
112,108.54,95.23,0
111,108.59,95.39,0
110,108.62,95.53,0
110,108.65,95.68,0
112,108.72,95.84,0
111,108.76,95.99,0
110,108.79,96.13,0
110,108.81,96.27,0
111,108.85,96.42,0
110,108.88,96.55,0
110,108.90,96.69,0
110,108.92,96.82,0
111,108.96,96.96,0
110,108.98,97.09,0
111,109.02,97.23,0
110,109.04,97.36,0
109,109.04,97.48,0
110,109.06,97.60,0
110,109.08,97.73,0
110,109.10,97.85,0
110,109.12,97.97,0
110,109.13,98.09,0
112,109.19,98.23,0
110,109.21,98.35,0
109,109.20,98.45,0
110,109.22,98.57,0
111,109.26,98.69,0
111,109.29,98.82,0
111,109.32,98.94,0
112,109.38,99.07,0
113,109.45,99.21,0
109,109.44,99.31,0
110,109.45,99.41,0
112,109.50,99.54,0
111,109.53,99.65,0
111,109.56,99.77,0
111,109.59,99.88,0
112,109.64,100.00,0
111,109.67,100.11,0
111,109.69,100.22,0
110,109.70,100.32,0
113,109.77,100.44,0
111,109.79,100.55,0
111,109.81,100.65,0
111,109.84,100.76,0
111,109.86,100.86,0
111,109.88,100.96,0
111,109.91,101.06,0
111,109.93,101.16,0
111,109.95,101.26,0
111,109.97,101.36,0
111,109.99,101.45,0
115,110.09,101.59,0
111,110.11,101.68,0
111,110.13,101.78,0
110,110.13,101.86,0
112,110.16,101.96,0
111,110.18,102.05,0
110,110.18,102.13,0
110,110.17,102.21,0
112,110.21,102.31,0
111,110.22,102.39,0
111,110.24,102.48,0
110,110.24,102.56,0
111,110.25,102.64,0
111,110.27,102.72,0
110,110.26,102.80,0
111,110.28,102.88,0
112,110.31,102.97,0
111,110.32,103.05,0
109,110.30,103.11,0
110,110.29,103.18,0
111,110.31,103.26,0
110,110.30,103.32,0
109,110.27,103.38,0
110,110.27,103.45,0
113,110.32,103.54,0
112,110.36,103.63,0
111,110.37,103.70,0
111,110.38,103.77,0
112,110.41,103.86,0
110,110.41,103.92,0
109,110.38,103.97,0
109,110.35,104.02,0
111,110.36,104.09,0
109,110.34,104.14,0
110,110.33,104.20,0
112,110.36,104.27,0
111,110.38,104.34,0
110,110.37,104.40,0
111,110.38,104.46,0
116,110.49,104.58,0
111,110.50,104.64,0
109,110.47,104.69,0
109,110.44,104.73,0
111,110.45,104.79,0
109,110.43,104.83,0
109,110.40,104.88,0
109,110.37,104.92,0
111,110.38,104.98,0
110,110.37,105.03,0
111,110.39,105.09,0
109,110.36,105.13,0
111,110.37,105.19,0
109,110.34,105.22,0
110,110.34,105.27,0
109,110.31,105.31,0
113,110.36,105.39,0
111,110.38,105.44,0
111,110.39,105.50,0
109,110.36,105.53,0
112,110.39,105.60,0
110,110.39,105.64,0
109,110.36,105.68,0
110,110.35,105.72,0
111,110.36,105.77,0
110,110.36,105.81,0
109,110.33,105.85,0
109,110.30,105.88,0
110,110.30,105.92,0
110,110.29,105.96,0
109,110.27,105.99,0
111,110.28,106.04,0
109,110.25,106.07,0
109,110.23,106.10,0
109,110.21,106.13,0
111,110.22,106.18,0
109,110.20,106.20,0
110,110.19,106.24,0
109,110.17,106.27,0
111,110.19,106.32,0
109,110.16,106.34,0
108,110.12,106.36,0
109,110.10,106.39,0
110,110.09,106.42,0
109,110.07,106.45,0
109,110.05,106.47,0
109,110.03,106.50,0
109,110.01,106.52,0
109,109.99,106.55,0
109,109.97,106.57,0
109,109.95,106.60,0
109,109.93,106.62,0
109,109.91,106.65,0
107,109.85,106.65,0
109,109.84,106.67,0
110,109.84,106.71,0
109,109.82,106.73,0
108,109.79,106.74,0
107,109.73,106.74,0
110,109.74,106.78,0
107,109.68,106.78,0
108,109.65,106.79,0
108,109.62,106.80,0
109,109.60,106.83,0
108,109.57,106.84,0
109,109.56,106.86,0
109,109.55,106.88,0
108,109.52,106.89,0
108,109.49,106.90,0
108,109.46,106.91,0
110,109.47,106.94,0
109,109.46,106.97,0
108,109.43,106.98,0
108,109.40,106.99,0
109,109.39,107.01,0
107,109.35,107.01,0
107,109.30,107.01,0
107,109.25,107.01,0
109,109.25,107.03,0
107,109.20,107.03,0
108,109.18,107.04,0
107,109.13,107.03,0
109,109.13,107.05,0
108,109.11,107.06,0
108,109.09,107.07,0
108,109.07,107.08,0
108,109.04,107.09,0
107,109.00,107.09,0
107,108.96,107.09,0
107,108.92,107.09,0
109,108.93,107.11,0
108,108.91,107.12,0
108,108.89,107.13,0
107,108.85,107.12,0
109,108.85,107.14,0
108,108.84,107.15,0
107,108.80,107.15,0
108,108.78,107.16,0
107,108.75,107.16,0
108,108.73,107.17,0
107,108.70,107.16,0
109,108.70,107.18,0
107,108.67,107.18,0
108,108.66,107.19,0
107,108.62,107.19,0
109,108.63,107.20,0
108,108.62,107.21,0
107,108.59,107.21,0
107,108.56,107.21,0
109,108.56,107.23,0
108,108.55,107.23,0
107,108.52,107.23,0
105,108.45,107.21,0
109,108.46,107.23,0
107,108.43,107.23,0
107,108.40,107.22,0
108,108.40,107.23,0
108,108.39,107.24,0
109,108.40,107.26,0
107,108.37,107.25,0
107,108.35,107.25,0
107,108.32,107.25,0
109,108.33,107.27,0
107,108.31,107.26,0
106,108.26,107.25,0
107,108.23,107.25,0
106,108.19,107.24,0
107,108.17,107.23,0
107,108.14,107.23,0
108,108.14,107.24,0
107,108.12,107.24,0
108,108.11,107.24,0
107,108.09,107.24,0
107,108.07,107.24,0
106,108.03,107.23,0
107,108.01,107.22,0
109,108.03,107.24,0
108,108.03,107.25,0
107,108.01,107.25,0
108,108.01,107.25,0
107,107.99,107.25,0
108,107.99,107.26,0
106,107.95,107.25,0
106,107.91,107.23,0
108,107.91,107.24,0
107,107.89,107.24,0
106,107.85,107.23,0
106,107.82,107.22,0
109,107.84,107.23,0
107,107.82,107.23,0
108,107.83,107.24,0
106,107.79,107.23,0
108,107.79,107.23,0
107,107.78,107.23,0
107,107.76,107.23,0
106,107.73,107.22,0
108,107.73,107.22,0
106,107.70,107.21,0
105,107.64,107.19,0
105,107.59,107.17,0
108,107.60,107.18,0
107,107.59,107.18,0
106,107.56,107.16,0
105,107.51,107.14,0
107,107.50,107.14,0
110,107.55,107.17,0
107,107.53,107.17,0
107,107.52,107.17,0
107,107.51,107.16,0
105,107.46,107.14,0
106,107.43,107.13,0
108,107.45,107.14,0
107,107.44,107.14,0
105,107.39,107.12,0
105,107.34,107.10,0
107,107.33,107.09,0
106,107.31,107.08,0
107,107.30,107.08,0
105,107.25,107.06,0
107,107.25,107.06,0
107,107.24,107.06,0
104,107.18,107.03,0
105,107.14,107.01,0
108,107.15,107.02,0
105,107.11,107.00,0
106,107.09,106.99,0
107,107.09,106.99,0
107,107.08,106.99,0
105,107.04,106.97,0
105,107.00,106.95,0
105,106.96,106.93,0
107,106.96,106.93,0
105,106.92,106.91,0
105,106.88,106.89,0
106,106.87,106.88,0
106,106.85,106.88,0
106,106.83,106.87,0
105,106.80,106.85,0
105,106.76,106.83,0
106,106.74,106.82,0
107,106.75,106.82,0
105,106.71,106.80,0
106,106.70,106.80,0
105,106.67,106.78,0
106,106.65,106.77,0
105,106.62,106.75,0
107,106.63,106.76,0
107,106.64,106.76,0
105,106.60,106.74,0
105,106.57,106.72,0
106,106.56,106.72,0
106,106.55,106.71,0
106,106.54,106.70,0
105,106.51,106.68,0
107,106.52,106.69,0
105,106.49,106.67,0
105,106.46,106.65,0
105,106.43,106.64,0
107,106.44,106.64,0
105,106.41,106.62,0
105,106.38,106.61,0
106,106.37,106.60,0
105,106.35,106.59,0
106,106.34,106.58,0
105,106.31,106.56,0
105,106.29,106.55,0
108,106.32,106.56,0
105,106.29,106.55,0
105,106.27,106.53,0
105,106.24,106.52,0
105,106.22,106.50,0
105,106.19,106.49,0
105,106.17,106.47,0
105,106.15,106.46,0
105,106.12,106.44,0
105,106.10,106.43,0
105,106.08,106.41,0
106,106.08,106.41,0
106,106.08,106.41,0
105,106.05,106.39,0
105,106.03,106.38,0
107,106.05,106.38,0
104,106.01,106.36,0
105,105.99,106.35,0
105,105.97,106.33,0
105,105.95,106.32,0
105,105.93,106.31,0
105,105.91,106.29,0
104,105.88,106.27,0
105,105.86,106.26,0
105,105.84,106.25,0
105,105.82,106.23,0
105,105.81,106.22,0
105,105.79,106.21,0
105,105.78,106.20,0
105,105.76,106.18,0
104,105.73,106.16,0
106,105.73,106.16,0
105,105.72,106.15,0
105,105.70,106.14,0
105,105.69,106.13,0
107,105.71,106.14,0
105,105.70,106.12,0
105,105.69,106.11,0
105,105.67,106.10,0
105,105.66,106.09,0
108,105.71,106.11,0
105,105.69,106.10,0
105,105.68,106.09,0
105,105.66,106.08,0
105,105.65,106.07,0
104,105.62,106.05,0
105,105.61,106.03,0
105,105.59,106.02,0
105,105.58,106.01,0
101,105.49,105.96,0
108,105.54,105.98,0
105,105.53,105.97,0
105,105.52,105.96,0
105,105.51,105.96,0
105,105.50,105.95,0
105,105.49,105.94,0
105,105.48,105.93,0
105,105.47,105.92,0
107,105.50,105.93,0
105,105.49,105.92,0
104,105.46,105.90,0
105,105.45,105.89,0
105,105.44,105.88,0
105,105.43,105.87,0
104,105.40,105.85,0
105,105.40,105.85,0
105,105.39,105.84,0
105,105.38,105.83,0
104,105.35,105.81,0
105,105.35,105.80,0
105,105.34,105.79,0
104,105.31,105.78,0
105,105.31,105.77,0
104,105.28,105.75,0
104,105.25,105.73,0
103,105.21,105.71,0
104,105.18,105.69,0
103,105.14,105.66,0
105,105.14,105.66,0
105,105.14,105.65,0
104,105.11,105.63,0
105,105.11,105.63,0
105,105.11,105.62,0
104,105.09,105.60,0
104,105.06,105.59,0
106,105.08,105.59,0
104,105.06,105.58,0
104,105.04,105.56,0
107,105.08,105.57,0
105,105.08,105.57,0
106,105.10,105.57,0
103,105.05,105.55,0
103,105.01,105.52,0
105,105.01,105.52,0
105,105.01,105.51,0
105,105.01,105.51,0
104,104.99,105.49,0
106,105.01,105.50,0
104,104.99,105.48,0
104,104.97,105.47,0
103,104.93,105.44,0
105,104.93,105.44,0
104,104.92,105.42,0
105,104.92,105.42,0
104,104.90,105.41,0
105,104.90,105.40,0
104,104.88,105.39,0
104,104.87,105.37,0
103,104.83,105.35,0
107,104.87,105.37,0
105,104.87,105.36,0
104,104.86,105.35,0
104,104.84,105.34,0
105,104.84,105.33,0
104,104.83,105.32,0
103,104.79,105.30,0
105,104.79,105.29,0
105,104.80,105.29,0
104,104.78,105.28,0
104,104.77,105.26,0
108,104.83,105.29,0
105,104.83,105.29,0
105,104.84,105.29,0
103,104.80,105.26,0
107,104.84,105.28,0
105,104.85,105.28,0
105,104.85,105.27,0
104,104.83,105.26,0
105,104.84,105.26,0
105,104.84,105.26,0
104,104.82,105.24,0
104,104.81,105.23,0
105,104.81,105.23,0
104,104.79,105.22,0
104,104.78,105.20,0
103,104.74,105.18,0
106,104.77,105.19,0
104,104.75,105.18,0
105,104.76,105.18,0
105,104.76,105.18,0
105,104.77,105.17,0
104,104.75,105.16,0
104,104.74,105.15,0
103,104.70,105.13,0
104,104.69,105.12,0
104,104.67,105.11,0
105,104.68,105.11,0
105,104.69,105.10,0
106,104.71,105.11,0
105,104.72,105.11,0
105,104.73,105.11,0
107,104.77,105.13,0
105,104.78,105.13,0
105,104.78,105.13,0
106,104.80,105.14,0
105,104.81,105.13,0
105,104.81,105.13,0
107,104.86,105.15,0
105,104.86,105.15,0
105,104.86,105.15,0
105,104.86,105.15,0
104,104.85,105.14,0
105,104.85,105.13,0
107,104.89,105.15,0
105,104.90,105.15,0
105,104.90,105.15,0
105,104.90,105.15,0
105,104.90,105.15,0
105,104.90,105.15,0
105,104.91,105.14,0
105,104.91,105.14,0
105,104.91,105.14,0
105,104.91,105.14,0
105,104.91,105.14,0
106,104.93,105.15,0
108,105.00,105.18,0
105,105.00,105.17,0
105,105.00,105.17,0
106,105.02,105.18,0
105,105.02,105.18,0
106,105.04,105.19,0
104,105.01,105.18,0
107,105.05,105.19,0
105,105.05,105.19,0
105,105.05,105.19,0
104,105.03,105.18,0
106,105.05,105.19,0
104,105.03,105.17,0
105,105.03,105.17,0
104,105.01,105.16,0
105,105.01,105.16,0
105,105.01,105.16,0
106,105.03,105.17,0
105,105.03,105.16,0
106,105.05,105.17,0
105,105.05,105.17,0
105,105.04,105.17,0
105,105.04,105.17,0
103,105.00,105.15,0
105,105.00,105.14,0
105,105.00,105.14,0
105,105.00,105.14,0
106,105.02,105.15,0
106,105.04,105.16,0
106,105.06,105.17,0
106,105.08,105.18,0
106,105.10,105.18,0
107,105.14,105.20,0
105,105.13,105.20,0
106,105.15,105.21,0
108,105.21,105.24,0
105,105.20,105.23,0
106,105.22,105.24,0
107,105.26,105.26,0
105,105.25,105.26,0
107,105.29,105.27,0
106,105.30,105.28,0
107,105.33,105.30,0
105,105.33,105.29,0
107,105.36,105.31,0
107,105.39,105.33,0
109,105.47,105.37,0
105,105.46,105.36,0
107,105.49,105.38,0
108,105.54,105.40,0
108,105.59,105.43,0
109,105.65,105.47,0
107,105.68,105.48,0
105,105.67,105.48,0
110,105.75,105.52,0
108,105.80,105.55,0
107,105.82,105.56,0
107,105.85,105.58,0
108,105.89,105.60,0
108,105.93,105.62,0
109,105.99,105.66,0
111,106.09,105.71,0
110,106.17,105.75,0
107,106.19,105.77,0
108,106.22,105.79,0
109,106.28,105.82,0
111,106.37,105.87,0
111,106.47,105.92,0
109,106.52,105.95,0
111,106.61,106.01,0
113,106.74,106.07,0
110,106.80,106.11,0
111,106.88,106.16,0
109,106.93,106.19,0
109,106.97,106.22,0
111,107.05,106.27,0
112,107.15,106.32,0
112,107.25,106.38,0
111,107.32,106.43,0
113,107.43,106.49,0
111,107.51,106.54,0
111,107.58,106.58,0
117,107.76,106.69,0
117,107.95,106.79,0
114,108.07,106.86,0
116,108.23,106.95,0
115,108.36,107.03,0
113,108.46,107.09,0
113,108.55,107.15,0
115,108.68,107.23,0
115,108.80,107.31,0
113,108.89,107.37,0
113,108.97,107.42,0
114,109.07,107.49,0
115,109.19,107.56,0
117,109.34,107.66,0
115,109.46,107.73,0
119,109.65,107.84,0
113,109.72,107.90,0
119,109.90,108.01,0
119,110.08,108.12,0
117,110.22,108.21,0
117,110.36,108.29,0
116,110.47,108.37,0
117,110.60,108.46,0
119,110.77,108.56,0
117,110.89,108.65,0
117,111.02,108.73,0
118,111.15,108.82,0
117,111.27,108.90,0
117,111.39,108.99,0
117,111.50,109.07,0
119,111.65,109.16,0
119,111.80,109.26,0
120,111.96,109.37,0
121,112.14,109.49,0
120,112.30,109.59,0
124,112.53,109.74,0
120,112.68,109.84,0
121,112.85,109.95,0
125,113.09,110.10,0
121,113.25,110.21,0
121,113.40,110.32,0
122,113.58,110.43,0
121,113.72,110.54,0
121,113.87,110.64,0
122,114.03,110.76,0
121,114.17,110.86,0
121,114.31,110.96,0
126,114.54,111.11,0
129,114.83,111.29,0
125,115.03,111.43,0
126,115.25,111.57,0
124,115.43,111.70,0
126,115.64,111.84,0
129,115.91,112.01,0
132,116.23,112.21,0
128,116.46,112.37,0
127,116.68,112.52,0
127,116.88,112.66,0
129,117.12,112.83,0
131,117.40,113.01,0
129,117.63,113.17,0
128,117.84,113.32,0
129,118.06,113.47,0
127,118.24,113.61,0
128,118.44,113.75,0
129,118.65,113.90,0
127,118.82,114.03,0
129,119.02,114.18,0
128,119.20,114.32,0
133,119.48,114.51,0
131,119.71,114.67,0
130,119.91,114.83,0
129,120.09,114.97,0
129,120.27,115.11,0
135,120.57,115.31,0
137,120.90,115.53,0
133,121.14,115.70,0
133,121.37,115.87,0
133,121.61,116.04,0
133,121.83,116.21,0
131,122.02,116.36,0
134,122.26,116.54,0
131,122.43,116.68,0
133,122.64,116.85,0
132,122.83,117.00,0
137,123.11,117.20,0
133,123.31,117.36,0
133,123.51,117.51,0
134,123.72,117.68,0
134,123.92,117.84,0
134,124.12,118.00,0
135,124.34,118.17,0
137,124.59,118.36,0
138,124.86,118.56,0
133,125.02,118.70,0
135,125.22,118.86,0
137,125.46,119.05,0
135,125.65,119.20,0
137,125.88,119.38,0
134,126.04,119.53,0
136,126.24,119.69,0
137,126.45,119.87,0
137,126.67,120.04,0
136,126.85,120.20,0
137,127.06,120.37,0
136,127.23,120.52,0
135,127.39,120.67,0
138,127.60,120.84,0
141,127.87,121.04,0
137,128.05,121.20,0
139,128.27,121.38,0
137,128.45,121.54,0
137,128.62,121.69,0
138,128.80,121.85,0
137,128.97,122.00,0
137,129.13,122.15,0
139,129.33,122.32,0
139,129.52,122.49,0
139,129.71,122.65,0
139,129.90,122.82,0
138,130.06,122.97,0
137,130.20,123.11,0
138,130.35,123.26,0
138,130.51,123.41,0
139,130.68,123.56,0
139,130.84,123.72,0
145,131.12,123.93,0
141,131.32,124.10,0
146,131.62,124.32,0
147,131.92,124.55,0
145,132.19,124.75,0
143,132.40,124.93,0
148,132.71,125.16,0
147,133.00,125.38,0
145,133.24,125.58,0
147,133.51,125.79,0
149,133.82,126.03,0
149,134.13,126.25,0
147,134.39,126.46,0
145,134.60,126.65,0
149,134.89,126.87,0
147,135.13,127.07,0
146,135.35,127.26,0
149,135.62,127.48,0
151,135.93,127.71,0
149,136.19,127.93,0
150,136.46,128.15,0
148,136.69,128.35,0
148,136.92,128.54,0
148,137.14,128.74,0
148,137.36,128.93,0
149,137.59,129.13,0
151,137.86,129.35,0
154,138.18,129.60,0
155,138.52,129.85,0
152,138.79,130.07,0
156,139.13,130.33,0
154,139.43,130.57,0
153,139.70,130.79,0
153,139.97,131.01,0
153,140.23,131.23,0
152,140.46,131.44,0
153,140.71,131.66,0
153,140.96,131.87,0
151,141.16,132.06,0
153,141.40,132.27,0
153,141.63,132.48,0
152,141.84,132.67,0
153,142.06,132.88,0
151,142.24,133.06,0
153,142.45,133.26,0
154,142.69,133.46,0
153,142.89,133.66,0
153,143.09,133.85,0
152,143.27,134.04,0
152,143.45,134.21,0
153,143.64,134.40,0
155,143.87,134.61,0
154,144.07,134.80,0
152,144.23,134.97,0
156,144.46,135.18,0
153,144.63,135.36,0
153,144.80,135.54,0
161,145.12,135.79,0
157,145.36,136.01,0
157,145.59,136.22,0
159,145.86,136.44,0
156,146.07,136.64,0
157,146.28,136.84,0
157,146.50,137.04,0
159,146.75,137.26,0
157,146.95,137.46,0
158,147.17,137.67,0
159,147.41,137.88,0
157,147.60,138.07,0
161,147.87,138.30,0
162,148.15,138.54,0
161,148.41,138.76,0
161,148.66,138.98,0
161,148.91,139.20,0
157,149.07,139.38,0
165,149.39,139.64,0
161,149.62,139.85,0
159,149.81,140.04,0
164,150.09,140.28,0
164,150.37,140.52,0
164,150.64,140.76,0
161,150.85,140.96,0
165,151.13,141.20,0
168,151.47,141.47,0
163,151.70,141.68,0
163,151.93,141.89,0
163,152.15,142.11,0
163,152.37,142.31,0
166,152.64,142.55,0
167,152.93,142.80,0
165,153.17,143.02,0
166,153.42,143.25,0
168,153.72,143.50,0
167,153.98,143.73,0
166,154.22,143.95,0
165,154.44,144.16,0
170,154.75,144.42,0
166,154.97,144.64,0
166,155.19,144.85,0
170,155.49,145.10,0
168,155.74,145.33,0
171,156.05,145.59,0
171,156.34,145.84,0
169,156.60,146.07,0
167,156.81,146.28,0
169,157.05,146.51,0
169,157.29,146.74,0
168,157.50,146.95,0
171,157.77,147.19,0
172,158.06,147.44,0
169,158.28,147.65,0
168,158.47,147.86,0
169,158.68,148.07,0
168,158.87,148.27,0
171,159.11,148.49,0
169,159.31,148.70,0
169,159.50,148.90,0
169,159.69,149.10,0
172,159.94,149.33,0
169,160.12,149.53,0
168,160.28,149.71,0
168,160.43,149.90,0
170,160.62,150.10,0
176,160.93,150.36,0
178,161.27,150.63,0
170,161.45,150.83,0
177,161.76,151.09,0
171,161.94,151.29,0
173,162.16,151.50,0
171,162.34,151.70,0
173,162.55,151.91,0
171,162.72,152.10,0
172,162.91,152.30,0
171,163.07,152.49,0
171,163.23,152.67,0
173,163.42,152.88,0
171,163.58,153.06,0
170,163.70,153.23,0
171,163.85,153.41,0
170,163.97,153.57,0
170,164.09,153.74,0
172,164.25,153.92,0
171,164.39,154.09,0
169,164.48,154.24,0
169,164.57,154.39,0
171,164.70,154.55,0
171,164.82,154.72,0
168,164.89,154.85,0
169,164.97,154.99,0
172,165.11,155.16,0
169,165.19,155.30,0
169,165.26,155.44,0
171,165.38,155.59,0
169,165.45,155.73,0
171,165.56,155.88,0
167,165.59,155.99,0
168,165.64,156.11,0
170,165.73,156.25,0
169,165.79,156.38,0
169,165.86,156.50,0
171,165.96,156.65,0
170,166.04,156.78,0
168,166.08,156.89,0
167,166.10,157.00,0
168,166.14,157.11,0
169,166.19,157.22,0
168,166.23,157.33,0
168,166.26,157.44,0
165,166.24,157.51,0
169,166.29,157.63,0
167,166.31,157.72,0
167,166.32,157.82,0
167,166.34,157.91,0
168,166.37,158.01,0
166,166.36,158.09,0
166,166.35,158.17,0
167,166.37,158.26,0
167,166.38,158.34,0
166,166.37,158.42,0
165,166.35,158.49,0
167,166.36,158.57,0
168,166.39,158.66,0
167,166.40,158.75,0
167,166.42,158.83,0
167,166.43,158.91,0
165,166.40,158.97,0
165,166.37,159.03,0
164,166.32,159.08,0
167,166.34,159.16,0
166,166.33,159.23,0
165,166.30,159.29,0
165,166.28,159.35,0
165,166.25,159.40,0
165,166.23,159.46,0
167,166.24,159.53,0
165,166.22,159.59,0
167,166.23,159.66,0
165,166.21,159.72,0
165,166.18,159.77,0
162,166.10,159.79,0
168,166.14,159.87,0
165,166.12,159.92,0
164,166.07,159.96,0
164,166.03,160.01,0
167,166.05,160.08,0
168,166.09,160.15,0
167,166.11,160.22,0
168,166.15,160.30,0
165,166.12,160.35,0
165,166.10,160.39,0
165,166.08,160.44,0
167,166.10,160.51,0
166,166.10,160.56,0
165,166.07,160.61,0
164,166.03,160.64,0
165,166.01,160.68,0
163,165.95,160.71,0
163,165.89,160.73,0
164,165.85,160.76,0
164,165.82,160.79,0
163,165.76,160.82,0
164,165.73,160.85,0
163,165.67,160.87,0
163,165.62,160.89,0
164,165.59,160.92,0
163,165.53,160.94,0
161,165.44,160.94,0
165,165.43,160.98,0
162,165.37,160.99,0
162,165.30,161.00,0
163,165.25,161.02,0
163,165.21,161.04,0
163,165.16,161.06,0
161,165.08,161.06,0
159,164.96,161.04,0
162,164.90,161.05,0
162,164.84,161.06,0
161,164.76,161.06,0
160,164.67,161.05,0
161,164.60,161.05,0
161,164.52,161.05,0
161,164.45,161.05,0
160,164.36,161.04,0
161,164.30,161.04,0
162,164.25,161.05,0
159,164.15,161.03,0
163,164.12,161.05,0
160,164.04,161.04,0
160,163.96,161.03,0
160,163.88,161.02,0
161,163.82,161.02,0
160,163.75,161.01,0
161,163.69,161.00,0
159,163.60,160.98,0
161,163.55,160.99,0
160,163.47,160.98,0
159,163.39,160.96,0
161,163.34,160.96,0
160,163.27,160.95,0
159,163.19,160.93,0
159,163.10,160.91,0
159,163.02,160.89,0
165,163.06,160.93,0
159,162.98,160.91,0
160,162.92,160.90,0
159,162.84,160.88,0
161,162.80,160.88,0
159,162.73,160.86,0
159,162.65,160.85,0
159,162.58,160.83,0
160,162.53,160.82,0
158,162.44,160.79,0
159,162.37,160.77,0
158,162.28,160.75,0
159,162.22,160.73,0
158,162.13,160.70,0
159,162.07,160.68,0
158,161.99,160.66,0
160,161.95,160.65,0
157,161.85,160.61,0
157,161.75,160.58,0
159,161.70,160.56,0
157,161.60,160.53,0
157,161.51,160.49,0
157,161.42,160.46,0
157,161.33,160.42,0
157,161.25,160.39,0
156,161.14,160.34,0
155,161.02,160.29,0
158,160.96,160.27,0
157,160.88,160.23,0
156,160.78,160.19,0
155,160.67,160.14,0
157,160.59,160.11,0
157,160.52,160.08,0
157,160.45,160.05,0
155,160.34,160.00,0
157,160.27,159.97,0
155,160.17,159.92,0
155,160.06,159.87,0
155,159.96,159.82,0
160,159.96,159.82,0
155,159.87,159.77,1
155,159.77,159.72,1
155,159.67,159.68,2
155,159.58,159.63,2
154,159.47,159.57,3
154,159.36,159.52,3
153,159.23,159.45,3
155,159.15,159.41,3
153,159.02,159.35,3
154,158.92,159.29,3
156,158.86,159.26,3
153,158.75,159.20,3
153,158.63,159.13,3
153,158.52,159.07,3
155,158.45,159.03,3
151,158.30,158.95,3
153,158.19,158.89,3
152,158.07,158.82,3
155,158.01,158.79,3
153,157.91,158.73,3
152,157.79,158.66,3
153,157.69,158.60,3
153,157.60,158.55,3
152,157.49,158.48,3
152,157.38,158.42,3
152,157.27,158.35,3
153,157.19,158.30,3
151,157.06,158.23,3
152,156.96,158.16,3
151,156.84,158.09,3
152,156.75,158.03,3
151,156.63,157.96,3
151,156.52,157.89,3
151,156.41,157.82,3
152,156.32,157.76,3
150,156.19,157.69,3
151,156.09,157.62,3
149,155.95,157.53,3
151,155.85,157.47,3
150,155.73,157.39,3
149,155.60,157.31,3
150,155.48,157.24,3
151,155.39,157.17,3
149,155.27,157.09,3
149,155.14,157.01,3
151,155.06,156.95,3
149,154.94,156.87,3
150,154.84,156.80,3
149,154.72,156.73,3
151,154.65,156.67,3
149,154.53,156.59,3
149,154.42,156.52,3
150,154.34,156.45,3
150,154.25,156.39,3
153,154.22,156.35,3
148,154.10,156.27,3
148,153.98,156.19,3
149,153.88,156.11,3
147,153.74,156.02,3
148,153.63,155.94,3
147,153.49,155.85,3
149,153.40,155.78,3
147,153.28,155.70,3
148,153.17,155.62,3
147,153.05,155.53,3
149,152.97,155.47,3
147,152.85,155.38,3
147,152.73,155.30,3
147,152.61,155.22,3
147,152.50,155.13,3
147,152.39,155.05,3
149,152.32,154.99,3
146,152.20,154.90,3
148,152.11,154.83,3
145,151.97,154.74,3
145,151.83,154.64,3
147,151.74,154.56,3
147,151.64,154.49,3
145,151.51,154.39,3
145,151.38,154.30,3
147,151.29,154.22,3
145,151.16,154.13,3
145,151.04,154.04,3
145,150.92,153.95,3
148,150.86,153.89,3
145,150.74,153.80,3
145,150.63,153.71,3
145,150.52,153.63,3
147,150.45,153.56,3
145,150.34,153.47,3
145,150.23,153.39,3
145,150.13,153.31,3
145,150.02,153.22,3
145,149.92,153.14,3
144,149.81,153.05,3
143,149.67,152.95,3
145,149.58,152.87,3
145,149.48,152.79,3
145,149.39,152.71,3
143,149.27,152.62,3
145,149.18,152.54,3
144,149.08,152.45,3
143,148.96,152.36,3
143,148.84,152.27,3
145,148.76,152.19,3
145,148.68,152.12,3
143,148.57,152.03,3
143,148.46,151.94,3
144,148.37,151.86,3
147,148.34,151.81,3
143,148.24,151.72,3
143,148.13,151.64,3
143,148.03,151.55,3
143,147.93,151.46,3
143,147.83,151.38,3
144,147.75,151.31,3
143,147.66,151.22,3
143,147.57,151.14,3
142,147.45,151.05,3
143,147.36,150.97,3
143,147.28,150.89,3
141,147.15,150.79,3
143,147.07,150.71,3
143,146.99,150.64,3
142,146.89,150.55,3
139,146.73,150.43,3
141,146.62,150.34,3
143,146.54,150.27,3
143,146.47,150.19,3
141,146.36,150.10,3
141,146.26,150.01,3
143,146.19,149.94,3
142,146.11,149.86,3
140,145.98,149.76,3
141,145.88,149.67,3
141,145.79,149.59,3
141,145.69,149.50,3
141,145.60,149.42,3
141,145.51,149.33,3
140,145.40,149.24,3
140,145.29,149.15,3
141,145.20,149.07,3
139,145.08,148.96,3
142,145.02,148.90,3
141,144.94,148.82,3
141,144.86,148.74,3
141,144.78,148.66,3
140,144.68,148.57,3
140,144.59,148.49,3
139,144.48,148.39,3
141,144.41,148.32,3
140,144.32,148.24,3
140,144.23,148.15,3
139,144.13,148.06,3
139,144.03,147.97,3
140,143.95,147.89,3
139,143.85,147.80,3
139,143.75,147.72,3
141,143.70,147.65,3
139,143.60,147.56,3
138,143.49,147.47,3
139,143.40,147.38,3
139,143.31,147.30,3
140,143.25,147.22,3
139,143.16,147.14,3
138,143.06,147.05,3
141,143.02,146.99,3
138,142.92,146.90,3
137,142.80,146.80,3
139,142.72,146.72,3
139,142.65,146.65,3
140,142.59,146.58,3
139,142.52,146.50,3
138,142.43,146.42,3
139,142.36,146.34,3
139,142.30,146.27,3
137,142.19,146.18,3
139,142.13,146.11,3
140,142.08,146.05,3
138,142.00,145.97,3
137,141.90,145.88,3
139,141.84,145.81,3
138,141.77,145.73,3
137,141.67,145.64,3
137,141.58,145.56,3
139,141.53,145.49,3
137,141.44,145.40,3
137,141.35,145.32,3
137,141.26,145.24,3
137,141.18,145.15,3
137,141.09,145.07,3
136,140.99,144.98,3
136,140.89,144.89,3
137,140.81,144.81,3
137,140.74,144.74,3
136,140.64,144.65,3
136,140.55,144.56,3
138,140.50,144.50,3
137,140.43,144.42,3
136,140.34,144.34,3
137,140.27,144.26,3
136,140.19,144.18,3
136,140.10,144.10,3
138,140.06,144.04,3
135,139.96,143.95,3
136,139.88,143.87,3
136,139.80,143.79,3
135,139.71,143.70,3
135,139.61,143.61,3
137,139.56,143.55,3
135,139.47,143.46,3
135,139.38,143.38,3
135,139.29,143.29,3
135,139.21,143.21,3
134,139.10,143.12,3
135,139.02,143.04,3
135,138.94,142.96,3
135,138.86,142.88,3
133,138.74,142.78,3
131,138.59,142.66,3
136,138.54,142.60,3
135,138.47,142.52,3
133,138.36,142.42,3
133,138.25,142.33,3
135,138.19,142.26,3
133,138.08,142.16,3
133,137.98,142.07,3
133,137.88,141.98,3
135,137.82,141.91,3
133,137.73,141.82,3
135,137.67,141.75,3
133,137.58,141.67,3
135,137.53,141.60,3
134,137.46,141.52,3
133,137.37,141.44,3
133,137.28,141.35,3
135,137.23,141.29,3
133,137.15,141.21,3
134,137.09,141.14,3
133,137.00,141.05,3
133,136.92,140.97,3
133,136.85,140.89,3
133,136.77,140.82,3
133,136.69,140.74,3
133,136.62,140.66,3
133,136.55,140.58,3
132,136.46,140.50,3
132,136.37,140.41,3
132,136.28,140.33,3
132,136.19,140.25,3
131,136.09,140.15,3
133,136.03,140.08,3
132,135.95,140.00,3
133,135.89,139.93,3
131,135.79,139.84,3
134,135.76,139.78,3
132,135.68,139.71,3
131,135.59,139.62,3
134,135.56,139.56,3
132,135.48,139.49,3
132,135.41,139.41,3
131,135.33,139.33,3
131,135.24,139.24,3
133,135.19,139.18,3
133,135.15,139.12,3
131,135.07,139.04,3
132,135.01,138.97,3
132,134.95,138.90,3
132,134.89,138.83,3
131,134.81,138.75,3
131,134.73,138.67,3
131,134.66,138.60,3
131,134.59,138.52,3
131,134.51,138.45,3
130,134.42,138.36,3
132,134.38,138.30,3
131,134.31,138.22,3
130,134.22,138.14,3
130,134.14,138.06,3
131,134.07,137.99,3
129,133.97,137.90,3
131,133.91,137.83,3
129,133.82,137.74,3
131,133.76,137.68,3
130,133.68,137.60,3
129,133.59,137.51,3
131,133.54,137.45,3
131,133.49,137.38,3
129,133.40,137.30,3
130,133.33,137.23,3
131,133.28,137.16,3
129,133.20,137.08,3
130,133.13,137.01,3
130,133.07,136.94,3
130,133.01,136.87,3
130,132.95,136.80,3
129,132.87,136.73,3
129,132.79,136.65,3
130,132.74,136.58,3
129,132.66,136.51,3
129,132.59,136.43,3
128,132.50,136.35,3
130,132.45,136.28,3
128,132.36,136.20,3
129,132.29,136.13,3
128,132.21,136.05,3
129,132.14,135.98,3
128,132.06,135.90,3
128,131.98,135.82,3
127,131.88,135.73,3
129,131.82,135.66,3
127,131.72,135.58,3
128,131.65,135.50,3
127,131.56,135.41,3
129,131.51,135.35,3
128,131.44,135.28,3
128,131.37,135.20,3
127,131.28,135.12,3
128,131.21,135.05,3
127,131.13,134.97,3
127,131.05,134.89,3
129,131.01,134.83,3
127,130.93,134.75,3
127,130.85,134.68,3
127,130.77,134.60,3
129,130.73,134.54,3
127,130.66,134.47,3
127,130.59,134.39,3
127,130.52,134.32,3
128,130.46,134.26,3
127,130.40,134.18,3
127,130.33,134.11,3
127,130.26,134.04,3
128,130.22,133.98,3
127,130.15,133.91,3
126,130.07,133.83,3
126,129.99,133.75,3
126,129.91,133.68,3
127,129.85,133.61,3
126,129.77,133.53,3
126,129.70,133.46,3
127,129.64,133.39,3
127,129.59,133.33,3
127,129.54,133.27,3
127,129.49,133.20,3
127,129.44,133.14,3
127,129.39,133.08,3
125,129.30,133.00,3
125,129.22,132.92,3
126,129.15,132.85,3
127,129.11,132.79,3
125,129.03,132.71,3
127,128.99,132.66,3
127,128.95,132.60,3
126,128.89,132.53,3
126,128.83,132.47,3
128,128.81,132.42,3
126,128.76,132.36,3
126,128.70,132.30,3
126,128.65,132.23,3
126,128.59,132.17,3
127,128.56,132.12,3
125,128.49,132.05,3
125,128.42,131.98,3
127,128.39,131.93,3
127,128.36,131.88,3
125,128.30,131.81,3
126,128.25,131.75,3
125,128.19,131.68,3
127,128.16,131.64,3
125,128.10,131.57,3
126,128.06,131.51,3
127,128.04,131.47,3
127,128.02,131.42,3
127,128.00,131.38,3
126,127.96,131.33,3
127,127.94,131.28,3
125,127.88,131.22,3
125,127.82,131.16,3
125,127.76,131.10,3
127,127.75,131.06,3
126,127.71,131.01,3
125,127.66,130.95,3
125,127.61,130.89,3
126,127.57,130.84,3
125,127.52,130.78,3
125,127.47,130.72,3
125,127.42,130.66,3
126,127.39,130.62,3
125,127.35,130.56,3
124,127.28,130.50,3
127,127.27,130.46,3
125,127.23,130.41,3
125,127.18,130.35,3
125,127.14,130.30,3
127,127.14,130.27,3
125,127.09,130.21,3
124,127.03,130.15,3
125,126.99,130.10,3
126,126.97,130.06,3
123,126.89,129.99,3
125,126.85,129.94,3
124,126.80,129.88,3
126,126.78,129.84,3
124,126.73,129.78,3
124,126.67,129.72,3
124,126.62,129.67,3
127,126.63,129.64,3
125,126.59,129.59,3
124,126.54,129.54,3
125,126.51,129.49,3
125,126.48,129.45,3
124,126.43,129.39,3
123,126.36,129.33,3
124,126.31,129.28,3
125,126.29,129.23,3
125,126.26,129.19,3
124,126.22,129.14,3
124,126.17,129.09,3
124,126.13,129.04,3
124,126.09,128.99,3
123,126.03,128.93,3
125,126.00,128.89,3
124,125.96,128.84,3
125,125.95,128.80,3
124,125.91,128.75,3
125,125.89,128.71,3
124,125.85,128.67,3
123,125.79,128.61,3
123,125.74,128.55,3
124,125.70,128.51,3
124,125.67,128.46,3
123,125.62,128.41,3
123,125.56,128.35,3
124,125.53,128.31,3
124,125.50,128.27,3
123,125.45,128.22,3
123,125.40,128.16,3
123,125.35,128.11,3
123,125.31,128.06,3
122,125.24,128.00,3
122,125.18,127.94,3
123,125.13,127.89,3
121,125.05,127.82,3
123,125.01,127.77,3
121,124.93,127.71,3
124,124.91,127.67,3
121,124.83,127.60,3
121,124.76,127.54,3
121,124.68,127.47,3
123,124.65,127.43,3
121,124.57,127.36,3
121,124.50,127.30,3
122,124.45,127.24,3
123,124.42,127.20,3
121,124.35,127.14,3
121,124.29,127.08,3
123,124.26,127.04,3
123,124.24,127.00,3
121,124.17,126.94,3
121,124.11,126.88,3
122,124.07,126.83,3
122,124.03,126.78,3
121,123.96,126.72,3
121,123.91,126.67,3
123,123.89,126.63,3
121,123.83,126.57,3
121,123.77,126.52,3
121,123.72,126.46,3
122,123.68,126.42,3
121,123.63,126.36,3
121,123.58,126.31,3
120,123.51,126.25,3
121,123.46,126.19,3
120,123.39,126.13,3
121,123.34,126.08,3
121,123.29,126.03,3
122,123.27,125.99,3
120,123.20,125.93,3
120,123.14,125.87,3
120,123.07,125.81,3
122,123.05,125.77,3
121,123.01,125.73,3
120,122.95,125.67,3
120,122.89,125.61,3
121,122.85,125.57,3
120,122.80,125.51,3
119,122.72,125.45,3
120,122.67,125.39,3
120,122.61,125.34,3
121,122.58,125.29,3
120,122.53,125.24,3
122,122.52,125.21,3
119,122.45,125.15,3
120,122.40,125.09,3
119,122.33,125.03,3
120,122.28,124.98,3
120,122.24,124.93,3
119,122.17,124.87,3
119,122.11,124.82,3
120,122.07,124.77,3
123,122.09,124.75,3
119,122.03,124.69,3
119,121.97,124.64,3
120,121.93,124.59,3
119,121.87,124.53,3
119,121.81,124.48,3
119,121.75,124.42,3
117,121.66,124.35,3
119,121.61,124.30,3
118,121.53,124.23,3
119,121.48,124.18,3
119,121.43,124.13,3
119,121.38,124.08,3
117,121.30,124.01,3
117,121.21,123.94,3
119,121.17,123.89,3
115,121.04,123.80,3
117,120.96,123.73,3
117,120.88,123.66,3
118,120.83,123.61,3
117,120.75,123.54,3
119,120.71,123.49,3
118,120.66,123.44,3
118,120.61,123.39,3
117,120.53,123.32,3
119,120.50,123.28,3
119,120.47,123.24,3
119,120.44,123.19,3
117,120.38,123.13,3
117,120.31,123.07,3
119,120.28,123.03,3
118,120.24,122.98,3
117,120.17,122.92,3
116,120.09,122.85,3
119,120.07,122.81,3
117,120.00,122.75,3
117,119.94,122.70,3
117,119.89,122.64,3
119,119.87,122.60,3
117,119.81,122.55,3
117,119.75,122.49,3
117,119.70,122.44,3
117,119.65,122.38,3
119,119.63,122.35,3
117,119.58,122.29,3
117,119.53,122.24,3
118,119.50,122.20,3
117,119.45,122.15,3
117,119.40,122.10,3
117,119.35,122.04,3
119,119.34,122.01,3
117,119.30,121.96,3
117,119.25,121.91,3
116,119.19,121.86,3
118,119.16,121.82,3
120,119.18,121.80,3
118,119.16,121.76,3
117,119.11,121.71,3
118,119.09,121.68,3
117,119.05,121.63,3
117,119.01,121.58,3
119,119.01,121.56,3
118,118.99,121.52,3
117,118.95,121.48,3
117,118.91,121.43,3
119,118.91,121.41,3
117,118.87,121.36,3
117,118.83,121.32,3
116,118.78,121.27,3
119,118.78,121.24,3
117,118.75,121.20,3
117,118.71,121.16,3
116,118.66,121.11,3
117,118.62,121.07,3
117,118.59,121.03,3
117,118.56,120.99,3
117,118.53,120.95,3
118,118.52,120.92,3
117,118.49,120.88,3
117,118.46,120.84,3
116,118.41,120.79,3
117,118.38,120.75,3
117,118.35,120.71,3
117,118.33,120.68,3
116,118.28,120.63,3
117,118.25,120.59,3
117,118.23,120.56,3
116,118.18,120.51,3
116,118.14,120.47,3
117,118.12,120.43,3
117,118.10,120.40,3
116,118.05,120.35,3
117,118.03,120.32,3
117,118.01,120.29,3
117,117.99,120.25,3
116,117.95,120.21,3
118,117.95,120.19,3
116,117.91,120.15,3
116,117.88,120.11,3
116,117.84,120.07,3
117,117.82,120.04,3
115,117.76,119.98,3
116,117.73,119.94,3
115,117.67,119.90,3
117,117.66,119.87,3
117,117.65,119.84,3
115,117.60,119.79,3
116,117.56,119.75,3
117,117.55,119.72,3
115,117.50,119.68,3
118,117.51,119.66,3
115,117.46,119.61,3
117,117.45,119.59,3
116,117.42,119.55,3
115,117.37,119.51,3
115,117.33,119.46,3
117,117.32,119.44,3
116,117.29,119.40,3
116,117.27,119.37,3
115,117.22,119.32,3
116,117.20,119.29,3
116,117.17,119.26,3
117,117.17,119.24,3
115,117.13,119.19,3
117,117.12,119.17,3
113,117.04,119.11,3
114,116.98,119.06,3
116,116.96,119.03,3
116,116.94,119.00,3
115,116.90,118.96,3
114,116.85,118.91,3
116,116.83,118.88,3
115,116.79,118.84,3
115,116.76,118.80,3
113,116.68,118.74,3
116,116.67,118.72,3
115,116.63,118.68,3
115,116.60,118.64,3
114,116.55,118.60,3
115,116.52,118.56,3
115,116.49,118.52,3
115,116.46,118.49,3
113,116.39,118.43,3
116,116.38,118.41,3
114,116.33,118.37,3
115,116.31,118.33,3
113,116.24,118.28,3
115,116.22,118.25,3
114,116.17,118.20,3
114,116.13,118.16,3
114,116.09,118.12,3
115,116.06,118.09,3
111,115.96,118.02,3
113,115.90,117.97,3
113,115.85,117.92,3
115,115.83,117.89,3
114,115.79,117.85,3
113,115.74,117.80,3
113,115.68,117.75,3
113,115.63,117.71,3
113,115.58,117.66,3
113,115.52,117.61,3
116,115.53,117.60,3
112,115.46,117.54,3
113,115.41,117.49,3
111,115.33,117.43,3
113,115.28,117.39,3
114,115.25,117.35,3
114,115.23,117.32,3
113,115.18,117.27,3
115,115.18,117.25,3
113,115.14,117.21,3
113,115.09,117.17,3
113,115.05,117.13,3
114,115.03,117.09,3
113,114.99,117.05,3
112,114.93,117.00,3
113,114.89,116.96,3
113,114.85,116.92,3
113,114.82,116.88,3
113,114.78,116.85,3
112,114.72,116.80,3
113,114.69,116.76,3
113,114.66,116.72,3
114,114.64,116.69,3
112,114.59,116.65,3
113,114.56,116.61,3
113,114.53,116.57,3
112,114.48,116.53,3
111,114.41,116.47,3
113,114.38,116.44,3
113,114.35,116.40,3
112,114.30,116.36,3
113,114.28,116.33,3
113,114.25,116.29,3
113,114.23,116.26,3
112,114.18,116.22,3
113,114.16,116.19,3
112,114.12,116.14,3
111,114.05,116.09,3
112,114.01,116.05,3
113,113.99,116.02,3
112,113.95,115.98,3
113,113.93,115.95,3
112,113.90,115.91,3
113,113.88,115.88,3
111,113.82,115.83,3
111,113.76,115.79,3
111,113.71,115.74,3
113,113.69,115.71,3
111,113.64,115.66,3
113,113.63,115.64,3
113,113.61,115.61,3
113,113.60,115.58,3
112,113.57,115.55,3
111,113.52,115.50,3
111,113.47,115.46,3
114,113.48,115.44,3
111,113.43,115.40,3
113,113.42,115.37,3
109,113.33,115.31,3
113,113.33,115.29,3
111,113.28,115.24,3
111,113.23,115.20,3
111,113.19,115.16,3
111,113.15,115.12,3
111,113.10,115.08,3
111,113.06,115.04,3
112,113.04,115.01,3
111,113.00,114.97,3
111,112.96,114.93,3
111,112.92,114.89,3
113,112.92,114.87,3
111,112.88,114.83,3
112,112.86,114.80,3
111,112.83,114.76,3
113,112.83,114.75,3
111,112.79,114.71,3
111,112.76,114.67,3
111,112.72,114.63,3
113,112.73,114.62,3
113,112.73,114.60,3
113,112.74,114.59,3
111,112.70,114.55,3
113,112.71,114.53,3
111,112.68,114.50,3
111,112.64,114.46,3
111,112.61,114.43,3
113,112.62,114.42,3
111,112.59,114.38,3
111,112.55,114.35,3
111,112.52,114.31,3
112,112.51,114.29,3
111,112.48,114.26,3
111,112.45,114.23,3
111,112.42,114.19,3
112,112.41,114.17,3
111,112.39,114.14,3
111,112.36,114.11,3
115,112.41,114.12,3
111,112.38,114.09,3
111,112.36,114.06,3
111,112.33,114.02,3
111,112.30,113.99,3
111,112.28,113.96,3
111,112.25,113.93,3
110,112.21,113.90,3
112,112.20,113.88,3
113,112.22,113.87,3
110,112.17,113.83,3
110,112.13,113.79,3
112,112.13,113.77,3
111,112.10,113.75,3
110,112.06,113.71,3
111,112.04,113.68,3
112,112.04,113.66,3
111,112.02,113.64,3
109,111.96,113.59,3
109,111.90,113.54,3
111,111.88,113.52,3
111,111.86,113.49,3
110,111.83,113.46,3
109,111.77,113.41,3
112,111.78,113.40,3
109,111.72,113.36,3
109,111.67,113.31,3
109,111.61,113.27,3
111,111.60,113.25,3
109,111.55,113.20,3
109,111.50,113.16,3
109,111.45,113.12,3
111,111.44,113.10,3
109,111.39,113.06,3
109,111.34,113.02,3
109,111.29,112.98,3
110,111.27,112.95,3
109,111.22,112.91,3
109,111.18,112.87,3
110,111.16,112.84,3
110,111.13,112.81,3
109,111.09,112.77,3
109,111.05,112.74,3
111,111.05,112.72,3
109,111.01,112.68,3
108,110.95,112.64,3
109,110.91,112.60,3
111,110.91,112.58,3
109,110.87,112.55,3
109,110.83,112.51,3
109,110.80,112.48,3
111,110.80,112.46,3
109,110.76,112.43,3
109,110.73,112.39,3
109,110.69,112.36,3
109,110.66,112.33,3
111,110.67,112.31,3
110,110.65,112.29,3
109,110.62,112.26,3
111,110.63,112.24,3
110,110.62,112.22,3
109,110.58,112.19,3
108,110.53,112.15,3
111,110.54,112.14,3
109,110.51,112.10,3
109,110.48,112.07,3
109,110.45,112.04,3
109,110.42,112.01,3
109,110.39,111.98,3
109,110.37,111.95,3
110,110.36,111.93,3
109,110.33,111.90,3
109,110.30,111.87,3
109,110.28,111.85,3
109,110.25,111.82,3
111,110.27,111.81,3
109,110.24,111.78,3
108,110.20,111.74,3
110,110.19,111.73,3
109,110.17,111.70,3
108,110.13,111.66,3
109,110.10,111.63,3
110,110.10,111.62,3
109,110.08,111.59,3
109,110.06,111.57,3
108,110.02,111.53,3
111,110.04,111.53,3
108,110.00,111.49,3
108,109.96,111.45,3
109,109.94,111.43,3
109,109.92,111.41,3
109,109.90,111.38,3
109,109.88,111.36,3
107,109.82,111.31,3
112,109.87,111.32,3
107,109.81,111.28,3
109,109.79,111.26,3
108,109.76,111.22,3
110,109.76,111.21,3
108,109.73,111.18,3
107,109.67,111.14,3
108,109.64,111.11,3
109,109.63,111.08,3
107,109.57,111.04,3
109,109.56,111.02,3
108,109.53,110.99,3
108,109.50,110.96,3
108,109.47,110.93,3
109,109.46,110.91,3
109,109.45,110.89,3
107,109.40,110.86,3
109,109.40,110.84,3
108,109.37,110.81,3
110,109.38,110.80,3
107,109.33,110.76,3
108,109.31,110.74,3
107,109.26,110.70,3
109,109.25,110.68,3
107,109.21,110.64,3
108,109.19,110.62,3
107,109.14,110.58,3
109,109.14,110.57,3
107,109.10,110.53,3
109,109.09,110.51,3
109,109.09,110.50,3
111,109.13,110.50,3
107,109.09,110.47,3
110,109.11,110.46,3
108,109.08,110.44,3
109,109.08,110.43,3
109,109.08,110.41,3
108,109.06,110.39,3
110,109.08,110.38,3
109,109.08,110.37,3
108,109.05,110.35,3
107,109.01,110.31,3
109,109.01,110.30,3
109,109.01,110.29,3
109,109.01,110.27,3
108,108.99,110.25,3
108,108.97,110.23,3
108,108.95,110.21,3
109,108.95,110.19,3
108,108.94,110.17,3
109,108.94,110.16,3
109,108.94,110.15,3
107,108.90,110.12,3
108,108.88,110.10,3
111,108.92,110.11,3
109,108.92,110.09,3
107,108.89,110.06,3
108,108.87,110.04,3
109,108.87,110.03,3
108,108.85,110.01,3
107,108.82,109.98,3
108,108.80,109.96,3
109,108.80,109.95,3
109,108.81,109.94,3
108,108.79,109.92,3
109,108.80,109.91,3
109,108.80,109.90,3
106,108.74,109.87,3
109,108.75,109.86,3
107,108.71,109.83,3
109,108.72,109.82,3
106,108.67,109.78,3
108,108.65,109.76,3
107,108.62,109.74,3
108,108.61,109.72,3
109,108.61,109.71,3
109,108.62,109.70,3
107,108.59,109.68,3
108,108.58,109.66,3
107,108.55,109.63,3
109,108.56,109.63,3
111,108.60,109.64,3
109,108.61,109.64,3
109,108.62,109.63,3
109,108.63,109.62,3
109,108.64,109.62,3
111,108.68,109.63,3
113,108.77,109.66,3
111,108.81,109.68,3
111,108.86,109.69,3
109,108.86,109.68,3
109,108.86,109.68,3
109,108.87,109.67,3
109,108.87,109.66,3
110,108.89,109.67,3
109,108.89,109.66,3
110,108.92,109.66,3
111,108.96,109.68,3
109,108.96,109.67,3
109,108.96,109.66,3
109,108.96,109.66,3
110,108.98,109.66,3
110,109.00,109.66,3
110,109.02,109.67,3
109,109.02,109.66,3
112,109.08,109.68,3
109,109.08,109.68,3
109,109.08,109.67,3
109,109.08,109.66,3
110,109.09,109.67,3
111,109.13,109.68,3
110,109.15,109.68,3
109,109.15,109.68,3
110,109.16,109.68,3
109,109.16,109.67,3
109,109.16,109.67,3
109,109.15,109.66,3
113,109.23,109.69,3
112,109.29,109.72,3
112,109.34,109.74,3
113,109.41,109.77,3
111,109.45,109.78,3
110,109.46,109.79,3
111,109.49,109.80,3
111,109.52,109.81,3
109,109.51,109.80,3
111,109.54,109.81,3
111,109.57,109.83,3
112,109.61,109.85,3
110,109.62,109.85,3
109,109.61,109.84,3
111,109.64,109.85,3
109,109.63,109.84,3
111,109.65,109.86,3
111,109.68,109.87,3
110,109.69,109.87,3
112,109.73,109.89,3
111,109.76,109.90,3
112,109.80,109.92,3
117,109.95,109.99,3
116,110.07,110.05,3
112,110.11,110.07,3
113,110.16,110.10,3
116,110.28,110.16,3
115,110.38,110.21,3
117,110.51,110.28,3
113,110.56,110.30,3
115,110.65,110.35,3
115,110.73,110.40,3
113,110.78,110.42,3
116,110.88,110.48,3
115,110.97,110.52,3
117,111.09,110.59,3
117,111.20,110.65,3
121,111.40,110.76,3
123,111.63,110.88,3
117,111.74,110.94,3
119,111.89,111.02,3
121,112.07,111.12,3
123,112.29,111.24,3
126,112.56,111.39,3
123,112.77,111.50,3
121,112.93,111.60,3
123,113.13,111.71,3
121,113.29,111.80,3
121,113.45,111.90,3
125,113.68,112.03,3
126,113.92,112.17,3
124,114.13,112.29,3
123,114.30,112.39,3
125,114.52,112.52,3
124,114.71,112.63,3
126,114.93,112.77,3
125,115.13,112.89,3
124,115.31,113.00,3
125,115.50,113.12,3
123,115.65,113.22,3
126,115.86,113.35,3
125,116.04,113.46,3
125,116.22,113.58,3
125,116.40,113.69,3
124,116.55,113.80,3
124,116.70,113.90,3
124,116.85,114.00,3
125,117.01,114.11,3
125,117.17,114.22,3
125,117.33,114.33,3
125,117.48,114.43,3
127,117.67,114.56,3
125,117.82,114.66,3
125,117.96,114.77,3
125,118.10,114.87,3
127,118.28,114.99,3
129,118.49,115.13,3
127,118.66,115.25,3
125,118.79,115.35,3
129,118.99,115.48,3
133,119.27,115.66,3
128,119.45,115.78,3
129,119.64,115.91,3
132,119.89,116.07,3
128,120.05,116.19,3
131,120.27,116.34,3
129,120.44,116.47,3
138,120.79,116.68,3
134,121.06,116.86,3
132,121.28,117.01,3
133,121.51,117.17,3
134,121.76,117.34,3
137,122.07,117.53,3
135,122.32,117.71,3
132,122.52,117.85,3
133,122.73,118.00,3
137,123.01,118.19,3
135,123.25,118.36,3
134,123.47,118.52,3
134,123.68,118.67,3
135,123.91,118.84,3
135,124.13,119.00,3
137,124.38,119.18,3
133,124.56,119.32,3
138,124.83,119.50,3
138,125.09,119.69,3
141,125.41,119.90,3
142,125.74,120.12,3
138,125.98,120.30,3
140,126.26,120.50,3
137,126.48,120.66,3
139,126.73,120.85,3
138,126.96,121.02,3
137,127.16,121.18,3
139,127.39,121.35,3
138,127.61,121.52,3
137,127.79,121.68,3
138,128.00,121.84,3
137,128.18,121.99,3
137,128.35,122.14,3
140,128.59,122.32,3
137,128.75,122.47,3
137,128.92,122.61,3
138,129.10,122.77,3
138,129.28,122.92,3
141,129.51,123.10,3
138,129.68,123.25,3
141,129.91,123.43,3
141,130.13,123.60,3
141,130.35,123.78,3
140,130.54,123.94,3
144,130.81,124.14,3
145,131.10,124.35,3
144,131.35,124.54,3
141,131.55,124.71,3
144,131.80,124.90,3
143,132.02,125.08,3
143,132.24,125.26,3
144,132.47,125.45,3
144,132.70,125.63,3
149,133.03,125.87,3
145,133.27,126.06,3
143,133.46,126.23,3
146,133.72,126.43,3
144,133.92,126.60,3
146,134.16,126.80,3
147,134.42,127.00,3
145,134.63,127.18,3
145,134.84,127.36,3
144,135.02,127.52,3
143,135.18,127.68,3
145,135.38,127.85,3
149,135.65,128.06,3
146,135.86,128.24,3
145,136.04,128.41,3
149,136.30,128.61,3
147,136.51,128.80,3
150,136.78,129.01,3
148,137.01,129.20,3
150,137.27,129.41,3
153,137.58,129.64,3
159,138.01,129.94,3
155,138.35,130.19,3
151,138.60,130.40,3
153,138.89,130.62,3
153,139.17,130.85,3
157,139.53,131.11,3
157,139.88,131.37,3
159,140.26,131.64,3
159,140.64,131.92,3
156,140.94,132.16,3
163,141.38,132.47,3
169,141.94,132.83,3
169,142.48,133.19,3
163,142.89,133.49,3
161,143.25,133.77,3
161,143.61,134.04,3
162,143.97,134.32,3
163,144.35,134.61,3
162,144.71,134.88,3
161,145.03,135.14,3
161,145.35,135.40,3
165,145.75,135.69,3
164,146.11,135.98,3
162,146.43,136.24,3
164,146.78,136.52,3
164,147.12,136.79,3
165,147.48,137.07,3
169,147.91,137.39,3
165,148.25,137.67,3
165,148.59,137.94,3
167,148.96,138.23,3
165,149.28,138.50,3
165,149.59,138.76,3
165,149.90,139.03,3
167,150.24,139.31,3
165,150.54,139.56,3
167,150.87,139.84,3
170,151.25,140.14,3
167,151.56,140.41,3
166,151.85,140.66,3
166,152.14,140.92,3
169,152.47,141.20,3
169,152.80,141.48,3
168,153.11,141.74,3
169,153.43,142.01,3
168,153.72,142.27,3
166,153.96,142.51,3
166,154.20,142.75,3
165,154.42,142.97,3
168,154.69,143.22,3
169,154.98,143.48,3
169,155.26,143.73,3
172,155.59,144.01,3
168,155.84,144.25,3
169,156.10,144.50,3
168,156.34,144.74,3
169,156.60,144.98,3
167,156.80,145.20,3
168,157.03,145.43,3
169,157.27,145.66,3
172,157.56,145.93,3
168,157.77,146.15,3
169,157.99,146.38,3
168,158.19,146.59,3
174,158.51,146.87,3
172,158.78,147.12,3
171,159.03,147.36,3
170,159.24,147.58,3
173,159.52,147.84,3
181,159.95,148.17,3
177,160.29,148.46,3
175,160.58,148.72,3
177,160.91,149.01,3
176,161.21,149.28,3
175,161.49,149.53,3
177,161.80,149.81,3
179,162.14,150.10,3
179,162.48,150.39,3
175,162.73,150.63,3
182,163.12,150.95,3
181,163.47,151.25,3
182,163.85,151.56,3
178,164.13,151.82,3
180,164.45,152.10,3
186,164.88,152.44,3
183,165.24,152.75,3
181,165.55,153.03,3
183,165.90,153.33,3
183,166.25,153.63,3
183,166.58,153.92,3
183,166.91,154.21,3
182,167.21,154.49,3
187,167.61,154.81,3
185,167.95,155.12,3
185,168.30,155.41,3
183,168.59,155.69,3
186,168.94,155.99,3
185,169.26,156.28,3
183,169.53,156.55,3
185,169.84,156.83,3
184,170.13,157.11,3
183,170.38,157.37,3
183,170.64,157.62,3
185,170.92,157.90,3
182,171.14,158.14,3
181,171.34,158.37,3
183,171.58,158.61,3
183,171.80,158.86,3
181,171.99,159.08,3
181,172.17,159.30,3
182,172.36,159.52,3
185,172.62,159.78,3
183,172.82,160.01,3
182,173.01,160.23,3
183,173.21,160.46,3
183,173.40,160.68,3
181,173.56,160.89,3
181,173.70,161.09,3
184,173.91,161.32,3
183,174.09,161.53,3
181,174.23,161.73,3
181,174.37,161.92,3
181,174.50,162.11,3
185,174.71,162.34,3
181,174.83,162.53,3
181,174.96,162.71,3
183,175.12,162.91,3
182,175.26,163.11,3
182,175.39,163.29,3
182,175.52,163.48,3
188,175.77,163.73,3
181,175.88,163.90,3
181,175.98,164.07,3
180,176.06,164.23,3
180,176.14,164.39,3
182,176.26,164.56,3
181,176.35,164.73,3
180,176.42,164.88,3
181,176.52,165.04,3
179,176.57,165.18,3
180,176.63,165.33,3
179,176.68,165.47,3
180,176.75,165.61,3
179,176.79,165.75,3
180,176.86,165.89,3
181,176.94,166.04,3
178,176.96,166.16,3
180,177.02,166.30,3
181,177.10,166.44,3
180,177.16,166.58,3
179,177.20,166.70,3
179,177.23,166.83,3
177,177.23,166.93,3
181,177.30,167.07,3
179,177.34,167.19,3
178,177.35,167.30,3
178,177.36,167.40,3
180,177.42,167.53,3
178,177.43,167.63,3
178,177.44,167.74,3
179,177.47,167.85,3
179,177.50,167.96,3
178,177.51,168.06,3
177,177.50,168.15,3
177,177.49,168.24,3
181,177.56,168.37,3
177,177.55,168.45,3
178,177.56,168.55,3
180,177.61,168.66,3
178,177.62,168.76,3
178,177.62,168.85,3
176,177.59,168.92,3
177,177.58,169.00,3
177,177.57,169.08,3
176,177.54,169.15,3
175,177.49,169.21,3
175,177.44,169.27,3
177,177.43,169.35,3
177,177.42,169.42,3
175,177.37,169.48,3
177,177.36,169.55,3
175,177.32,169.61,3
175,177.27,169.66,3
175,177.22,169.71,3
177,177.22,169.79,3
175,177.17,169.84,3
178,177.19,169.92,3
175,177.15,169.97,3
179,177.18,170.06,3
175,177.14,170.11,3
176,177.12,170.17,3
175,177.08,170.22,3
175,177.03,170.27,3
174,176.97,170.30,3
174,176.91,170.34,3
175,176.88,170.39,3
175,176.84,170.43,3
175,176.80,170.48,3
173,176.73,170.50,3
173,176.65,170.53,3
175,176.62,170.57,3
175,176.59,170.62,3
175,176.55,170.66,3
173,176.48,170.69,3
175,176.45,170.73,3
173,176.38,170.75,3
173,176.32,170.77,3
172,176.23,170.79,3
174,176.19,170.82,3
172,176.10,170.83,3
172,176.02,170.84,3
171,175.92,170.84,3
173,175.86,170.87,3
171,175.76,170.87,3
173,175.71,170.89,3
173,175.65,170.91,3
172,175.58,170.92,3
173,175.53,170.94,3
173,175.48,170.96,3
173,175.43,170.98,3
171,175.34,170.98,3
172,175.27,170.99,3
171,175.19,170.99,3
172,175.12,171.00,3
172,175.06,171.01,3
171,174.98,171.01,3
171,174.90,171.01,3
172,174.84,171.02,3
171,174.77,171.02,3
170,174.67,171.01,3
169,174.56,170.99,3
171,174.49,170.99,3
171,174.42,170.99,3
170,174.33,170.98,3
169,174.22,170.96,3
172,174.18,170.97,3
169,174.07,170.95,3
169,173.97,170.93,3
168,173.85,170.90,3
169,173.76,170.88,3
168,173.64,170.86,3
169,173.55,170.84,3
168,173.44,170.81,3
169,173.35,170.79,3
168,173.24,170.76,3
167,173.12,170.73,3
168,173.01,170.70,3
169,172.93,170.68,3
168,172.84,170.65,3
167,172.72,170.62,3
169,172.64,170.60,3
167,172.53,170.57,3
167,172.42,170.53,3
165,172.27,170.47,3
167,172.17,170.44,3
165,172.02,170.39,3
167,171.92,170.35,3
166,171.80,170.31,3
167,171.71,170.27,3
165,171.57,170.22,3
165,171.44,170.17,3
165,171.31,170.12,3
167,171.23,170.09,3
166,171.12,170.05,3
165,171.00,170.00,3
166,170.90,169.96,3
165,170.78,169.91,3
167,170.71,169.88,3
165,170.59,169.83,3
165,170.48,169.78,3
165,170.37,169.73,3
165,170.26,169.68,3
164,170.14,169.63,3
163,170.00,169.56,3
164,169.88,169.51,3
165,169.78,169.46,3
163,169.64,169.40,3
163,169.51,169.33,3
165,169.42,169.29,3
166,169.35,169.26,4
163,169.22,169.19,4
163,169.10,169.13,5
163,168.98,169.07,5
162,168.84,169.00,5
161,168.68,168.92,5
164,168.59,168.87,5
163,168.48,168.81,5
163,168.37,168.75,5
161,168.22,168.68,5
163,168.12,168.62,5
163,168.01,168.56,5
161,167.87,168.49,5
162,167.76,168.42,5
163,167.66,168.37,5
161,167.53,168.29,5
160,167.38,168.21,5
161,167.25,168.14,5
163,167.16,168.09,5
161,167.04,168.02,5
161,166.92,167.95,5
159,166.76,167.86,5
161,166.65,167.79,5
161,166.53,167.72,5
161,166.42,167.65,5
161,166.31,167.59,5
161,166.21,167.52,5
159,166.06,167.44,5
161,165.96,167.37,5
159,165.82,167.29,5
160,165.71,167.22,5
160,165.59,167.14,5
159,165.46,167.06,5
158,165.31,166.97,5
159,165.19,166.89,5
159,165.06,166.81,5
159,164.94,166.73,5
159,164.82,166.66,5
159,164.71,166.58,5
158,164.57,166.49,5
160,164.48,166.43,5
159,164.37,166.36,5
159,164.26,166.28,5
159,164.16,166.21,5
158,164.03,166.13,5
161,163.97,166.08,5
158,163.85,166.00,5
159,163.76,165.93,5
157,163.62,165.84,5
158,163.51,165.76,5
158,163.40,165.68,5
158,163.29,165.60,5
157,163.17,165.52,5
158,163.06,165.44,5
157,162.94,165.36,5
156,162.80,165.26,5
157,162.69,165.18,5
159,162.61,165.12,5
157,162.50,165.04,5
158,162.41,164.97,5
157,162.30,164.89,5
157,162.20,164.81,5
157,162.09,164.73,5
157,161.99,164.65,5
156,161.87,164.57,5
157,161.77,164.49,5
156,161.66,164.41,5
156,161.54,164.32,5
157,161.45,164.25,5
156,161.34,164.17,5
155,161.22,164.08,5
155,161.09,163.98,5
156,160.99,163.90,5
156,160.89,163.83,5
155,160.77,163.74,5
155,160.66,163.65,5
156,160.56,163.57,5
156,160.47,163.50,5
155,160.36,163.41,5
155,160.26,163.33,5
155,160.15,163.25,5
153,160.01,163.14,5
153,159.87,163.04,5
155,159.77,162.96,5
155,159.68,162.88,5
154,159.56,162.79,5
153,159.43,162.69,5
153,159.30,162.60,5
153,159.18,162.50,5
153,159.05,162.41,5
153,158.93,162.31,5
152,158.79,162.21,5
154,158.70,162.13,5
153,158.58,162.04,5
152,158.45,161.94,5
152,158.32,161.84,5
153,158.22,161.75,5
153,158.11,161.66,5
152,157.99,161.56,5
152,157.87,161.47,5
155,157.81,161.40,5
152,157.70,161.31,5
151,157.56,161.21,5
151,157.43,161.10,5
152,157.32,161.01,5
152,157.22,160.92,5
152,157.11,160.83,5
152,157.01,160.75,5
151,156.89,160.65,5
151,156.77,160.55,5
150,156.64,160.45,5
153,156.56,160.37,5
151,156.45,160.28,5
151,156.34,160.19,5
149,156.20,160.07,5
152,156.11,159.99,5
151,156.01,159.90,5
151,155.91,159.81,5
149,155.77,159.71,5
151,155.68,159.62,5
149,155.54,159.51,5
149,155.41,159.41,5
149,155.28,159.30,5
151,155.20,159.22,5
151,155.11,159.14,5
149,154.99,159.04,5
149,154.87,158.94,5
150,154.77,158.85,5
149,154.66,158.75,5
149,154.55,158.65,5
149,154.43,158.55,5
150,154.35,158.47,5
149,154.24,158.37,5
147,154.09,158.26,5
149,153.99,158.17,5
149,153.89,158.08,5
148,153.77,157.98,5
148,153.66,157.88,5
148,153.55,157.78,5
149,153.46,157.69,5
149,153.37,157.60,5
147,153.24,157.50,5
149,153.15,157.41,5
148,153.05,157.32,5
147,152.93,157.21,5
148,152.83,157.12,5
148,152.73,157.03,5
147,152.62,156.93,5
146,152.49,156.82,5
150,152.44,156.75,5
148,152.35,156.67,5
147,152.24,156.57,5
147,152.14,156.47,5
146,152.01,156.37,5
148,151.93,156.28,5
146,151.82,156.18,5
146,151.70,156.08,5
147,151.61,155.99,5
147,151.51,155.90,5
145,151.38,155.79,5
146,151.28,155.69,5
146,151.17,155.60,5
147,151.09,155.51,5
145,150.96,155.40,5
145,150.85,155.30,5
144,150.71,155.19,5
145,150.59,155.09,5
145,150.48,154.98,5
144,150.35,154.87,5
144,150.23,154.77,5
145,150.12,154.67,5
145,150.02,154.57,5
144,149.90,154.47,5
144,149.78,154.36,5
145,149.68,154.27,5
145,149.59,154.18,5
143,149.46,154.06,5
145,149.37,153.97,5
145,149.28,153.88,5
144,149.18,153.78,5
145,149.09,153.70,5
144,148.99,153.60,5
145,148.91,153.51,5
144,148.81,153.42,5
143,148.70,153.31,5
146,148.64,153.24,5
145,148.57,153.16,5
143,148.46,153.06,5
143,148.35,152.96,5
145,148.28,152.88,5
143,148.18,152.78,5
143,148.07,152.68,5
143,147.97,152.58,5
145,147.91,152.51,5
143,147.81,152.41,5
143,147.72,152.32,5
143,147.62,152.23,5
143,147.53,152.13,5
143,147.44,152.04,5
142,147.33,151.94,5
141,147.21,151.83,5
144,147.14,151.75,5
141,147.02,151.65,5
141,146.90,151.54,5
145,146.86,151.47,5
142,146.76,151.38,5
141,146.65,151.28,5
142,146.55,151.18,5
141,146.44,151.08,5
142,146.35,150.99,5
141,146.25,150.89,5
141,146.14,150.79,5
145,146.12,150.73,5
141,146.02,150.64,5
141,145.92,150.54,5
141,145.82,150.44,5
142,145.74,150.36,5
141,145.65,150.27,5
143,145.59,150.19,5
141,145.50,150.10,5
142,145.43,150.02,5
142,145.36,149.94,5
140,145.26,149.84,5
141,145.17,149.75,5
141,145.09,149.67,5
140,144.99,149.57,5
140,144.89,149.47,5
141,144.81,149.39,5
140,144.71,149.29,5
141,144.64,149.21,5
139,144.53,149.11,5
139,144.42,149.01,5
141,144.35,148.93,5
139,144.24,148.83,5
140,144.16,148.74,5
140,144.07,148.65,5
140,143.99,148.57,5
139,143.89,148.47,5
139,143.79,148.38,5
138,143.68,148.27,5
139,143.58,148.18,5
137,143.45,148.07,5
139,143.36,147.98,5
139,143.28,147.89,5
140,143.21,147.81,5
138,143.11,147.71,5
140,143.04,147.63,5
139,142.96,147.55,5
139,142.88,147.46,5
137,142.77,147.36,5
138,142.67,147.26,5
140,142.62,147.19,5
139,142.55,147.11,5
137,142.43,147.01,5
137,142.33,146.91,5
139,142.26,146.83,5
139,142.19,146.75,5
137,142.09,146.65,5
137,141.99,146.56,5
139,141.93,146.48,5
137,141.83,146.39,5
137,141.73,146.29,5
137,141.64,146.20,5
139,141.59,146.13,5
137,141.49,146.04,5
136,141.38,145.94,5
136,141.28,145.84,5
137,141.19,145.75,5
137,141.11,145.66,5
137,141.03,145.57,5
136,140.92,145.48,5
137,140.85,145.39,5
137,140.77,145.31,5
136,140.67,145.22,5
136,140.58,145.12,5
137,140.51,145.04,5
136,140.42,144.95,5
136,140.33,144.86,5
137,140.26,144.78,5
136,140.18,144.70,5
136,140.09,144.61,5
135,139.99,144.51,5
138,139.95,144.45,5
135,139.85,144.35,5
137,139.80,144.28,5
135,139.70,144.19,5
136,139.63,144.11,5
135,139.53,144.01,5
135,139.44,143.92,5
135,139.35,143.84,5
138,139.33,143.78,5
135,139.24,143.69,5
135,139.16,143.60,5
134,139.05,143.51,5
135,138.97,143.42,5
135,138.89,143.34,5
136,138.83,143.26,5
135,138.76,143.18,5
136,138.70,143.11,5
135,138.63,143.03,5
134,138.54,142.94,5
133,138.43,142.84,5
135,138.36,142.76,5
133,138.25,142.66,5
133,138.15,142.57,5
133,138.04,142.47,5
134,137.96,142.39,5
135,137.90,142.31,5
133,137.80,142.22,5
133,137.71,142.13,5
133,137.61,142.03,5
133,137.52,141.94,5
133,137.43,141.86,5
134,137.36,141.78,5
132,137.26,141.68,5
133,137.17,141.59,5
131,137.05,141.49,5
133,136.97,141.40,5
133,136.89,141.32,5
131,136.77,141.21,5
131,136.65,141.11,5
133,136.58,141.03,5
132,136.49,140.94,5
131,136.38,140.84,5
131,136.27,140.74,5
133,136.21,140.67,5
132,136.12,140.58,5
132,136.04,140.49,5
131,135.94,140.40,5
133,135.88,140.32,5
131,135.78,140.23,5
131,135.69,140.14,5
131,135.59,140.05,5
133,135.54,139.98,5
131,135.45,139.89,5
131,135.36,139.80,5
131,135.27,139.71,5
133,135.23,139.64,5
131,135.14,139.56,5
132,135.08,139.48,5
131,135.00,139.40,5
133,134.96,139.33,5
131,134.88,139.25,5
131,134.80,139.17,5
131,134.73,139.08,5
131,134.65,139.00,5
131,134.58,138.92,5
131,134.51,138.84,5
132,134.46,138.78,5
130,134.37,138.69,5
129,134.26,138.59,5
130,134.18,138.51,5
131,134.11,138.43,5
133,134.09,138.38,5
130,134.01,138.29,5
130,133.93,138.21,5
132,133.89,138.15,5
130,133.81,138.07,5
131,133.76,138.00,5
129,133.66,137.91,5
131,133.61,137.84,5
129,133.51,137.75,5
131,133.46,137.68,5
129,133.38,137.59,5
132,133.35,137.54,5
129,133.26,137.45,5
129,133.18,137.37,5
129,133.09,137.28,5
131,133.05,137.22,5
128,132.95,137.13,5
130,132.89,137.06,5
128,132.79,136.97,5
129,132.72,136.89,5
129,132.64,136.81,5
129,132.57,136.73,5
129,132.50,136.65,5
130,132.45,136.59,5
128,132.36,136.50,5
129,132.29,136.43,5
129,132.23,136.35,5
129,132.16,136.28,5
128,132.08,136.20,5
128,132.00,136.11,5
131,131.98,136.06,5
129,131.92,135.99,5
128,131.84,135.91,5
128,131.76,135.83,5
129,131.71,135.76,5
128,131.63,135.69,5
128,131.56,135.61,5
128,131.49,135.53,5
129,131.44,135.47,5
128,131.37,135.39,5
127,131.28,135.31,5
127,131.20,135.23,5
129,131.15,135.16,5
128,131.09,135.09,5
128,131.03,135.02,5
127,130.95,134.94,5
129,130.91,134.88,5
127,130.83,134.80,5
127,130.75,134.73,5
127,130.68,134.65,5
128,130.63,134.58,5
128,130.57,134.52,5
127,130.50,134.44,5
127,130.43,134.37,5
127,130.36,134.29,5
127,130.30,134.22,5
127,130.23,134.15,5
127,130.17,134.08,5
127,130.10,134.01,5
127,130.04,133.94,5
127,129.98,133.87,5
127,129.92,133.80,5
128,129.88,133.74,5
126,129.80,133.66,5
125,129.71,133.58,5
128,129.67,133.52,5
127,129.62,133.45,5
127,129.57,133.39,5
127,129.52,133.33,5
127,129.47,133.26,5
127,129.42,133.20,5
125,129.33,133.12,5
126,129.26,133.05,5
127,129.22,132.99,5
126,129.15,132.92,5
127,129.11,132.86,5
125,129.03,132.78,5
127,128.99,132.72,5
126,128.93,132.65,5
125,128.85,132.58,5
125,128.77,132.50,5
127,128.74,132.45,5
126,128.68,132.38,5
127,128.65,132.33,5
125,128.57,132.25,5
127,128.54,132.20,5
125,128.47,132.13,5
125,128.40,132.06,5
125,128.33,131.99,5
127,128.31,131.94,5
125,128.24,131.87,5
125,128.18,131.80,5
125,128.11,131.73,5
123,128.01,131.65,5
125,127.95,131.58,5
125,127.89,131.51,5
125,127.83,131.45,5
125,127.78,131.38,5
125,127.72,131.32,5
125,127.67,131.26,5
126,127.63,131.20,5
125,127.58,131.14,5
124,127.51,131.07,5
124,127.44,131.00,5
126,127.41,130.95,5
125,127.36,130.89,5
125,127.32,130.83,5
124,127.25,130.76,5
125,127.20,130.71,5
124,127.14,130.64,5
123,127.06,130.56,5
124,127.00,130.50,5
126,126.98,130.45,5
124,126.92,130.39,5
123,126.84,130.31,5
124,126.78,130.25,5
124,126.73,130.19,5
125,126.69,130.14,5
124,126.64,130.07,5
123,126.56,130.00,5
125,126.53,129.95,5
123,126.46,129.88,5
123,126.39,129.81,5
124,126.35,129.76,5
124,126.30,129.70,5
123,126.23,129.63,5
123,126.17,129.57,5
123,126.10,129.50,5
124,126.06,129.45,5
123,126.00,129.38,5
123,125.94,129.32,5
125,125.92,129.27,5
124,125.88,129.22,5
123,125.83,129.16,5
123,125.77,129.10,5
124,125.73,129.05,5
124,125.70,129.00,5
122,125.63,128.93,5
123,125.57,128.87,5
123,125.52,128.81,5
123,125.47,128.75,5
121,125.38,128.67,5
122,125.31,128.61,5
124,125.29,128.56,5
123,125.24,128.50,5
123,125.20,128.45,5
122,125.13,128.38,5
123,125.09,128.33,5
123,125.05,128.28,5
125,125.05,128.24,5
121,124.97,128.17,5
124,124.95,128.13,5
122,124.89,128.07,5
122,124.83,128.01,5
121,124.75,127.94,5
124,124.74,127.90,5
122,124.68,127.84,5
121,124.61,127.77,5
121,124.54,127.70,5
122,124.49,127.65,5
121,124.42,127.58,5
122,124.37,127.52,5
121,124.30,127.46,5
122,124.26,127.40,5
121,124.19,127.34,5
120,124.11,127.27,5
123,124.09,127.22,5
121,124.02,127.16,5
121,123.96,127.10,5
121,123.90,127.04,5
122,123.87,126.99,5
121,123.81,126.93,5
121,123.75,126.87,5
120,123.68,126.80,5
123,123.66,126.76,5
120,123.59,126.70,5
120,123.52,126.63,5
121,123.47,126.57,5
121,123.42,126.52,5
120,123.35,126.45,5
120,123.28,126.39,5
119,123.20,126.31,5
121,123.15,126.26,5
120,123.09,126.20,5
120,123.03,126.14,5
120,122.97,126.07,5
122,122.95,126.03,5
121,122.91,125.98,5
120,122.85,125.92,5
120,122.79,125.86,5
120,122.74,125.81,5
120,122.68,125.75,5
120,122.63,125.69,5
119,122.56,125.62,5
120,122.51,125.57,5
120,122.46,125.51,5
119,122.39,125.45,5
119,122.32,125.38,5
120,122.27,125.33,5
119,122.21,125.26,5
119,122.14,125.20,5
120,122.10,125.15,5
120,122.06,125.10,5
119,122.00,125.04,5
122,122.00,125.01,5
121,121.98,124.97,5
120,121.94,124.92,5
119,121.88,124.86,5
118,121.80,124.79,5
120,121.77,124.74,5
119,121.71,124.68,5
120,121.68,124.64,5
120,121.64,124.59,5
120,121.61,124.54,5
119,121.56,124.49,5
117,121.47,124.41,5
118,121.40,124.35,5
122,121.41,124.33,5
119,121.36,124.27,5
119,121.31,124.22,5
118,121.25,124.16,5
119,121.20,124.11,5
119,121.16,124.06,5
119,121.12,124.01,5
118,121.05,123.95,5
120,121.03,123.91,5
118,120.97,123.85,5
119,120.93,123.80,5
119,120.89,123.75,5
119,120.86,123.70,5
118,120.80,123.65,5
117,120.72,123.58,5
120,120.71,123.54,5
118,120.65,123.49,5
119,120.62,123.44,5
119,120.59,123.40,5
120,120.58,123.36,5
119,120.55,123.32,5
117,120.47,123.26,5
117,120.40,123.20,5
119,120.38,123.15,5
118,120.33,123.10,5
119,120.30,123.06,5
115,120.20,122.98,5
119,120.17,122.94,5
118,120.13,122.89,5
117,120.07,122.83,5
117,120.01,122.77,5
119,119.98,122.74,5
118,119.95,122.69,5
117,119.89,122.63,5
117,119.83,122.58,5
119,119.81,122.54,5
117,119.76,122.48,5
117,119.70,122.43,5
117,119.65,122.38,5
119,119.63,122.34,5
118,119.60,122.30,5
117,119.55,122.25,5
115,119.46,122.17,5
118,119.43,122.13,5
117,119.38,122.08,5
117,119.33,122.03,5
117,119.29,121.98,5
117,119.24,121.93,5
118,119.22,121.89,5
117,119.17,121.84,5
118,119.15,121.80,5
117,119.10,121.75,5
117,119.06,121.71,5
117,119.02,121.66,5
119,119.02,121.63,5
117,118.98,121.59,5
118,118.96,121.55,5
117,118.92,121.51,5
118,118.90,121.47,5
117,118.87,121.43,5
117,118.83,121.38,5
117,118.79,121.34,5
118,118.78,121.30,5
118,118.76,121.27,5
116,118.70,121.22,5
116,118.65,121.17,5
117,118.62,121.12,5
117,118.59,121.08,5
115,118.51,121.02,5
116,118.46,120.97,5
117,118.43,120.93,5
115,118.37,120.87,5
115,118.30,120.81,5
115,118.23,120.76,5
118,118.23,120.73,5
116,118.18,120.68,5
116,118.14,120.63,5
115,118.08,120.58,5
117,118.06,120.54,5
116,118.01,120.50,5
116,117.97,120.45,5
115,117.91,120.40,5
116,117.88,120.35,5
115,117.82,120.30,5
115,117.76,120.25,5
117,117.75,120.21,5
116,117.71,120.17,5
115,117.66,120.12,5
115,117.60,120.07,5
115,117.55,120.02,5
117,117.54,119.99,5
115,117.49,119.94,5
114,117.42,119.88,5
116,117.39,119.84,5
115,117.34,119.79,5
113,117.26,119.72,5
115,117.21,119.68,5
115,117.17,119.63,5
115,117.12,119.58,5
116,117.10,119.55,5
114,117.04,119.49,5
116,117.02,119.46,5
116,117.00,119.42,5
115,116.96,119.38,5
113,116.88,119.32,5
117,116.88,119.29,5
114,116.82,119.24,5
115,116.79,119.20,5
113,116.71,119.13,5
115,116.68,119.09,5
113,116.60,119.03,5
116,116.59,119.00,5
115,116.56,118.96,5
115,116.53,118.92,5
115,116.50,118.88,5
114,116.45,118.83,5
113,116.38,118.78,5
115,116.35,118.74,5
115,116.33,118.70,5
114,116.28,118.65,5
118,116.31,118.65,5
114,116.27,118.60,5
115,116.24,118.56,5
114,116.20,118.52,5
116,116.19,118.49,5
115,116.17,118.46,5
113,116.11,118.40,5
114,116.06,118.36,5
117,116.08,118.35,5
115,116.06,118.31,5
115,116.04,118.28,5
113,115.98,118.23,5
115,115.96,118.20,5
115,115.94,118.16,5
113,115.88,118.11,5
114,115.84,118.07,5
115,115.83,118.04,5
113,115.77,117.99,5
113,115.71,117.94,5
115,115.70,117.91,5
115,115.69,117.88,5
115,115.67,117.85,5
113,115.62,117.80,5
113,115.57,117.76,5
115,115.56,117.73,5
113,115.50,117.68,5
113,115.45,117.63,5
112,115.39,117.58,5
113,115.34,117.53,5
113,115.29,117.49,5
113,115.24,117.44,5
113,115.20,117.40,5
112,115.14,117.34,5
114,115.11,117.31,5
113,115.07,117.27,5
115,115.07,117.24,5
113,115.03,117.20,5
113,114.99,117.16,5
113,114.95,117.12,5
113,114.91,117.08,5
115,114.91,117.06,5
113,114.87,117.02,5
113,114.84,116.98,5
113,114.80,116.94,5
113,114.76,116.90,5
113,114.73,116.86,5
113,114.69,116.82,5
116,114.72,116.81,5
113,114.68,116.77,5
113,114.65,116.73,5
112,114.60,116.69,5
113,114.57,116.65,5
113,114.53,116.61,5
113,114.50,116.58,5
113,114.47,116.54,5
114,114.46,116.52,5
113,114.44,116.48,5
113,114.41,116.45,5
112,114.36,116.40,5
115,114.37,116.39,5
112,114.32,116.34,5
112,114.28,116.30,5
112,114.23,116.26,5
113,114.21,116.23,5
113,114.18,116.19,5
113,114.16,116.16,5
112,114.12,116.12,5
113,114.09,116.09,5
113,114.07,116.06,5
112,114.03,116.02,5
114,114.03,116.00,5
111,113.97,115.95,5
111,113.91,115.90,5
112,113.87,115.86,5
113,113.85,115.83,5
113,113.84,115.80,5
111,113.78,115.75,5
111,113.72,115.71,5
112,113.69,115.67,5
111,113.64,115.62,5
111,113.58,115.58,5
111,113.53,115.53,5
115,113.56,115.52,5
111,113.51,115.48,5
111,113.46,115.43,5
111,113.41,115.39,5
112,113.38,115.36,5
111,113.33,115.31,5
112,113.31,115.28,5
112,113.28,115.25,5
113,113.28,115.22,5
111,113.23,115.18,5
111,113.19,115.14,5
111,113.14,115.10,5
113,113.14,115.08,5
111,113.10,115.04,5
111,113.06,115.00,5
111,113.01,114.96,5
112,112.99,114.93,5
111,112.95,114.89,5
111,112.91,114.85,5
111,112.88,114.81,5
111,112.84,114.77,5
111,112.80,114.73,5
111,112.77,114.70,5
112,112.75,114.67,5
111,112.72,114.63,5
111,112.68,114.60,5
111,112.65,114.56,5
112,112.63,114.54,5
111,112.60,114.50,5
111,112.57,114.47,5
111,112.54,114.43,5
111,112.51,114.40,5
111,112.48,114.36,5
111,112.45,114.33,5
111,112.42,114.30,5
112,112.41,114.27,5
110,112.36,114.23,5
109,112.30,114.18,5
110,112.25,114.14,5
111,112.22,114.10,5
110,112.18,114.06,5
109,112.12,114.01,5
109,112.05,113.96,5
111,112.03,113.93,5
107,111.93,113.86,5
110,111.89,113.83,5
110,111.86,113.79,5
111,111.84,113.76,5
110,111.80,113.72,5
109,111.75,113.67,5
109,111.69,113.63,5
111,111.68,113.60,5
111,111.66,113.58,5
109,111.61,113.53,5
111,111.60,113.50,5
111,111.59,113.48,5
109,111.53,113.43,5
109,111.48,113.39,5
112,111.49,113.38,5
109,111.44,113.33,5
110,111.42,113.30,5
110,111.39,113.27,5
110,111.36,113.23,5
111,111.35,113.21,5
109,111.31,113.17,5
110,111.28,113.14,5
111,111.27,113.12,5
110,111.25,113.08,5
109,111.20,113.04,5
109,111.16,113.00,5
111,111.16,112.98,5
109,111.11,112.94,5
110,111.09,112.91,5
109,111.05,112.88,5
111,111.05,112.86,5
109,111.01,112.82,5
109,110.97,112.78,5
109,110.93,112.74,5
110,110.91,112.71,5
109,110.87,112.68,5
109,110.83,112.64,5
109,110.80,112.60,5
110,110.78,112.58,5
112,110.80,112.57,5
109,110.77,112.54,5
109,110.73,112.50,5
110,110.72,112.48,5
110,110.70,112.45,5
109,110.67,112.42,5
111,110.68,112.40,5
109,110.64,112.37,5
109,110.61,112.33,5
108,110.56,112.29,5
109,110.53,112.26,5
109,110.50,112.23,5
109,110.47,112.19,5
108,110.42,112.15,5
109,110.39,112.12,5
109,110.36,112.09,5
105,110.25,112.02,5
109,110.23,111.99,5
110,110.22,111.97,5
108,110.18,111.93,5
108,110.14,111.89,5
109,110.11,111.86,5
109,110.09,111.83,5
107,110.03,111.78,5
108,109.99,111.75,5
108,109.95,111.71,5
109,109.93,111.68,5
108,109.89,111.64,5
107,109.83,111.60,5
109,109.82,111.57,5
108,109.78,111.54,5
108,109.75,111.50,5
107,109.69,111.46,5
107,109.64,111.41,5
109,109.62,111.39,5
108,109.59,111.35,5
108,109.56,111.32,5
107,109.51,111.28,5
109,109.50,111.25,5
108,109.47,111.22,5
108,109.44,111.19,5
109,109.43,111.17,5
108,109.40,111.14,5
108,109.37,111.10,5
109,109.37,111.08,5
108,109.34,111.05,5
107,109.29,111.01,5
107,109.25,110.97,5
107,109.20,110.93,5
109,109.20,110.91,5
108,109.17,110.88,5
107,109.13,110.84,5
107,109.09,110.81,5
109,109.09,110.79,5
107,109.04,110.75,5
107,109.00,110.71,5
107,108.96,110.68,5
108,108.94,110.65,5
108,108.92,110.62,5
107,108.89,110.59,5
107,108.85,110.55,5
108,108.83,110.52,5
107,108.79,110.49,5
107,108.76,110.45,5
105,108.68,110.40,5
108,108.67,110.38,5
108,108.66,110.35,5
108,108.64,110.33,5
106,108.59,110.29,5
107,108.56,110.25,5
107,108.53,110.22,5
106,108.48,110.18,5
107,108.45,110.15,5
107,108.42,110.11,5
106,108.37,110.07,5
106,108.32,110.03,5
110,108.36,110.03,5
106,108.31,109.99,5
107,108.28,109.96,5
106,108.24,109.92,5
108,108.23,109.90,5
107,108.21,109.87,5
106,108.16,109.84,5
106,108.12,109.80,5
109,108.14,109.79,5
107,108.12,109.76,5
107,108.09,109.73,5
105,108.03,109.69,5
107,108.01,109.66,5
107,107.99,109.63,5
105,107.93,109.59,5
106,107.89,109.55,5
107,107.87,109.53,5
105,107.82,109.48,5
107,107.80,109.46,5
105,107.74,109.41,5
107,107.73,109.39,5
108,107.73,109.37,5
107,107.72,109.35,5
107,107.71,109.33,5
107,107.69,109.30,5
107,107.68,109.28,5
105,107.62,109.24,5
106,107.59,109.20,5
105,107.54,109.16,5
106,107.51,109.13,5
107,107.50,109.11,5
106,107.47,109.08,5
106,107.44,109.05,5
107,107.43,109.03,5
103,107.34,108.97,5
107,107.34,108.95,5
108,107.35,108.94,5
106,107.32,108.91,5
105,107.28,108.87,5
107,107.27,108.85,5
107,107.26,108.83,5
107,107.26,108.81,5
107,107.25,108.80,5
107,107.25,108.78,5
105,107.20,108.74,5
105,107.16,108.70,5
106,107.14,108.68,5
108,107.15,108.67,5
107,107.15,108.65,5
107,107.15,108.64,5
107,107.14,108.62,5
108,107.16,108.61,5
107,107.16,108.60,5
106,107.14,108.57,5
106,107.11,108.54,5
108,107.13,108.54,5
106,107.11,108.51,5
105,107.07,108.48,5
105,107.02,108.44,5
107,107.02,108.43,5
105,106.98,108.40,5
105,106.94,108.36,5
105,106.90,108.33,5
108,106.93,108.32,5
107,106.93,108.31,5
106,106.91,108.29,5
108,106.93,108.29,5
105,106.89,108.25,5
107,106.90,108.24,5
105,106.86,108.21,5
108,106.88,108.21,5
107,106.88,108.19,5
108,106.90,108.19,5
106,106.89,108.17,5
108,106.91,108.17,5
107,106.91,108.16,5
105,106.87,108.12,5
106,106.86,108.10,5
109,106.90,108.11,5
107,106.90,108.10,5
108,106.92,108.10,5
108,106.94,108.10,5
108,106.96,108.10,5
107,106.97,108.09,5
107,106.97,108.08,5
108,106.99,108.08,5
110,107.05,108.09,5
107,107.05,108.08,5
107,107.05,108.07,5
106,107.02,108.05,5
109,107.06,108.06,5
109,107.10,108.07,5
107,107.10,108.06,5
107,107.10,108.05,5
107,107.10,108.04,5
107,107.09,108.03,5
107,107.09,108.02,5
109,107.13,108.03,5
108,107.15,108.03,5
108,107.17,108.03,5
105,107.12,108.00,5
109,107.16,108.01,5
108,107.18,108.01,5
107,107.17,108.00,5
107,107.17,107.99,5
111,107.25,108.02,5
108,107.26,108.02,5
108,107.28,108.02,5
108,107.29,108.02,5
107,107.28,108.01,5
111,107.36,108.04,5
110,107.41,108.06,5
107,107.40,108.05,5
111,107.48,108.08,5
109,107.51,108.08,5
109,107.54,108.09,5
108,107.55,108.09,5
111,107.61,108.12,5
109,107.64,108.13,5
109,107.67,108.14,5
108,107.68,108.14,5
111,107.74,108.17,5
109,107.77,108.18,5
111,107.83,108.20,5
111,107.90,108.23,5
109,107.92,108.24,5
109,107.94,108.25,5
108,107.94,108.24,5
110,107.98,108.26,5
111,108.04,108.29,5
109,108.06,108.30,5
109,108.08,108.30,5
109,108.10,108.31,5
111,108.16,108.34,5
111,108.21,108.36,5
109,108.23,108.37,5
111,108.28,108.40,5
112,108.36,108.43,5
111,108.41,108.46,5
111,108.46,108.48,5
111,108.51,108.51,5
110,108.54,108.52,5
110,108.57,108.54,5
110,108.60,108.55,5
111,108.65,108.58,5
111,108.70,108.60,5
109,108.70,108.61,5
109,108.71,108.61,5
113,108.79,108.65,5
110,108.82,108.67,5
111,108.86,108.69,5
110,108.88,108.70,5
113,108.97,108.75,5
110,108.99,108.76,5
111,109.03,108.78,5
109,109.03,108.78,5
110,109.05,108.80,5
111,109.09,108.82,5
111,109.12,108.84,5
111,109.16,108.86,5
112,109.22,108.89,5
111,109.25,108.91,5
110,109.27,108.92,5
109,109.26,108.93,5
111,109.30,108.95,5
113,109.37,108.99,5
111,109.40,109.01,5
110,109.42,109.02,5
112,109.47,109.05,5
113,109.54,109.09,5
111,109.57,109.11,5
113,109.64,109.14,5
111,109.66,109.16,5
110,109.67,109.17,5
110,109.68,109.18,5
114,109.76,109.23,5
111,109.79,109.25,5
110,109.79,109.25,5
109,109.78,109.25,5
111,109.80,109.27,5
111,109.83,109.29,5
111,109.85,109.30,5
110,109.85,109.31,5
111,109.88,109.33,5
111,109.90,109.34,5
111,109.92,109.36,5
111,109.94,109.38,5
111,109.96,109.39,5
110,109.96,109.40,5
111,109.98,109.41,5
113,110.04,109.45,5
114,110.12,109.50,5
113,110.18,109.53,5
111,110.20,109.55,5
111,110.21,109.56,5
111,110.23,109.57,5
113,110.28,109.61,5
114,110.36,109.65,5
112,110.39,109.68,5
112,110.42,109.70,5
111,110.44,109.71,5
112,110.47,109.73,5
114,110.54,109.78,5
113,110.59,109.81,5
112,110.61,109.83,5
111,110.62,109.84,5
117,110.75,109.91,5
113,110.80,109.95,5
112,110.82,109.97,5
113,110.86,110.00,5
114,110.93,110.04,5
113,110.97,110.07,5
113,111.01,110.10,5
113,111.05,110.12,5
113,111.09,110.15,5
115,111.16,110.20,5
113,111.20,110.23,5
112,111.22,110.25,5
116,111.31,110.31,5
113,111.35,110.33,5
113,111.38,110.36,5
113,111.41,110.39,5
119,111.56,110.47,5
113,111.59,110.50,5
114,111.64,110.53,5
114,111.69,110.57,5
114,111.73,110.60,5
119,111.88,110.68,5
121,112.06,110.79,5
119,112.20,110.87,5
116,112.28,110.92,5
115,112.33,110.96,5
117,112.42,111.02,5
118,112.54,111.09,5
117,112.63,111.15,5
117,112.71,111.21,5
117,112.80,111.27,5
118,112.90,111.34,5
113,112.90,111.35,5
116,112.97,111.40,5
119,113.09,111.47,5
121,113.25,111.57,5
118,113.34,111.63,5
117,113.41,111.69,5
120,113.55,111.77,5
122,113.71,111.87,5
121,113.86,111.96,5
120,113.98,112.04,5
121,114.12,112.13,5
124,114.32,112.25,5
121,114.45,112.34,5
124,114.65,112.46,5
121,114.77,112.54,5
125,114.98,112.67,5
123,115.14,112.77,5
121,115.25,112.85,5
121,115.37,112.93,5
122,115.50,113.02,5
125,115.69,113.14,5
125,115.88,113.26,5
123,116.02,113.36,5
129,116.28,113.52,5
129,116.53,113.67,5
126,116.72,113.79,5
126,116.91,113.92,5
125,117.07,114.03,5
129,117.31,114.18,5
128,117.52,114.32,5
128,117.73,114.45,5
127,117.92,114.58,5
126,118.08,114.69,5
127,118.26,114.82,5
127,118.43,114.94,5
128,118.62,115.07,5
127,118.79,115.19,5
127,118.96,115.31,5
131,119.20,115.46,5
131,119.43,115.62,5
131,119.66,115.77,5
131,119.89,115.92,5
130,120.09,116.06,5
129,120.27,116.19,5
129,120.45,116.32,5
133,120.70,116.49,5
129,120.86,116.61,5
129,121.03,116.74,5
133,121.27,116.90,5
134,121.52,117.07,5
132,121.73,117.22,5
130,121.90,117.35,5
129,122.04,117.46,5
129,122.18,117.58,5
130,122.33,117.70,5
129,122.47,117.82,5
132,122.66,117.96,5
131,122.82,118.09,5
133,123.03,118.24,5
130,123.17,118.36,5
133,123.36,118.50,5
130,123.50,118.62,5
131,123.65,118.74,5
129,123.75,118.84,5
133,123.94,118.99,5
137,124.20,119.17,5
138,124.48,119.35,5
133,124.65,119.49,5
136,124.87,119.66,5
142,125.22,119.88,5
141,125.53,120.09,5
139,125.80,120.28,5
137,126.02,120.45,5
138,126.26,120.62,5
139,126.52,120.81,5
139,126.77,120.99,5
140,127.03,121.18,5
141,127.31,121.38,5
138,127.53,121.54,5
140,127.78,121.73,5
140,128.02,121.91,5
140,128.26,122.09,5
138,128.45,122.25,5
139,128.67,122.42,5
138,128.85,122.57,5
138,129.04,122.73,5
144,129.33,122.94,5
146,129.67,123.17,5
141,129.89,123.35,5
146,130.22,123.58,5
144,130.49,123.78,5
143,130.74,123.97,5
142,130.97,124.15,5
142,131.19,124.33,5
143,131.42,124.52,5
142,131.64,124.69,5
141,131.82,124.86,5
143,132.05,125.04,5
145,132.31,125.24,5
142,132.50,125.40,5
144,132.73,125.59,5
143,132.94,125.76,5
143,133.14,125.94,5
142,133.31,126.10,5
143,133.51,126.27,5
147,133.78,126.47,5
145,134.00,126.66,5
144,134.20,126.83,5
144,134.40,127.00,5
143,134.57,127.16,5
146,134.80,127.35,5
146,135.02,127.54,5
145,135.22,127.71,5
147,135.46,127.91,5
147,135.69,128.10,5
147,135.91,128.29,5
145,136.10,128.45,5
145,136.27,128.62,5
145,136.45,128.78,5
143,136.58,128.92,5
148,136.81,129.12,5
146,136.99,129.28,5
146,137.17,129.45,5
145,137.33,129.61,5
147,137.52,129.78,5
145,137.67,129.93,5
145,137.82,130.08,5
145,137.96,130.23,5
146,138.12,130.39,5
148,138.32,130.57,5
147,138.49,130.73,5
147,138.66,130.89,5
146,138.81,131.04,5
148,138.99,131.21,5
147,139.15,131.37,5
148,139.33,131.54,5
149,139.53,131.71,5
147,139.67,131.87,5
148,139.84,132.03,5
153,140.10,132.24,5
147,140.24,132.38,5
149,140.42,132.55,5
153,140.67,132.76,5
149,140.84,132.92,5
149,141.00,133.08,5
152,141.22,133.27,5
149,141.37,133.43,5
151,141.57,133.60,5
154,141.82,133.80,5
151,142.00,133.98,5
150,142.16,134.14,5
151,142.34,134.31,5
150,142.49,134.46,5
153,142.70,134.65,5
155,142.95,134.85,5
153,143.15,135.03,5
152,143.32,135.20,5
152,143.50,135.37,5
153,143.69,135.55,5
153,143.87,135.72,5
156,144.12,135.92,5
152,144.27,136.09,5
153,144.45,136.25,5
153,144.62,136.42,5
153,144.79,136.59,5
155,144.99,136.77,5
156,145.21,136.96,5
153,145.37,137.12,5
157,145.60,137.32,5
157,145.83,137.52,5
155,146.01,137.69,5
154,146.17,137.86,5
155,146.35,138.03,5
154,146.50,138.19,5
156,146.69,138.37,5
153,146.82,138.51,5
153,146.94,138.66,5
155,147.10,138.82,5
158,147.32,139.01,5
159,147.55,139.21,5
156,147.72,139.38,5
156,147.89,139.55,5
155,148.03,139.70,5
155,148.17,139.85,5
155,148.31,140.01,5
155,148.44,140.16,5
156,148.59,140.31,5
153,148.68,140.44,5
157,148.85,140.61,5
153,148.93,140.73,5
155,149.05,140.87,5
153,149.13,140.99,5
154,149.23,141.12,5
154,149.32,141.25,5
153,149.40,141.37,5
153,149.47,141.49,5
153,149.54,141.60,5
153,149.61,141.72,5
153,149.68,141.83,5
153,149.74,141.94,5
152,149.79,142.04,5
153,149.85,142.15,5
153,149.91,142.26,5
152,149.96,142.36,5
152,150.00,142.45,5
153,150.06,142.56,5
152,150.10,142.65,5
153,150.15,142.76,5
151,150.17,142.84,5
155,150.27,142.96,5
153,150.32,143.06,5
153,150.38,143.16,5
154,150.45,143.27,5
155,150.54,143.39,5
153,150.59,143.48,5
153,150.64,143.58,5
154,150.70,143.68,5
153,150.75,143.78,5
153,150.79,143.87,5
153,150.84,143.96,5
155,150.92,144.07,5
157,151.04,144.20,5
153,151.08,144.29,5
153,151.12,144.37,5
157,151.24,144.50,5
158,151.37,144.63,5
158,151.51,144.77,5
155,151.58,144.87,5
155,151.64,144.97,5
159,151.79,145.11,5
155,151.86,145.21,5
156,151.94,145.32,5
156,152.02,145.43,5
157,152.12,145.54,5
155,152.18,145.64,5
156,152.25,145.74,5
156,152.33,145.84,5
155,152.38,145.93,5
156,152.45,146.03,5
155,152.51,146.12,5
157,152.60,146.23,5
155,152.64,146.32,5
155,152.69,146.41,5
154,152.72,146.48,5
156,152.78,146.58,5
155,152.83,146.66,5
153,152.83,146.73,5
153,152.83,146.79,5
155,152.88,146.87,5
153,152.88,146.93,5
153,152.88,146.99,5
153,152.88,147.05,5
155,152.93,147.13,5
153,152.93,147.19,5
153,152.93,147.25,5
154,152.95,147.32,5
154,152.97,147.38,5
153,152.97,147.44,5
153,152.97,147.50,5
153,152.97,147.55,5
153,152.97,147.61,5
153,152.97,147.66,5
152,152.96,147.70,5
153,152.96,147.76,5
153,152.96,147.81,5
153,152.96,147.86,5
152,152.94,147.90,5
153,152.94,147.95,5
153,152.94,148.00,5
152,152.92,148.04,5
151,152.88,148.07,5
151,152.85,148.10,5
153,152.85,148.15,5
151,152.81,148.18,5
151,152.78,148.21,5
152,152.76,148.25,5
151,152.73,148.27,5
151,152.69,148.30,5
151,152.66,148.33,5
153,152.66,148.37,5
151,152.63,148.40,5
152,152.62,148.44,5
152,152.61,148.47,5
151,152.57,148.50,5
152,152.56,148.53,5
150,152.51,148.55,5
151,152.48,148.57,5
153,152.49,148.62,5
150,152.44,148.63,5
151,152.41,148.65,5
151,152.38,148.68,5
151,152.36,148.70,5
151,152.33,148.72,5
150,152.28,148.74,5
149,152.22,148.74,5
149,152.15,148.74,5
150,152.11,148.75,5
149,152.05,148.76,5
147,151.95,148.74,5
149,151.89,148.74,5
149,151.83,148.74,5
149,151.77,148.75,5
149,151.72,148.75,5
149,151.66,148.75,5
149,151.61,148.75,5
148,151.54,148.75,5
147,151.45,148.73,5
150,151.42,148.74,5
148,151.35,148.73,5
148,151.28,148.73,5
149,151.24,148.73,5
149,151.19,148.73,5
148,151.13,148.72,5
148,151.07,148.72,5
149,151.02,148.72,5
148,150.96,148.71,5
149,150.92,148.72,5
147,150.85,148.70,5
149,150.81,148.70,5
147,150.73,148.68,5
147,150.66,148.67,5
148,150.61,148.66,5
148,150.55,148.65,5
147,150.48,148.64,5
148,150.43,148.63,5
147,150.36,148.62,5
147,150.30,148.60,5
148,150.25,148.59,5
148,150.21,148.59,5
147,150.14,148.57,5
148,150.10,148.57,5
146,150.02,148.54,5
147,149.96,148.52,5
147,149.90,148.51,5
147,149.84,148.49,5
147,149.78,148.48,5
145,149.69,148.44,5
143,149.55,148.39,5
146,149.48,148.37,5
147,149.43,148.35,5
145,149.34,148.32,5
145,149.26,148.29,5
146,149.19,148.26,5
145,149.11,148.23,5
145,149.03,148.20,5
147,148.99,148.19,5
145,148.91,148.15,5
145,148.83,148.12,5
145,148.75,148.09,5
146,148.70,148.07,5
145,148.62,148.04,5
145,148.55,148.01,5
143,148.44,147.96,5
144,148.35,147.92,5
145,148.28,147.89,5
144,148.20,147.85,5
143,148.09,147.80,5
145,148.03,147.78,5
143,147.93,147.73,5
144,147.85,147.69,5
144,147.78,147.65,6
145,147.72,147.63,6
145,147.67,147.60,7
144,147.59,147.56,7
143,147.50,147.52,8
145,147.45,147.49,8
143,147.36,147.45,9
143,147.27,147.40,9
143,147.19,147.36,9
143,147.10,147.32,9
143,147.02,147.27,9
143,146.94,147.23,9
143,146.86,147.19,9
143,146.79,147.15,9
142,146.69,147.09,9
143,146.62,147.05,9
143,146.54,147.01,9
144,146.49,146.98,9
143,146.42,146.94,9
143,146.35,146.90,9
145,146.33,146.88,9
143,146.26,146.85,9
141,146.16,146.79,9
143,146.09,146.75,9
143,146.03,146.71,9
142,145.95,146.67,9
141,145.85,146.61,9
142,145.77,146.56,9
143,145.72,146.53,9
141,145.62,146.47,9
141,145.53,146.42,9
141,145.44,146.36,9
142,145.37,146.32,9
142,145.31,146.28,9
141,145.22,146.22,9
141,145.13,146.17,9
142,145.07,146.13,9
141,144.99,146.08,9
140,144.89,146.02,9
140,144.79,145.96,9
143,144.76,145.93,9
141,144.68,145.88,9
141,144.61,145.83,9
140,144.52,145.77,9
141,144.45,145.72,9
140,144.36,145.67,9
140,144.27,145.61,9
139,144.16,145.54,9
139,144.06,145.48,9
140,143.98,145.42,9
139,143.88,145.36,9
141,143.82,145.32,9
140,143.75,145.26,9
139,143.65,145.20,9
139,143.56,145.14,9
141,143.51,145.10,9
140,143.44,145.05,9
138,143.33,144.97,9
139,143.24,144.91,9
140,143.18,144.87,9
139,143.09,144.81,9
139,143.01,144.75,9
137,142.89,144.67,9
141,142.85,144.63,9
139,142.78,144.58,9
138,142.68,144.51,9
139,142.61,144.46,9
139,142.54,144.40,9
139,142.46,144.35,9
137,142.36,144.28,9
137,142.25,144.20,9
140,142.20,144.16,9
137,142.10,144.09,9
137,142.00,144.02,9
138,141.92,143.96,9
139,141.86,143.91,9
138,141.78,143.85,9
137,141.69,143.78,9
137,141.59,143.71,9
137,141.50,143.65,9
138,141.43,143.59,9
138,141.36,143.53,9
136,141.25,143.46,9
138,141.19,143.40,9
136,141.09,143.33,9
137,141.00,143.27,9
137,140.92,143.20,9
135,140.81,143.12,9
137,140.73,143.06,9
136,140.63,142.99,9
137,140.56,142.93,9
137,140.49,142.87,9
136,140.40,142.80,9
136,140.31,142.73,9
137,140.25,142.68,9
136,140.16,142.61,9
136,140.08,142.54,9
136,140.00,142.48,9
137,139.94,142.42,9
136,139.86,142.36,9
135,139.76,142.29,9
135,139.67,142.21,9
137,139.61,142.16,9
134,139.50,142.08,9
135,139.41,142.01,9
135,139.32,141.94,9
136,139.26,141.88,9
135,139.17,141.81,9
134,139.07,141.73,9
135,138.99,141.66,9
139,138.99,141.64,9
133,138.87,141.55,9
133,138.75,141.47,9
133,138.63,141.38,9
136,138.58,141.33,9
135,138.51,141.26,9
133,138.40,141.18,9
133,138.29,141.10,9
134,138.21,141.03,9
134,138.12,140.96,9
133,138.02,140.88,9
135,137.96,140.82,9
133,137.86,140.74,9
133,137.76,140.66,9
133,137.67,140.59,9
134,137.59,140.52,9
133,137.50,140.45,9
133,137.41,140.37,9
133,137.32,140.30,9
133,137.24,140.23,9
133,137.15,140.15,9
133,137.07,140.08,9
132,136.97,140.00,9
134,136.91,139.94,9
133,136.83,139.87,9
133,136.75,139.80,9
133,136.68,139.73,9
133,136.61,139.67,9
132,136.51,139.59,9
131,136.40,139.51,9
131,136.29,139.42,9
133,136.23,139.36,9
129,136.08,139.25,9
131,135.98,139.17,9
131,135.88,139.09,9
133,135.83,139.03,9
132,135.75,138.96,9
131,135.65,138.88,9
131,135.56,138.80,9
132,135.49,138.73,9
131,135.40,138.65,9
131,135.31,138.58,9
131,135.23,138.50,9
131,135.14,138.43,9
132,135.08,138.36,9
131,135.00,138.29,9
133,134.96,138.24,9
132,134.90,138.17,9
131,134.82,138.10,9
131,134.74,138.03,9
133,134.71,137.98,9
131,134.63,137.91,9
131,134.56,137.84,9
131,134.49,137.77,9
132,134.44,137.71,9
131,134.37,137.65,9
131,134.30,137.58,9
129,134.20,137.50,9
132,134.15,137.44,9
131,134.09,137.38,9
131,134.03,137.31,9
130,133.95,137.24,9
131,133.89,137.18,9
129,133.79,137.09,9
129,133.70,137.01,9
129,133.60,136.93,9
132,133.57,136.88,9
129,133.48,136.81,9
129,133.39,136.73,9
129,133.30,136.65,9
131,133.26,136.59,9
133,133.25,136.56,9
131,133.21,136.50,9
129,133.12,136.43,9
131,133.08,136.37,9
129,133.00,136.30,9
129,132.92,136.23,9
129,132.84,136.15,9
130,132.78,136.09,9
129,132.71,136.02,9
129,132.63,135.95,9
131,132.60,135.90,9
130,132.55,135.84,9
129,132.48,135.77,9
128,132.39,135.70,9
132,132.38,135.66,9
129,132.31,135.59,9
128,132.23,135.52,9
128,132.14,135.44,9
129,132.08,135.38,9
129,132.02,135.31,9
129,131.96,135.25,9
128,131.88,135.18,9
129,131.82,135.12,9
129,131.76,135.06,9
128,131.69,134.98,9
128,131.61,134.91,9
129,131.56,134.86,9
129,131.51,134.80,9
128,131.44,134.73,9
129,131.39,134.67,9
129,131.34,134.62,9
127,131.26,134.54,9
127,131.17,134.46,9
127,131.09,134.39,9
129,131.05,134.33,9
127,130.97,134.26,9
129,130.93,134.21,9
127,130.85,134.14,9
127,130.77,134.07,9
128,130.72,134.00,9
127,130.64,133.93,9
128,130.59,133.88,9
128,130.54,133.82,9
127,130.47,133.75,9
127,130.40,133.68,9
130,130.39,133.64,9
127,130.32,133.58,9
127,130.25,133.51,9
127,130.19,133.45,9
128,130.15,133.39,9
127,130.08,133.33,9
127,130.02,133.27,9
126,129.94,133.19,9
129,129.92,133.15,9
126,129.84,133.08,9
123,129.71,132.98,9
127,129.65,132.92,9
128,129.62,132.87,9
125,129.53,132.79,9
126,129.46,132.72,9
126,129.39,132.66,9
127,129.34,132.60,9
126,129.27,132.53,9
125,129.19,132.46,9
125,129.10,132.38,9
128,129.08,132.34,9
126,129.02,132.28,9
126,128.96,132.21,9
128,128.94,132.17,9
127,128.90,132.12,9
126,128.84,132.06,9
125,128.77,131.99,9
125,128.69,131.92,9
125,128.62,131.85,9
125,128.55,131.78,9
125,128.47,131.71,9
127,128.44,131.67,9
127,128.42,131.62,9
125,128.35,131.55,9
126,128.30,131.50,9
127,128.27,131.45,9
125,128.21,131.39,9
125,128.14,131.32,9
125,128.08,131.26,9
126,128.04,131.21,9
126,128.00,131.16,9
125,127.94,131.09,9
124,127.86,131.02,9
127,127.84,130.98,9
125,127.79,130.92,9
124,127.71,130.85,9
124,127.64,130.79,9
126,127.60,130.74,9
124,127.53,130.67,9
127,127.52,130.63,9
123,127.43,130.56,9
125,127.38,130.50,9
125,127.33,130.45,9
123,127.25,130.37,9
124,127.18,130.31,9
125,127.14,130.26,9
123,127.06,130.18,9
124,127.00,130.12,9
124,126.94,130.06,9
124,126.88,130.00,9
125,126.84,129.95,9
124,126.78,129.89,9
124,126.73,129.83,9
124,126.67,129.77,9
124,126.62,129.71,9
123,126.55,129.65,9
125,126.52,129.60,9
123,126.45,129.53,9
123,126.38,129.47,9
123,126.31,129.40,9
125,126.28,129.36,9
124,126.24,129.31,9
123,126.17,129.24,9
123,126.11,129.18,9
125,126.09,129.14,9
123,126.02,129.08,9
123,125.96,129.02,9
123,125.91,128.96,9
123,125.85,128.90,9
123,125.79,128.84,9
122,125.71,128.77,9
123,125.66,128.71,9
123,125.61,128.66,9
121,125.51,128.58,9
122,125.44,128.51,9
121,125.36,128.44,9
123,125.31,128.38,9
123,125.26,128.33,9
121,125.18,128.26,9
121,125.09,128.18,9
123,125.05,128.13,9
122,124.99,128.07,9
121,124.91,128.00,9
121,124.83,127.93,9
123,124.80,127.88,9
121,124.72,127.81,9
121,124.65,127.74,9
122,124.59,127.69,9
123,124.56,127.64,9
122,124.51,127.58,9
121,124.44,127.52,9
123,124.41,127.47,9
121,124.34,127.41,9
121,124.28,127.34,9
125,124.29,127.32,9
123,124.26,127.28,9
121,124.20,127.21,9
121,124.13,127.15,9
122,124.09,127.10,9
121,124.03,127.04,9
122,123.99,126.99,9
122,123.95,126.94,9
121,123.89,126.88,9
123,123.87,126.84,9
121,123.82,126.78,9
121,123.76,126.72,9
121,123.70,126.67,9
122,123.67,126.62,9
121,123.62,126.56,9
120,123.54,126.50,9
120,123.47,126.43,9
123,123.46,126.40,9
120,123.39,126.34,9
121,123.35,126.28,9
121,123.30,126.23,9
121,123.25,126.18,9
121,123.21,126.13,9
121,123.16,126.07,9
120,123.10,126.01,9
121,123.06,125.96,9
120,123.00,125.90,9
120,122.94,125.84,9
121,122.90,125.80,9
121,122.86,125.75,9
120,122.80,125.69,9
119,122.73,125.62,9
122,122.71,125.59,9
120,122.66,125.53,9
120,122.61,125.48,9
119,122.53,125.41,9
121,122.50,125.37,9
121,122.47,125.32,9
120,122.42,125.27,9
120,122.38,125.22,9
120,122.33,125.17,9
120,122.28,125.11,9
120,122.24,125.06,9
119,122.17,125.00,9
121,122.15,124.96,9
119,122.08,124.90,9
119,122.02,124.84,9
120,121.98,124.80,9
120,121.94,124.75,9
119,121.88,124.69,9
119,121.83,124.63,9
119,121.77,124.58,9
120,121.73,124.53,9
119,121.68,124.48,9
119,121.63,124.42,9
119,121.57,124.37,9
120,121.54,124.32,9
120,121.51,124.28,9
119,121.46,124.23,9
119,121.41,124.17,9
119,121.36,124.12,9
118,121.30,124.06,9
119,121.25,124.01,9
120,121.23,123.97,9
119,121.18,123.92,9
119,121.14,123.87,9
119,121.09,123.82,9
119,121.05,123.78,9
120,121.03,123.74,9
119,120.99,123.69,9
118,120.93,123.63,9
119,120.89,123.59,9
119,120.85,123.54,9
117,120.78,123.48,9
117,120.70,123.41,9
119,120.67,123.37,9
118,120.61,123.31,9
117,120.54,123.25,9
117,120.47,123.19,9
120,120.46,123.16,9
119,120.43,123.11,9
117,120.36,123.05,9
117,120.30,122.99,9
119,120.27,122.95,9
117,120.21,122.89,9
117,120.14,122.83,9
117,120.08,122.78,9
119,120.06,122.74,9
118,120.02,122.69,9
119,120.00,122.65,9
117,119.94,122.60,9
117,119.88,122.54,9
117,119.82,122.49,9
117,119.76,122.43,9
118,119.73,122.39,9
117,119.67,122.33,9
117,119.62,122.28,9
118,119.59,122.24,9
119,119.58,122.20,9
117,119.52,122.15,9
118,119.49,122.11,9
117,119.44,122.06,9
119,119.43,122.03,9
117,119.39,121.98,9
117,119.34,121.93,9
116,119.27,121.87,9
117,119.23,121.82,9
117,119.18,121.77,9
117,119.14,121.72,9
116,119.08,121.67,9
117,119.03,121.62,9
117,118.99,121.57,9
117,118.95,121.53,9
115,118.87,121.46,9
119,118.88,121.44,9
117,118.84,121.39,9
116,118.78,121.34,9
119,118.79,121.32,9
117,118.75,121.27,9
117,118.72,121.23,9
115,118.64,121.17,9
116,118.59,121.12,9
117,118.56,121.08,9
117,118.53,121.04,9
115,118.46,120.98,9
116,118.41,120.93,9
117,118.38,120.89,9
116,118.33,120.84,9
115,118.26,120.78,9
116,118.22,120.73,9
115,118.15,120.67,9
115,118.09,120.62,9
115,118.03,120.56,9
117,118.01,120.53,9
117,117.99,120.49,9
115,117.93,120.44,9
115,117.87,120.38,9
117,117.85,120.35,9
115,117.80,120.29,9
114,117.72,120.23,9
116,117.69,120.19,9
116,117.65,120.15,9
116,117.62,120.10,9
115,117.57,120.05,9
115,117.52,120.00,9
116,117.48,119.96,9
115,117.44,119.91,9
115,117.39,119.86,9
115,117.34,119.82,9
113,117.25,119.75,9
114,117.19,119.69,9
115,117.14,119.64,9
115,117.10,119.60,9
116,117.08,119.56,9
115,117.04,119.52,9
113,116.96,119.45,9
114,116.90,119.40,9
116,116.88,119.36,9
115,116.84,119.32,9
114,116.78,119.26,9
114,116.73,119.21,9
115,116.69,119.17,9
113,116.62,119.11,9
113,116.55,119.05,9
113,116.48,118.99,9
114,116.43,118.94,9
114,116.38,118.89,9
113,116.31,118.83,9
116,116.31,118.80,9
115,116.28,118.76,9
113,116.21,118.70,9
113,116.15,118.65,9
115,116.13,118.61,9
115,116.10,118.58,9
113,116.04,118.52,9
113,115.98,118.46,9
115,115.96,118.43,9
114,115.92,118.39,9
113,115.86,118.33,9
114,115.83,118.29,9
115,115.81,118.26,9
113,115.75,118.20,9
113,115.70,118.15,9
113,115.64,118.10,9
116,115.65,118.08,9
113,115.60,118.03,9
113,115.55,117.98,9
113,115.50,117.93,9
114,115.47,117.89,9
113,115.42,117.84,9
113,115.37,117.79,9
113,115.32,117.74,9
116,115.33,117.73,9
113,115.29,117.68,9
113,115.24,117.63,9
111,115.16,117.57,9
113,115.11,117.52,9
113,115.07,117.47,9
113,115.03,117.43,9
112,114.97,117.38,9
113,114.93,117.33,9
113,114.89,117.29,9
113,114.85,117.25,9
115,114.86,117.22,9
113,114.82,117.18,9
113,114.78,117.14,9
113,114.75,117.10,9
113,114.71,117.06,9
113,114.68,117.02,9
113,114.64,116.98,9
112,114.59,116.93,9
113,114.56,116.89,9
113,114.53,116.85,9
112,114.48,116.80,9
111,114.41,116.74,9
114,114.40,116.71,9
112,114.35,116.67,9
111,114.29,116.61,9
111,114.22,116.55,9
113,114.20,116.52,9
113,114.17,116.48,9
111,114.11,116.43,9
111,114.05,116.37,9
113,114.03,116.34,9
113,114.00,116.31,9
113,113.98,116.27,9
112,113.94,116.23,9
113,113.93,116.20,9
111,113.87,116.15,9
111,113.81,116.10,9
111,113.75,116.04,9
112,113.72,116.00,9
111,113.66,115.95,9
111,113.61,115.90,9
111,113.56,115.86,9
112,113.53,115.82,9
111,113.48,115.77,9
111,113.43,115.72,9
113,113.42,115.69,9
113,113.41,115.67,9
112,113.38,115.63,9
111,113.33,115.58,9
113,113.33,115.56,9
111,113.28,115.51,9
111,113.24,115.47,9
111,113.19,115.42,9
113,113.19,115.40,9
111,113.14,115.35,9
111,113.10,115.31,9
111,113.06,115.27,9
113,113.06,115.25,9
111,113.02,115.20,9
111,112.98,115.16,9
111,112.94,115.12,9
111,112.90,115.08,9
111,112.86,115.04,9
111,112.82,115.00,9
110,112.77,114.95,9
113,112.77,114.93,9
109,112.70,114.87,9
111,112.66,114.83,9
109,112.59,114.77,9
111,112.56,114.73,9
111,112.53,114.70,9
111,112.50,114.66,9
110,112.45,114.61,9
111,112.42,114.58,9
111,112.39,114.54,9
110,112.34,114.50,9
113,112.35,114.48,9
111,112.33,114.45,9
111,112.30,114.41,9
111,112.27,114.38,9
112,112.27,114.35,9
111,112.24,114.32,9
111,112.22,114.29,9
110,112.17,114.24,9
111,112.15,114.21,9
110,112.11,114.17,9
110,112.07,114.13,9
110,112.02,114.09,9
113,112.04,114.08,9
111,112.02,114.04,9
110,111.98,114.00,9
109,111.92,113.95,9
111,111.90,113.92,9
111,111.89,113.90,9
111,111.87,113.87,9
111,111.85,113.84,9
111,111.83,113.81,9
111,111.82,113.78,9
109,111.76,113.73,9
109,111.71,113.69,9
111,111.69,113.66,9
110,111.66,113.62,9
111,111.64,113.60,9
109,111.59,113.55,9
111,111.58,113.52,9
114,111.63,113.53,9
109,111.58,113.48,9
109,111.52,113.44,9
109,111.47,113.39,9
109,111.42,113.35,9
111,111.42,113.33,9
110,111.39,113.29,9
111,111.38,113.27,9
110,111.35,113.24,9
109,111.30,113.20,9
111,111.30,113.17,9
110,111.27,113.14,9
109,111.23,113.10,9
109,111.18,113.06,9
110,111.16,113.03,9
109,111.12,112.99,9
106,111.01,112.92,9
109,110.97,112.88,9
111,110.97,112.86,9
109,110.93,112.82,9
109,110.90,112.78,9
109,110.86,112.75,9
110,110.84,112.72,9
111,110.84,112.70,9
110,110.83,112.67,9
109,110.79,112.64,9
111,110.79,112.62,9
109,110.76,112.59,9
110,110.74,112.56,9
109,110.71,112.52,9
111,110.71,112.51,9
110,110.70,112.48,9
109,110.67,112.45,9
109,110.63,112.41,9
109,110.60,112.38,9
109,110.57,112.35,9
109,110.54,112.31,9
108,110.49,112.27,9
111,110.50,112.26,9
109,110.47,112.22,9
110,110.46,112.20,9
111,110.47,112.19,9
109,110.44,112.16,9
109,110.41,112.13,9
108,110.36,112.09,9
110,110.35,112.06,9
110,110.35,112.04,9
109,110.32,112.01,9
109,110.29,111.98,9
109,110.27,111.95,9
109,110.24,111.92,9
109,110.22,111.89,9
109,110.19,111.87,9
111,110.21,111.86,9
109,110.19,111.83,9
113,110.24,111.84,9
107,110.18,111.79,9
110,110.17,111.77,9
109,110.15,111.75,9
108,110.11,111.71,9
109,110.08,111.68,9
109,110.06,111.65,9
109,110.04,111.63,9
108,110.00,111.59,9
109,109.98,111.57,9
109,109.96,111.54,9
109,109.94,111.52,9
108,109.90,111.48,9
109,109.89,111.46,9
109,109.87,111.43,9
109,109.85,111.41,9
107,109.79,111.36,9
109,109.78,111.34,9
109,109.76,111.32,9
109,109.75,111.29,9
109,109.73,111.27,9
110,109.74,111.26,9
107,109.68,111.21,9
109,109.67,111.19,9
109,109.66,111.17,9
110,109.66,111.16,9
108,109.63,111.13,9
107,109.58,111.09,9
108,109.54,111.05,9
110,109.55,111.04,9
109,109.54,111.02,9
108,109.51,110.99,9
109,109.50,110.97,9
109,109.49,110.95,9
108,109.46,110.92,9
107,109.41,110.88,9
108,109.38,110.86,9
109,109.38,110.84,9
108,109.35,110.81,9
107,109.30,110.77,9
107,109.26,110.73,9
109,109.25,110.72,9
108,109.23,110.69,9
108,109.20,110.66,9
107,109.16,110.63,9
108,109.13,110.60,9
109,109.13,110.58,9
109,109.13,110.57,9
107,109.09,110.53,9
108,109.06,110.51,9
107,109.02,110.47,9
107,108.98,110.44,9
108,108.96,110.41,9
108,108.94,110.39,9
109,108.95,110.37,9
109,108.95,110.36,9
109,108.95,110.35,9
109,108.95,110.33,9
108,108.93,110.31,9
107,108.89,110.28,9
109,108.89,110.26,9
107,108.86,110.23,9
107,108.82,110.20,9
110,108.84,110.20,9
109,108.84,110.19,9
108,108.83,110.16,9
108,108.81,110.14,9
107,108.78,110.11,9
109,108.78,110.10,9
108,108.76,110.08,9
107,108.73,110.05,9
107,108.69,110.02,9
109,108.70,110.01,9
107,108.67,109.98,9
107,108.63,109.95,9
107,108.60,109.92,9
108,108.59,109.90,9
108,108.58,109.88,9
108,108.57,109.86,9
107,108.53,109.83,9
109,108.54,109.82,9
107,108.51,109.80,9
107,108.48,109.77,9
106,108.43,109.73,9
107,108.40,109.70,9
107,108.38,109.68,9
107,108.35,109.65,9
108,108.34,109.63,9
107,108.31,109.61,9
107,108.29,109.58,9
106,108.24,109.54,9
108,108.24,109.53,9
107,108.21,109.50,9
106,108.17,109.47,9
107,108.15,109.44,9
109,108.16,109.44,9
108,108.16,109.42,9
107,108.14,109.40,9
108,108.13,109.39,9
108,108.13,109.37,9
105,108.07,109.33,9
107,108.05,109.31,9
107,108.03,109.28,9
108,108.02,109.27,9
107,108.00,109.25,9
107,107.98,109.22,9
107,107.96,109.20,9
108,107.97,109.19,9
111,108.03,109.21,9
107,108.01,109.19,9
105,107.95,109.14,9
108,107.95,109.13,9
107,107.93,109.11,9
106,107.89,109.08,9
107,107.87,109.06,9
107,107.85,109.04,9
106,107.82,109.01,9
107,107.80,108.99,9
106,107.76,108.96,9
107,107.75,108.94,9
106,107.71,108.91,9
105,107.66,108.87,9
107,107.65,108.85,9
108,107.65,108.84,9
107,107.64,108.83,9
106,107.61,108.80,9
108,107.62,108.79,9
107,107.60,108.77,9
106,107.57,108.74,9
105,107.52,108.71,9
107,107.51,108.69,9
105,107.46,108.65,9
106,107.43,108.63,9
106,107.40,108.60,9
107,107.39,108.58,9
107,107.39,108.57,9
105,107.34,108.53,9
105,107.29,108.50,9
107,107.29,108.48,9
106,107.26,108.46,9
106,107.23,108.43,9
106,107.21,108.41,9
107,107.21,108.39,9
106,107.18,108.37,9
107,107.18,108.36,9
106,107.15,108.33,9
105,107.11,108.30,9
105,107.07,108.27,9
105,107.03,108.23,9
108,107.05,108.23,9
107,107.05,108.22,9
107,107.05,108.21,9
105,107.00,108.17,9
105,106.96,108.14,9
107,106.96,108.13,9
105,106.93,108.10,9
105,106.89,108.07,9
108,106.91,108.07,9
106,106.89,108.05,9
105,106.85,108.02,9
105,106.82,107.99,9
108,106.84,107.99,9
105,106.80,107.96,9
105,106.77,107.93,9
105,106.73,107.90,9
106,106.72,107.88,9
106,106.70,107.86,9
106,106.69,107.84,9
105,106.65,107.81,9
106,106.64,107.80,9
105,106.61,107.77,9
105,106.58,107.74,9
105,106.55,107.71,9
106,106.53,107.70,9
105,106.50,107.67,9
105,106.47,107.64,9
104,106.42,107.61,9
106,106.42,107.59,9
105,106.39,107.56,9
105,106.36,107.54,9
105,106.33,107.51,9
105,106.31,107.49,9
105,106.28,107.46,9
104,106.23,107.43,9
105,106.21,107.40,9
105,106.19,107.38,9
105,106.16,107.36,9
105,106.14,107.33,9
105,106.12,107.31,9
105,106.09,107.29,9
105,106.07,107.26,9
105,106.05,107.24,9
107,106.07,107.24,9
106,106.07,107.23,9
105,106.05,107.20,9
105,106.03,107.18,9
107,106.04,107.18,9
105,106.02,107.16,9
105,106.00,107.14,9
105,105.98,107.11,9
105,105.96,107.09,9
105,105.94,107.07,9
104,105.91,107.04,9
104,105.87,107.01,9
106,105.87,107.00,9
107,105.89,107.00,9
105,105.87,106.98,9
106,105.88,106.97,9
106,105.88,106.96,9
105,105.86,106.94,9
105,105.84,106.92,9
105,105.83,106.90,9
105,105.81,106.88,9
105,105.80,106.87,9
105,105.78,106.85,9
104,105.74,106.82,9
105,105.73,106.80,9
104,105.69,106.77,9
105,105.68,106.75,9
104,105.65,106.73,9
105,105.63,106.71,9
104,105.60,106.68,9
104,105.57,106.66,9
105,105.56,106.64,9
105,105.55,106.62,9
105,105.54,106.61,9
105,105.53,106.59,9
106,105.53,106.58,9
105,105.52,106.57,9
105,105.51,106.55,9
104,105.48,106.53,9
107,105.51,106.53,9
104,105.48,106.51,9
105,105.47,106.49,9
104,105.44,106.47,9
105,105.44,106.45,9
105,105.43,106.44,9
105,105.42,106.42,9
104,105.39,106.40,9
106,105.40,106.40,9
105,105.39,106.38,9
105,105.39,106.37,9
104,105.36,106.34,9
107,105.39,106.35,9
105,105.38,106.34,9
104,105.36,106.31,9
105,105.35,106.30,9
106,105.36,106.30,9
105,105.35,106.28,9
104,105.33,106.26,9
104,105.30,106.24,9
105,105.29,106.23,9
105,105.29,106.21,9
104,105.26,106.19,9
104,105.24,106.17,9
105,105.23,106.16,9
105,105.23,106.15,9
105,105.22,106.14,9
105,105.22,106.12,9
103,105.17,106.09,9
105,105.17,106.08,9
105,105.17,106.07,9
106,105.18,106.07,9
104,105.16,106.05,9
105,105.16,106.04,9
104,105.13,106.02,9
106,105.15,106.02,9
104,105.13,106.00,9
104,105.11,105.98,9
105,105.10,105.97,9
106,105.12,105.97,9
106,105.14,105.97,9
104,105.12,105.95,9
105,105.11,105.94,9
105,105.11,105.93,9
105,105.11,105.92,9
104,105.09,105.90,9
104,105.07,105.88,9
106,105.08,105.88,9
105,105.08,105.88,9
105,105.08,105.87,9
105,105.08,105.86,9
106,105.10,105.86,9
105,105.10,105.85,9
105,105.09,105.84,9
104,105.07,105.82,9
108,105.13,105.85,9
103,105.09,105.82,9
104,105.07,105.80,9
104,105.05,105.78,9
105,105.04,105.77,9
104,105.02,105.76,9
104,105.00,105.74,9
105,105.00,105.73,9
107,105.04,105.74,9
105,105.04,105.74,9
105,105.04,105.73,9
106,105.06,105.73,9
101,104.98,105.68,9
104,104.96,105.67,9
104,104.94,105.65,9
105,104.94,105.64,9
106,104.96,105.65,9
105,104.96,105.64,9
105,104.96,105.63,9
105,104.96,105.63,9
105,104.97,105.62,9
105,104.97,105.62,9
105,104.97,105.61,9
106,104.99,105.61,9
104,104.97,105.60,9
104,104.95,105.58,9
104,104.93,105.57,9
105,104.93,105.56,9
104,104.91,105.54,9
104,104.89,105.53,9
103,104.86,105.50,9
105,104.86,105.50,9
105,104.86,105.49,9
107,104.90,105.51,9
105,104.91,105.50,9
105,104.91,105.50,9
105,104.91,105.49,9
105,104.91,105.49,9
105,104.91,105.48,9
106,104.94,105.49,9
105,104.94,105.48,9
106,104.96,105.49,9
106,104.98,105.49,9
107,105.02,105.51,9
107,105.06,105.52,9
105,105.06,105.52,9
108,105.12,105.54,9
105,105.11,105.54,9
107,105.15,105.55,9
106,105.17,105.56,9
108,105.23,105.58,9
107,105.26,105.60,9
106,105.28,105.60,9
105,105.27,105.59,9
107,105.30,105.61,9
105,105.30,105.60,9
107,105.33,105.62,9
108,105.39,105.64,9
109,105.46,105.67,9
107,105.49,105.69,9
108,105.54,105.71,9
109,105.61,105.74,9
108,105.66,105.77,9
108,105.70,105.79,9
107,105.73,105.80,9
107,105.75,105.81,9
109,105.82,105.84,9
111,105.92,105.90,9
107,105.94,105.91,9
107,105.97,105.92,9
108,106.01,105.94,9
107,106.03,105.95,9
109,106.09,105.98,9
109,106.14,106.01,9
108,106.18,106.03,9
109,106.24,106.06,9
109,106.29,106.09,9
109,106.35,106.12,9
111,106.44,106.17,9
108,106.47,106.18,9
108,106.50,106.20,9
112,106.61,106.26,9
109,106.66,106.29,9
109,106.71,106.32,9
109,106.75,106.34,9
109,106.80,106.37,9
109,106.84,106.40,9
109,106.88,106.42,9
109,106.93,106.45,9
111,107.01,106.49,9
109,107.05,106.52,9
109,107.09,106.54,9
109,107.13,106.57,9
113,107.24,106.63,9
110,107.30,106.67,9
111,107.37,106.71,9
111,107.44,106.75,9
110,107.50,106.78,9
113,107.61,106.85,9
111,107.67,106.89,9
111,107.74,106.93,9
113,107.85,106.99,9
111,107.91,107.03,9
111,107.97,107.07,9
111,108.03,107.11,9
113,108.13,107.17,9
111,108.19,107.21,9
113,108.28,107.26,9
115,108.42,107.34,9
113,108.51,107.40,9
113,108.60,107.45,9
111,108.65,107.49,9
113,108.73,107.54,9
116,108.88,107.63,9
117,109.04,107.72,9
115,109.16,107.80,9
115,109.28,107.87,9
113,109.35,107.92,9
113,109.43,107.97,9
114,109.52,108.03,9
116,109.65,108.11,9
113,109.71,108.16,9
115,109.82,108.23,9
115,109.92,108.29,9
119,110.10,108.40,9
115,110.20,108.47,9
115,110.30,108.53,9
116,110.41,108.61,9
117,110.54,108.69,9
118,110.69,108.78,9
117,110.82,108.87,9
116,110.92,108.94,9
117,111.04,109.02,9
117,111.16,109.10,9
115,111.24,109.16,9
116,111.34,109.23,9
118,111.47,109.31,9
117,111.58,109.39,9
117,111.69,109.47,9
117,111.79,109.54,9
117,111.90,109.62,9
117,112.00,109.69,9
117,112.10,109.76,9
117,112.20,109.84,9
119,112.33,109.93,9
118,112.45,110.01,9
119,112.58,110.10,9
121,112.75,110.21,9
117,112.83,110.28,9
119,112.96,110.36,9
120,113.10,110.46,9
121,113.25,110.56,9
124,113.47,110.70,9
123,113.66,110.82,9
121,113.81,110.92,9
123,113.99,111.04,9
124,114.19,111.17,9
123,114.37,111.29,9
122,114.52,111.40,9
122,114.67,111.50,9
122,114.82,111.61,9
122,114.96,111.71,9
121,115.08,111.81,9
121,115.20,111.90,9
123,115.36,112.01,9
121,115.47,112.10,9
121,115.58,112.19,9
123,115.73,112.30,9
125,115.91,112.42,9
124,116.07,112.54,9
124,116.23,112.65,9
127,116.45,112.80,9
123,116.58,112.90,9
125,116.75,113.02,9
124,116.89,113.13,9
124,117.03,113.24,9
124,117.17,113.35,9
123,117.29,113.44,9
125,117.44,113.56,9
125,117.60,113.67,9
127,117.78,113.81,9
126,117.95,113.93,9
129,118.17,114.08,9
125,118.31,114.19,9
125,118.44,114.30,9
128,118.63,114.43,9
127,118.80,114.56,9
125,118.92,114.66,9
125,119.04,114.77,9
125,119.16,114.87,9
127,119.32,114.99,9
129,119.51,115.13,9
128,119.68,115.26,9
127,119.83,115.38,9
129,120.01,115.51,9
126,120.13,115.62,9
125,120.23,115.71,9
125,120.33,115.80,9
129,120.50,115.94,9
125,120.59,116.03,9
127,120.72,116.14,9
131,120.92,116.29,9
128,121.06,116.40,9
127,121.18,116.51,9
127,121.30,116.61,9
127,121.41,116.72,9
127,121.53,116.82,9
129,121.67,116.94,9
128,121.80,117.05,9
126,121.89,117.14,9
128,122.01,117.25,9
127,122.11,117.35,9
128,122.23,117.45,9
132,122.42,117.60,9
127,122.51,117.69,9
129,122.64,117.81,9
134,122.87,117.97,9
134,123.09,118.13,9
131,123.25,118.26,9
133,123.44,118.41,9
132,123.62,118.54,9
129,123.72,118.65,9
129,123.83,118.75,9
130,123.95,118.86,9
135,124.17,119.02,9
133,124.35,119.16,9
137,124.60,119.34,9
133,124.77,119.48,9
133,124.94,119.61,9
133,125.10,119.75,9
135,125.30,119.90,9
134,125.47,120.04,9
134,125.64,120.18,9
136,125.85,120.34,9
136,126.05,120.50,9
136,126.25,120.65,9
137,126.46,120.81,9
140,126.73,121.01,9
139,126.98,121.19,9
141,127.26,121.38,9
141,127.54,121.58,9
139,127.76,121.75,9
138,127.97,121.92,9
137,128.15,122.07,9
139,128.37,122.24,9
137,128.54,122.38,9
138,128.73,122.54,9
138,128.91,122.70,9
139,129.12,122.86,9
140,129.33,123.03,9
138,129.51,123.18,9
141,129.74,123.36,9
141,129.96,123.53,9
139,130.14,123.69,9
140,130.34,123.85,9
140,130.53,124.01,9
139,130.70,124.16,9
140,130.89,124.32,9
142,131.11,124.50,9
141,131.31,124.66,9
141,131.50,124.83,9
139,131.65,124.97,9
141,131.84,125.13,9
140,132.00,125.28,9
143,132.22,125.45,9
141,132.40,125.61,9
143,132.61,125.78,9
140,132.76,125.93,9
141,132.92,126.08,9
141,133.08,126.23,9
141,133.24,126.37,9
137,133.32,126.48,9
141,133.47,126.63,9
141,133.62,126.77,9
144,133.83,126.94,9
141,133.97,127.08,9
143,134.15,127.24,9
141,134.29,127.38,9
143,134.46,127.53,9
143,134.64,127.69,9
146,134.86,127.87,9
143,135.03,128.02,9
141,135.14,128.15,9
148,135.40,128.35,9
145,135.59,128.52,9
145,135.78,128.68,9
145,135.97,128.85,9
148,136.21,129.04,9
147,136.42,129.22,9
150,136.69,129.43,9
152,137.00,129.65,9
151,137.28,129.86,9
148,137.50,130.05,9
152,137.79,130.27,9
153,138.09,130.49,9
151,138.35,130.70,9
154,138.66,130.93,9
155,138.99,131.17,9
152,139.25,131.38,9
155,139.56,131.62,9
155,139.87,131.85,9
153,140.13,132.06,9
152,140.37,132.26,9
153,140.62,132.47,9
151,140.83,132.65,9
152,141.05,132.85,9
153,141.29,133.05,9
153,141.53,133.25,9
153,141.76,133.45,9
157,142.06,133.68,9
158,142.38,133.92,9
153,142.59,134.12,9
155,142.84,134.32,9
161,143.20,134.59,9
159,143.52,134.84,9
157,143.79,135.06,9
157,144.05,135.28,9
157,144.31,135.49,9
162,144.67,135.76,9
157,144.91,135.97,9
162,145.26,136.23,9
164,145.63,136.51,9
159,145.90,136.73,9
160,146.18,136.97,9
159,146.44,137.19,9
162,146.75,137.43,9
165,147.11,137.71,9
161,147.39,137.94,9
166,147.76,138.22,9
163,148.07,138.47,9
163,148.37,138.72,9
162,148.64,138.95,9
161,148.89,139.17,9
161,149.13,139.39,9
164,149.43,139.63,9
161,149.66,139.85,9
161,149.88,140.06,9
161,150.11,140.27,9
164,150.38,140.51,9
164,150.66,140.74,9
161,150.86,140.94,9
162,151.09,141.15,9
161,151.28,141.35,9
169,151.64,141.63,9
165,151.91,141.86,9
166,152.19,142.10,9
171,152.56,142.39,9
173,152.97,142.70,9
170,153.31,142.97,9
170,153.65,143.24,9
179,154.15,143.60,9
181,154.69,143.97,9
171,155.02,144.24,9
175,155.42,144.55,9
174,155.79,144.85,9
173,156.13,145.13,9
172,156.45,145.40,9
173,156.78,145.67,9
173,157.11,145.95,9
172,157.40,146.21,9
173,157.72,146.47,9
177,158.10,146.78,9
174,158.42,147.05,9
175,158.75,147.33,9
173,159.04,147.59,9
175,159.35,147.86,9
177,159.71,148.15,9
176,160.03,148.43,9
175,160.33,148.70,9
175,160.63,148.96,9
174,160.89,149.21,9
173,161.14,149.45,9
173,161.37,149.68,9
175,161.65,149.94,9
173,161.87,150.17,9
173,162.10,150.40,9
172,162.29,150.61,9
173,162.51,150.84,9
172,162.70,151.05,9
171,162.86,151.25,9
171,163.03,151.45,9
172,163.21,151.65,9
171,163.36,151.84,9
173,163.55,152.06,9
172,163.72,152.26,9
173,163.91,152.46,9
173,164.09,152.67,9
173,164.27,152.87,9
176,164.50,153.10,9
173,164.67,153.30,9
171,164.80,153.48,9
172,164.94,153.66,9
173,165.11,153.86,9
175,165.30,154.07,9
177,165.54,154.30,9
175,165.73,154.51,9
175,165.91,154.71,9
175,166.09,154.91,9
175,166.27,155.11,9
174,166.43,155.30,9
177,166.64,155.52,9
176,166.82,155.72,9
177,167.03,155.94,9
175,167.19,156.13,9
178,167.40,156.35,9
175,167.56,156.53,9
173,167.66,156.70,9
173,167.77,156.86,9
173,167.88,157.02,9
175,168.02,157.20,9
173,168.12,157.36,9
173,168.22,157.52,9
175,168.35,157.69,9
173,168.44,157.84,9
173,168.54,158.00,9
173,168.63,158.15,9
173,168.71,158.29,9
173,168.80,158.44,9
173,168.88,158.59,9
174,168.98,158.74,9
171,169.02,158.86,9
172,169.08,159.00,9
172,169.14,159.13,9
175,169.26,159.28,9
171,169.29,159.40,9
173,169.37,159.54,9
171,169.40,159.65,9
172,169.45,159.78,9
171,169.48,159.89,9
172,169.53,160.01,9
171,169.56,160.12,9
173,169.63,160.25,9
171,169.66,160.36,9
171,169.69,160.46,9
171,169.71,160.57,9
173,169.78,160.69,9
171,169.80,160.79,9
172,169.85,160.91,9
169,169.83,160.99,9
172,169.87,161.10,9
175,169.98,161.24,9
173,170.04,161.35,9
171,170.06,161.45,9
173,170.11,161.57,9
171,170.13,161.66,9
171,170.15,161.75,9
171,170.17,161.85,9
171,170.18,161.94,9
170,170.18,162.02,9
170,170.18,162.10,9
169,170.15,162.17,9
171,170.17,162.26,9
171,170.19,162.34,9
169,170.16,162.41,9
172,170.20,162.51,9
169,170.18,162.57,9
169,170.15,162.63,9
169,170.13,162.70,9
173,170.19,162.80,9
170,170.18,162.87,9
169,170.16,162.93,9
168,170.12,162.99,9
169,170.09,163.05,9
170,170.09,163.12,9
169,170.07,163.17,9
169,170.05,163.23,9
169,170.03,163.29,9
168,169.99,163.34,9
167,169.93,163.37,9
168,169.89,163.42,9
169,169.87,163.48,9
167,169.81,163.51,9
167,169.76,163.55,9
167,169.70,163.58,9
167,169.65,163.61,9
166,169.58,163.64,9
166,169.50,163.66,9
165,169.41,163.68,9
165,169.33,163.69,9
166,169.26,163.71,9
166,169.19,163.73,9
165,169.11,163.75,9
166,169.05,163.77,9
165,168.97,163.78,9
165,168.89,163.79,9
164,168.79,163.80,9
165,168.71,163.81,9
167,168.68,163.84,9
166,168.63,163.86,9
167,168.59,163.89,9
165,168.52,163.90,9
163,168.41,163.90,9
164,168.32,163.90,9
165,168.26,163.91,9
165,168.19,163.92,9
164,168.11,163.92,9
164,168.03,163.92,9
165,167.96,163.93,9
165,167.91,163.94,9
165,167.85,163.95,9
164,167.77,163.95,9
165,167.72,163.96,9
163,167.62,163.95,9
163,167.53,163.94,9
162,167.42,163.92,9
164,167.35,163.93,9
163,167.26,163.92,9
163,167.18,163.91,9
162,167.07,163.89,9
163,166.99,163.88,9
164,166.93,163.88,9
163,166.85,163.87,9
163,166.78,163.86,9
165,166.74,163.87,9
165,166.71,163.89,9
162,166.61,163.87,9
161,166.50,163.84,9
161,166.39,163.81,9
161,166.28,163.78,9
161,166.18,163.75,9
162,166.09,163.74,9
161,165.99,163.71,9
161,165.89,163.68,9
160,165.77,163.64,9
162,165.70,163.63,9
161,165.60,163.60,9
160,165.49,163.57,9
160,165.38,163.53,9
162,165.31,163.51,9
159,165.19,163.47,9
160,165.08,163.44,9
159,164.96,163.39,9
160,164.86,163.36,9
161,164.79,163.33,9
159,164.67,163.29,9
159,164.56,163.25,9
161,164.49,163.22,9
159,164.38,163.18,9
160,164.29,163.15,9
161,164.22,163.13,9
161,164.16,163.11,9
160,164.08,163.08,9
159,163.97,163.04,9
159,163.87,163.00,9
160,163.80,162.97,9
160,163.72,162.94,9
159,163.63,162.90,9
159,163.53,162.86,9
159,163.44,162.82,9
159,163.35,162.78,9
157,163.23,162.72,9
158,163.12,162.68,9
159,163.04,162.64,9
158,162.94,162.59,9
157,162.82,162.54,9
159,162.74,162.50,9
159,162.67,162.47,9
158,162.58,162.42,9
158,162.48,162.38,10
160,162.43,162.35,10
157,162.33,162.30,11
157,162.22,162.25,11
156,162.10,162.18,12
158,162.01,162.14,12
157,161.91,162.09,12
157,161.81,162.04,12
157,161.72,161.99,12
158,161.64,161.95,12
156,161.53,161.89,12
156,161.42,161.83,12
157,161.33,161.78,12
157,161.25,161.74,12
155,161.12,161.67,12
156,161.02,161.61,12
157,160.94,161.57,12
156,160.84,161.51,12
155,160.72,161.44,12
155,160.61,161.38,12
155,160.50,161.32,12
154,160.37,161.24,12
154,160.24,161.17,12
155,160.13,161.11,12
154,160.01,161.04,12
154,159.89,160.97,12
153,159.75,160.89,12
154,159.64,160.82,12
151,159.47,160.72,12
153,159.34,160.64,12
152,159.19,160.56,12
154,159.09,160.49,12
154,158.98,160.43,12
153,158.86,160.35,12
152,158.73,160.27,12
153,158.61,160.20,12
151,158.46,160.10,12
153,158.35,160.03,12
155,158.28,159.98,12
153,158.18,159.91,12
