Teste de posicionamento 1.1(EMG ao centro do bíceps (Verde A, Vermelho B) + Ref no pulso) - 16/04/2024 - teste2 - 5 contrações
long frequencia = 1000;                 //frequência de aquisição do sinal, neste caso, 1000 sinais por segundo
float fator1 = 0.02, fator2 = 0.01;
float incerteza = 0.13;
float pico_basal = 130; // Mínimo para ser considerado um pico de contração
int filtro_horizontal=200000; //intervalo de 200ms valores não pode ter mais de 1 contração

Biceps_D,mediaMovel_1,mediaMovel_2,Contracao
74,1.48,0.74,0
75,2.95,1.48,0
74,4.37,2.21,0
73,5.74,2.92,0
74,7.11,3.63,0
75,8.47,4.34,0
73,9.76,5.03,0
75,11.06,5.73,0
74,12.32,6.41,0
74,13.55,7.09,0
74,14.76,7.75,0
75,15.97,8.43,0
73,17.11,9.07,0
74,18.25,9.72,0
74,19.36,10.36,0
73,20.43,10.99,0
73,21.49,11.61,0
74,22.54,12.23,0
74,23.57,12.85,0
74,24.57,13.46,0
75,25.58,14.08,0
74,26.55,14.68,0
74,27.50,15.27,0
73,28.41,15.85,0
74,29.32,16.43,0
74,30.22,17.01,0
74,31.09,17.58,0
76,31.99,18.16,0
74,32.83,18.72,0
74,33.65,19.27,0
74,34.46,19.82,0
72,35.21,20.34,0
73,35.97,20.87,0
74,36.73,21.40,0
73,37.45,21.91,0
74,38.18,22.44,0
73,38.88,22.94,0
74,39.58,23.45,0
74,40.27,23.96,0
73,40.93,24.45,0
74,41.59,24.94,0
72,42.19,25.41,0
74,42.83,25.90,0
71,43.39,26.35,0
74,44.01,26.83,0
76,44.65,27.32,0
72,45.19,27.77,0
74,45.77,28.23,0
72,46.29,28.67,0
72,46.81,29.10,0
72,47.31,29.53,0
73,47.83,29.96,0
74,48.35,30.40,0
72,48.82,30.82,0
72,49.29,31.23,0
73,49.76,31.65,0
72,50.21,32.05,0
73,50.66,32.46,0
73,51.11,32.87,0
73,51.55,33.27,0
74,51.99,33.68,0
73,52.41,34.07,0
72,52.81,34.45,0
72,53.19,34.82,0
74,53.61,35.22,0
72,53.97,35.58,0
72,54.33,35.95,0
73,54.71,36.32,0
72,55.05,36.67,0
72,55.39,37.03,0
73,55.75,37.39,0
73,56.09,37.74,0
73,56.43,38.10,0
72,56.74,38.44,0
72,57.05,38.77,0
74,57.38,39.12,0
73,57.70,39.46,0
72,57.98,39.79,0
72,58.26,40.11,0
73,58.56,40.44,0
74,58.87,40.77,0
72,59.13,41.09,0
72,59.39,41.40,0
72,59.64,41.70,0
72,59.89,42.00,0
72,60.13,42.30,0
72,60.37,42.60,0
72,60.60,42.90,0
74,60.87,43.21,0
72,61.09,43.49,0
72,61.31,43.78,0
73,61.54,44.07,0
72,61.75,44.35,0
72,61.96,44.63,0
72,62.16,44.90,0
72,62.35,45.17,0
72,62.55,45.44,0
72,62.74,45.71,0
72,62.92,45.97,0
72,63.10,46.23,0
72,63.28,46.49,0
72,63.45,46.74,0
72,63.63,46.99,0
72,63.79,47.24,0
72,63.96,47.49,0
72,64.12,47.74,0
70,64.24,47.96,0
72,64.39,48.20,0
71,64.52,48.43,0
70,64.63,48.64,0
71,64.76,48.87,0
72,64.90,49.10,0
72,65.05,49.33,0
70,65.15,49.53,0
70,65.24,49.74,0
71,65.36,49.95,0
72,65.49,50.17,0
71,65.60,50.38,0
70,65.69,50.58,0
71,65.80,50.78,0
72,65.92,50.99,0
72,66.04,51.20,0
70,66.12,51.39,0
72,66.24,51.60,0
70,66.31,51.78,0
70,66.39,51.96,0
70,66.46,52.14,0
71,66.55,52.33,0
70,66.62,52.51,0
72,66.73,52.70,0
70,66.79,52.88,0
70,66.86,53.05,0
70,66.92,53.22,0
70,66.98,53.39,0
70,67.04,53.55,0
71,67.12,53.73,0
70,67.18,53.89,0
70,67.23,54.05,0
71,67.31,54.22,0
71,67.38,54.39,0
74,67.52,54.58,0
70,67.57,54.74,0
73,67.67,54.92,0
71,67.74,55.08,0
71,67.81,55.24,0
71,67.87,55.40,0
70,67.91,55.54,0
70,67.95,55.69,0
71,68.01,55.84,0
70,68.05,55.98,0
74,68.17,56.16,0
70,68.21,56.30,0
71,68.27,56.45,0
70,68.30,56.58,0
71,68.35,56.73,0
70,68.39,56.86,0
69,68.40,56.98,0
70,68.43,57.11,0
69,68.44,57.23,0
71,68.49,57.37,0
72,68.56,57.52,0
70,68.59,57.64,0
70,68.62,57.76,0
72,68.69,57.91,0
71,68.73,58.04,0
72,68.80,58.18,0
68,68.78,58.28,0
70,68.81,58.39,0
71,68.85,58.52,0
70,68.88,58.63,0
70,68.90,58.75,0
71,68.94,58.87,0
70,68.96,58.98,0
71,69.00,59.10,0
70,69.02,59.21,0
71,69.06,59.33,0
71,69.10,59.44,0
70,69.12,59.55,0
70,69.14,59.65,0
71,69.17,59.77,0
71,69.21,59.88,0
71,69.25,59.99,0
70,69.26,60.09,0
71,69.30,60.20,0
71,69.33,60.31,0
71,69.36,60.42,0
70,69.38,60.51,0
71,69.41,60.62,0
71,69.44,60.72,0
71,69.47,60.82,0
72,69.52,60.93,0
71,69.55,61.04,0
71,69.58,61.14,0
71,69.61,61.23,0
70,69.62,61.32,0
72,69.66,61.43,0
72,69.71,61.53,0
71,69.74,61.63,0
70,69.74,61.71,0
71,69.77,61.81,0
71,69.79,61.90,0
71,69.82,61.99,0
70,69.82,62.07,0
71,69.84,62.16,0
71,69.87,62.25,0
70,69.87,62.32,0
69,69.85,62.39,0
71,69.87,62.48,0
70,69.88,62.55,0
70,69.88,62.63,0
70,69.88,62.70,0
71,69.90,62.78,0
72,69.95,62.88,0
72,69.99,62.97,0
70,69.99,63.04,0
71,70.01,63.12,0
71,70.03,63.20,0
71,70.05,63.27,0
71,70.07,63.35,0
71,70.08,63.43,0
70,70.08,63.49,0
70,70.08,63.56,0
70,70.08,63.62,0
71,70.10,63.70,0
73,70.16,63.79,0
70,70.15,63.85,0
70,70.15,63.91,0
70,70.15,63.97,0
70,70.14,64.03,0
70,70.14,64.09,0
70,70.14,64.15,0
70,70.14,64.21,0
70,70.13,64.27,0
70,70.13,64.33,0
70,70.13,64.38,0
70,70.13,64.44,0
70,70.12,64.49,0
69,70.10,64.54,0
70,70.10,64.59,0
71,70.12,64.66,0
70,70.11,64.71,0
70,70.11,64.76,0
70,70.11,64.82,0
69,70.09,64.86,0
70,70.09,64.91,0
70,70.08,64.96,0
70,70.08,65.01,0
69,70.06,65.05,0
71,70.08,65.11,0
70,70.08,65.16,0
70,70.08,65.21,0
70,70.07,65.26,0
70,70.07,65.30,0
70,70.07,65.35,0
70,70.07,65.40,0
69,70.05,65.43,0
69,70.03,65.47,0
70,70.03,65.51,0
69,70.01,65.55,0
69,69.99,65.58,0
71,70.01,65.64,0
70,70.01,65.68,0
70,70.01,65.72,0
70,70.01,65.77,0
70,70.01,65.81,0
73,70.07,65.88,0
70,70.06,65.92,0
70,70.06,65.96,0
70,70.06,66.00,0
70,70.06,66.04,0
70,70.06,66.08,0
69,70.04,66.11,0
69,70.02,66.14,0
67,69.96,66.15,0
70,69.96,66.19,0
70,69.96,66.23,0
70,69.96,66.26,0
70,69.96,66.30,0
70,69.96,66.34,0
69,69.94,66.37,0
70,69.94,66.40,0
68,69.90,66.42,0
70,69.91,66.45,0
72,69.95,66.51,0
70,69.95,66.54,0
70,69.95,66.58,0
70,69.95,66.61,0
70,69.95,66.65,0
70,69.95,66.68,0
69,69.93,66.70,0
70,69.94,66.74,0
70,69.94,66.77,0
67,69.88,66.77,0
69,69.86,66.79,0
70,69.86,66.83,0
70,69.87,66.86,0
70,69.87,66.89,0
70,69.87,66.92,0
70,69.87,66.95,0
70,69.88,66.98,0
69,69.86,67.00,0
70,69.86,67.03,0
70,69.86,67.06,0
70,69.87,67.09,0
70,69.87,67.12,0
70,69.87,67.15,0
69,69.86,67.17,0
69,69.84,67.18,0
69,69.82,67.20,0
70,69.82,67.23,0
69,69.81,67.25,0
70,69.81,67.28,0
70,69.82,67.30,0
70,69.82,67.33,0
70,69.82,67.36,0
70,69.83,67.38,0
70,69.83,67.41,0
70,69.83,67.44,0
69,69.82,67.45,0
71,69.84,67.49,0
70,69.84,67.51,0
68,69.81,67.52,0
69,69.79,67.53,0
70,69.79,67.56,0
69,69.78,67.57,0
70,69.78,67.60,0
70,69.79,67.62,0
70,69.79,67.64,0
72,69.84,67.69,0
70,69.84,67.71,0
70,69.84,67.73,0
72,69.89,67.78,0
71,69.91,67.81,0
71,69.93,67.84,0
70,69.93,67.86,0
72,69.97,67.90,0
72,70.01,67.94,0
71,70.03,67.97,0
70,70.03,67.99,0
71,70.05,68.02,0
72,70.09,68.06,0
72,70.13,68.10,0
71,70.15,68.13,0
72,70.18,68.17,0
74,70.26,68.23,0
71,70.27,68.26,0
70,70.27,68.27,0
73,70.32,68.32,0
72,70.36,68.36,0
72,70.39,68.39,0
72,70.42,68.43,0
72,70.45,68.47,0
72,70.48,68.50,0
74,70.56,68.56,0
73,70.60,68.60,0
74,70.67,68.66,0
75,70.76,68.72,0
74,70.82,68.77,0
76,70.93,68.84,0
74,70.99,68.90,0
74,71.05,68.95,0
74,71.11,69.00,0
74,71.17,69.05,0
75,71.24,69.11,0
74,71.30,69.16,0
74,71.35,69.20,0
74,71.40,69.25,0
75,71.48,69.31,0
75,71.55,69.37,0
74,71.60,69.41,0
74,71.64,69.46,0
75,71.71,69.51,0
75,71.78,69.57,0
76,71.86,69.63,0
75,71.92,69.69,0
75,71.99,69.74,0
75,72.05,69.79,0
76,72.12,69.85,0
75,72.18,69.91,0
75,72.24,69.96,0
75,72.29,70.01,0
73,72.31,70.04,0
74,72.34,70.08,0
75,72.40,70.13,0
78,72.51,70.20,0
76,72.58,70.26,0
74,72.61,70.30,0
74,72.63,70.34,0
71,72.60,70.34,0
76,72.67,70.40,0
74,72.70,70.44,0
76,72.76,70.49,0
76,72.83,70.55,0
74,72.85,70.58,0
74,72.87,70.62,0
74,72.90,70.65,0
73,72.90,70.67,0
75,72.94,70.72,0
74,72.96,70.75,0
74,72.98,70.78,0
75,73.02,70.82,0
75,73.06,70.87,0
74,73.08,70.90,0
75,73.12,70.94,0
76,73.18,70.99,0
75,73.21,71.03,0
75,73.25,71.07,0
75,73.28,71.11,0
76,73.34,71.16,0
76,73.39,71.21,0
75,73.42,71.24,0
75,73.45,71.28,0
76,73.51,71.33,0
76,73.56,71.37,0
76,73.60,71.42,0
77,73.67,71.48,0
77,73.74,71.53,0
75,73.76,71.57,0
74,73.77,71.59,0
75,73.79,71.63,0
76,73.84,71.67,0
75,73.86,71.70,0
76,73.90,71.75,0
76,73.95,71.79,0
76,73.99,71.83,0
76,74.03,71.87,0
74,74.03,71.89,0
76,74.07,71.93,0
76,74.10,71.97,0
75,74.12,72.00,0
75,74.14,72.03,0
76,74.18,72.07,0
75,74.19,72.10,0
74,74.19,72.12,0
74,74.19,72.14,0
76,74.22,72.18,0
75,74.24,72.21,0
76,74.27,72.25,0
76,74.31,72.28,0
79,74.40,72.35,0
76,74.43,72.39,0
76,74.46,72.42,0
76,74.50,72.46,0
77,74.55,72.50,0
77,74.59,72.55,0
78,74.66,72.60,0
76,74.69,72.64,0
78,74.76,72.69,0
78,74.82,72.74,0
78,74.88,72.80,0
78,74.95,72.85,0
79,75.03,72.91,0
78,75.09,72.96,0
80,75.19,73.03,0
78,75.24,73.08,0
78,75.30,73.13,0
80,75.39,73.20,0
78,75.44,73.25,0
78,75.49,73.30,0
79,75.56,73.35,0
80,75.65,73.42,0
78,75.70,73.46,0
78,75.75,73.51,0
78,75.79,73.55,0
78,75.84,73.60,0
78,75.88,73.64,0
78,75.92,73.69,0
79,75.98,73.74,0
78,76.02,73.78,0
78,76.06,73.82,0
78,76.10,73.87,0
78,76.14,73.91,0
78,76.18,73.95,0
78,76.21,73.99,0
78,76.25,74.03,0
78,76.28,74.07,0
80,76.36,74.13,0
78,76.39,74.17,0
78,76.42,74.21,0
79,76.47,74.25,0
78,76.50,74.29,0
79,76.55,74.34,0
78,76.58,74.37,0
79,76.63,74.42,0
79,76.68,74.47,0
79,76.73,74.51,0
79,76.77,74.56,0
79,76.82,74.60,0
82,76.92,74.68,0
79,76.96,74.72,0
78,76.98,74.75,0
79,77.02,74.79,0
80,77.08,74.85,0
80,77.14,74.90,0
79,77.18,74.94,0
84,77.31,75.03,0
80,77.37,75.08,0
79,77.40,75.12,0
80,77.45,75.17,0
81,77.52,75.23,0
80,77.57,75.27,0
80,77.62,75.32,0
80,77.67,75.37,0
82,77.76,75.43,0
80,77.80,75.48,0
80,77.84,75.52,0
80,77.89,75.57,0
79,77.91,75.60,0
80,77.95,75.65,0
80,77.99,75.69,0
80,78.03,75.73,0
79,78.05,75.77,0
81,78.11,75.82,0
80,78.15,75.86,0
80,78.19,75.90,0
81,78.24,75.95,0
81,78.30,76.00,0
82,78.37,76.06,0
80,78.40,76.10,0
82,78.48,76.16,0
81,78.53,76.21,0
82,78.60,76.27,0
84,78.70,76.35,0
82,78.77,76.40,0
83,78.85,76.47,0
82,78.92,76.52,0
84,79.02,76.60,0
81,79.06,76.64,0
82,79.12,76.70,0
82,79.18,76.75,0
82,79.23,76.80,0
84,79.33,76.87,0
83,79.40,76.93,0
84,79.49,77.01,0
84,79.58,77.08,0
84,79.67,77.14,0
84,79.76,77.21,0
84,79.84,77.28,0
86,79.97,77.37,0
85,80.07,77.44,0
86,80.18,77.53,0
86,80.30,77.61,0
86,80.42,77.70,0
85,80.51,77.77,0
87,80.64,77.86,0
86,80.74,77.94,0
85,80.83,78.02,0
86,80.93,78.10,0
86,81.03,78.17,0
86,81.13,78.25,0
87,81.25,78.34,0
86,81.35,78.42,0
87,81.46,78.50,0
86,81.55,78.58,0
86,81.64,78.65,0
87,81.75,78.74,0
86,81.83,78.81,0
86,81.91,78.88,0
86,82.00,78.95,0
88,82.12,79.04,0
88,82.23,79.13,0
88,82.35,79.22,0
88,82.46,79.31,0
87,82.55,79.38,0
88,82.66,79.47,0
88,82.77,79.56,0
88,82.87,79.64,0
89,83.00,79.73,0
88,83.10,79.82,0
88,83.19,79.90,0
88,83.29,79.98,0
89,83.40,80.07,0
88,83.50,80.15,0
90,83.63,80.25,0
88,83.71,80.33,0
88,83.80,80.40,0
88,83.88,80.48,0
88,83.97,80.55,0
88,84.05,80.63,0
89,84.15,80.71,0
89,84.24,80.79,0
88,84.32,80.87,0
90,84.43,80.96,0
89,84.52,81.04,0
89,84.61,81.12,0
90,84.72,81.21,0
90,84.83,81.29,0
91,84.95,81.39,0
90,85.05,81.48,0
90,85.15,81.56,0
90,85.25,81.65,0
91,85.36,81.74,0
91,85.47,81.83,0
90,85.56,81.91,0
90,85.65,82.00,0
90,85.74,82.08,0
91,85.85,82.17,0
91,85.95,82.25,0
92,86.07,82.35,0
92,86.19,82.45,0
91,86.28,82.53,0
92,86.40,82.63,0
94,86.55,82.74,0
92,86.66,82.83,0
92,86.77,82.93,0
92,86.87,83.02,0
92,86.97,83.11,0
92,87.07,83.20,0
92,87.17,83.28,0
92,87.27,83.37,0
96,87.44,83.50,0
93,87.56,83.59,0
93,87.66,83.69,0
92,87.75,83.77,0
92,87.84,83.85,0
93,87.94,83.94,0
92,88.02,84.02,0
94,88.14,84.12,0
94,88.26,84.22,0
94,88.37,84.32,0
94,88.48,84.42,0
94,88.59,84.51,0
94,88.70,84.61,0
94,88.81,84.70,0
96,88.95,84.81,0
96,89.09,84.93,0
96,89.23,85.04,0
95,89.35,85.14,0
95,89.46,85.23,0
95,89.57,85.33,0
96,89.70,85.44,0
95,89.81,85.53,0
96,89.93,85.64,0
97,90.07,85.75,0
96,90.19,85.86,0
96,90.31,85.96,0
96,90.42,86.06,0
96,90.53,86.16,0
96,90.64,86.26,0
95,90.73,86.34,0
96,90.83,86.44,0
96,90.94,86.53,0
96,91.04,86.63,0
97,91.16,86.73,0
97,91.27,86.84,0
96,91.37,86.93,0
96,91.46,87.02,0
96,91.55,87.11,0
96,91.64,87.20,0
96,91.73,87.29,0
96,91.81,87.37,0
97,91.92,87.47,0
97,92.02,87.56,0
96,92.10,87.65,0
96,92.18,87.73,0
97,92.27,87.82,0
97,92.37,87.92,0
96,92.44,88.00,0
96,92.51,88.08,0
97,92.60,88.17,0
97,92.69,88.25,0
96,92.76,88.33,0
96,92.82,88.41,0
98,92.92,88.50,0
98,93.03,88.60,0
97,93.10,88.68,0
96,93.16,88.76,0
96,93.22,88.83,0
97,93.30,88.91,0
97,93.37,88.99,0
98,93.46,89.08,0
98,93.55,89.17,0
97,93.62,89.25,0
98,93.71,89.34,0
98,93.79,89.42,0
98,93.88,89.51,0
100,94.00,89.61,0
100,94.12,89.72,0
99,94.22,89.81,0
102,94.37,89.93,0
102,94.53,90.05,0
102,94.68,90.17,0
103,94.84,90.30,0
104,95.03,90.44,0
105,95.23,90.58,0
104,95.40,90.72,0
104,95.57,90.85,0
104,95.74,90.98,0
104,95.91,91.11,0
104,96.07,91.24,0
103,96.21,91.36,0
103,96.34,91.48,0
103,96.48,91.59,0
105,96.65,91.72,0
104,96.79,91.85,0
104,96.94,91.97,0
104,97.08,92.09,0
105,97.24,92.22,0
105,97.39,92.35,0
105,97.55,92.47,0
106,97.71,92.61,0
105,97.86,92.73,0
105,98.00,92.85,0
107,98.18,93.00,0
106,98.34,93.13,0
106,98.49,93.25,0
107,98.66,93.39,0
107,98.83,93.53,0
107,98.99,93.66,0
108,99.17,93.81,0
107,99.33,93.94,0
108,99.50,94.08,0
108,99.67,94.22,0
109,99.86,94.37,0
108,100.02,94.50,0
109,100.20,94.65,0
108,100.36,94.78,0
108,100.51,94.91,0
108,100.66,95.04,0
107,100.79,95.16,0
108,100.93,95.29,0
108,101.07,95.42,0
107,101.19,95.53,0
109,101.35,95.67,0
108,101.48,95.79,0
109,101.63,95.92,0
109,101.78,96.06,0
109,101.92,96.18,0
108,102.04,96.30,0
109,102.18,96.43,0
108,102.30,96.55,0
109,102.43,96.67,0
108,102.54,96.78,0
108,102.65,96.90,0
108,102.76,97.01,0
108,102.87,97.12,0
108,102.97,97.23,0
109,103.09,97.34,0
107,103.17,97.44,0
108,103.26,97.55,0
108,103.36,97.65,0
108,103.45,97.75,0
108,103.54,97.86,0
108,103.63,97.96,0
110,103.76,98.08,0
110,103.88,98.20,0
111,104.03,98.33,0
110,104.15,98.44,0
110,104.26,98.56,0
110,104.38,98.67,0
110,104.49,98.79,0
111,104.62,98.91,0
111,104.75,99.03,0
111,104.87,99.15,0
111,105.00,99.27,0
112,105.14,99.39,0
111,105.25,99.51,0
113,105.41,99.64,0
113,105.56,99.78,0
113,105.71,99.91,0
112,105.83,100.03,0
111,105.94,100.14,0
112,106.06,100.26,0
113,106.20,100.39,0
112,106.31,100.50,0
113,106.45,100.63,0
113,106.58,100.75,0
113,106.71,100.87,0
114,106.85,101.01,0
114,107.00,101.14,0
113,107.12,101.25,0
113,107.23,101.37,0
113,107.35,101.49,0
113,107.46,101.60,0
115,107.61,101.74,0
115,107.76,101.87,0
116,107.93,102.01,0
115,108.07,102.14,0
115,108.21,102.27,0
115,108.34,102.40,0
115,108.47,102.52,0
115,108.60,102.65,0
115,108.73,102.77,0
113,108.82,102.87,0
116,108.96,103.00,0
117,109.12,103.14,0
117,109.28,103.28,0
117,109.43,103.42,0
115,109.55,103.54,0
120,109.75,103.70,0
121,109.98,103.87,0
123,110.24,104.07,0
123,110.50,104.25,0
123,110.75,104.44,0
122,110.97,104.62,0
122,111.19,104.79,0
121,111.39,104.95,0
124,111.64,105.14,0
124,111.89,105.33,0
127,112.19,105.55,0
129,112.53,105.78,0
130,112.87,106.03,0
129,113.20,106.26,0
131,113.55,106.50,0
133,113.94,106.77,0
135,114.36,107.05,0
138,114.84,107.36,0
138,115.30,107.67,0
139,115.77,107.98,0
140,116.26,108.30,0
141,116.75,108.63,0
141,117.24,108.95,0
142,117.73,109.28,0
141,118.20,109.60,0
143,118.69,109.93,0
143,119.18,110.26,0
142,119.64,110.58,0
143,120.10,110.90,0
143,120.56,111.23,0
145,121.05,111.56,0
148,121.59,111.93,0
148,122.12,112.29,0
149,122.66,112.66,0
149,123.18,113.02,0
149,123.70,113.38,0
148,124.18,113.72,0
149,124.68,114.08,0
154,125.27,114.48,0
150,125.76,114.83,0
152,126.29,115.20,0
151,126.78,115.56,0
153,127.31,115.94,0
152,127.80,116.30,0
151,128.26,116.64,0
151,128.72,116.99,0
152,129.18,117.34,0
152,129.64,117.68,0
153,130.11,118.04,0
152,130.55,118.38,0
153,130.99,118.72,0
155,131.47,119.09,0
157,131.99,119.46,0
159,132.53,119.86,0
156,132.99,120.22,0
160,133.53,120.62,0
161,134.08,121.02,0
164,134.68,121.45,0
164,135.27,121.88,0
164,135.84,122.30,0
165,136.43,122.73,0
166,137.02,123.16,0
168,137.64,123.61,0
170,138.29,124.07,0
169,138.90,124.52,0
169,139.50,124.97,0
169,140.09,125.41,0
171,140.71,125.86,0
173,141.36,126.33,0
174,142.01,126.81,0
173,142.63,127.27,0
173,143.24,127.73,0
173,143.83,128.18,0
173,144.41,128.63,0
173,144.99,129.07,0
174,145.57,129.52,0
174,146.13,129.97,0
174,146.69,130.41,0
173,147.22,130.83,0
175,147.77,131.28,0
177,148.36,131.73,0
175,148.89,132.17,0
175,149.41,132.59,0
176,149.95,133.03,0
177,150.49,133.47,0
177,151.02,133.90,0
179,151.58,134.35,0
179,152.12,134.80,0
179,152.66,135.24,0
179,153.19,135.68,0
179,153.71,136.11,0
179,154.21,136.54,0
181,154.75,136.99,0
181,155.27,137.43,0
182,155.81,137.87,0
185,156.39,138.34,0
185,156.96,138.81,0
189,157.60,139.31,0
187,158.19,139.79,0
187,158.77,140.26,0
187,159.33,140.73,0
188,159.91,141.20,0
187,160.45,141.66,0
189,161.02,142.13,0
189,161.58,142.60,0
189,162.13,143.07,0
189,162.66,143.52,0
189,163.19,143.98,0
190,163.73,144.44,0
191,164.27,144.91,0
192,164.83,145.38,0
191,165.35,145.83,0
192,165.88,146.29,0
193,166.43,146.76,0
192,166.94,147.21,0
192,167.44,147.66,0
192,167.93,148.11,0
192,168.41,148.54,0
193,168.90,148.99,0
192,169.36,149.42,0
193,169.84,149.85,0
192,170.28,150.28,0
193,170.74,150.70,0
195,171.22,151.15,0
195,171.70,151.58,0
196,172.18,152.03,0
196,172.66,152.47,0
197,173.15,152.91,0
197,173.62,153.35,0
199,174.13,153.81,0
199,174.63,154.26,0
200,175.13,154.72,0
201,175.65,155.18,0
202,176.18,155.65,0
201,176.68,156.10,0
201,177.16,156.55,0
202,177.66,157.01,0
204,178.19,157.48,0
203,178.68,157.93,0
203,179.17,158.38,0
203,179.64,158.83,0
204,180.13,159.28,0
203,180.59,159.72,0
204,181.06,160.16,0
205,181.54,160.61,0
205,182.01,161.05,0
205,182.47,161.49,0
205,182.92,161.93,0
207,183.40,162.38,0
205,183.83,162.81,0
208,184.31,163.26,0
210,184.83,163.73,0
212,185.37,164.21,0
211,185.88,164.68,0
211,186.39,165.14,0
213,186.92,165.62,0
211,187.40,166.07,0
211,187.87,166.52,0
211,188.33,166.97,0
211,188.79,167.41,0
211,189.23,167.84,0
213,189.71,168.29,0
213,190.17,168.74,0
213,190.63,169.18,0
212,191.06,169.61,0
213,191.50,170.05,0
212,191.91,170.46,0
213,192.33,170.89,0
213,192.74,171.31,0
213,193.15,171.73,0
212,193.52,172.13,0
212,193.89,172.53,0
212,194.26,172.92,0
213,194.63,173.32,0
214,195.02,173.73,0
215,195.42,174.14,0
215,195.81,174.55,0
215,196.19,174.96,0
216,196.59,175.37,0
217,197.00,175.78,0
217,197.40,176.20,0
216,197.77,176.59,0
216,198.13,176.99,0
216,198.49,177.38,0
216,198.84,177.76,0
216,199.18,178.15,0
215,199.50,178.52,0
215,199.81,178.88,0
214,200.09,179.23,0
214,200.37,179.58,0
215,200.67,179.93,0
213,200.91,180.26,0
213,201.15,180.59,0
213,201.39,180.92,0
213,201.62,181.24,0
214,201.87,181.56,0
213,202.09,181.88,0
213,202.31,182.19,0
212,202.50,182.49,0
212,202.69,182.78,0
211,202.86,183.07,0
212,203.04,183.35,0
212,203.22,183.64,0
209,203.34,183.89,0
211,203.49,184.17,0
212,203.66,184.44,0
212,203.83,184.72,0
211,203.97,184.98,0
211,204.11,185.24,0
211,204.25,185.50,0
210,204.37,185.75,0
210,204.48,185.99,0
210,204.59,186.23,0
210,204.70,186.47,0
209,204.78,186.69,0
209,204.87,186.91,0
209,204.95,187.13,0
209,205.03,187.35,0
209,205.11,187.57,0
208,205.17,187.77,0
207,205.20,187.97,0
208,205.26,188.17,0
207,205.30,188.36,0
207,205.33,188.54,0
207,205.36,188.73,0
207,205.40,188.91,0
206,205.41,189.08,0
206,205.42,189.25,0
206,205.43,189.42,0
205,205.42,189.57,0
205,205.41,189.73,0
205,205.41,189.88,0
205,205.40,190.03,0
204,205.37,190.17,0
204,205.34,190.31,0
204,205.32,190.45,0
203,205.27,190.57,0
203,205.22,190.70,0
203,205.18,190.82,0
204,205.16,190.95,0
203,205.11,191.07,0
203,205.07,191.19,0
205,205.07,191.33,0
202,205.01,191.43,0
202,204.95,191.54,0
203,204.91,191.66,0
202,204.85,191.76,0
203,204.81,191.87,0
202,204.76,191.97,0
201,204.68,192.06,0
201,204.61,192.15,0
201,204.54,192.24,0
200,204.45,192.32,0
200,204.36,192.39,0
199,204.25,192.46,0
199,204.14,192.53,0
199,204.04,192.59,0
200,203.96,192.67,0
198,203.84,192.72,0
198,203.72,192.77,0
197,203.59,192.81,0
197,203.46,192.86,0
197,203.33,192.90,0
198,203.22,192.95,0
197,203.10,192.99,0
196,202.96,193.02,0
195,202.80,193.04,0
195,202.64,193.06,0
195,202.49,193.08,0
196,202.36,193.11,0
195,202.21,193.13,0
193,202.03,193.12,0
194,201.87,193.13,0
195,201.73,193.15,0
193,201.55,193.15,0
193,201.38,193.15,0
194,201.24,193.16,0
193,201.07,193.16,0
193,200.91,193.15,0
193,200.75,193.15,0
193,200.60,193.15,0
193,200.44,193.15,0
193,200.30,193.15,0
193,200.15,193.15,0
193,200.01,193.15,0
193,199.87,193.14,0
192,199.71,193.13,0
191,199.54,193.11,0
191,199.36,193.09,0
191,199.20,193.07,0
191,199.03,193.05,0
191,198.87,193.03,0
190,198.70,193.00,0
190,198.52,192.97,0
190,198.35,192.94,0
190,198.18,192.91,0
189,198.00,192.87,0
189,197.82,192.83,0
189,197.64,192.79,0
189,197.47,192.75,0
188,197.28,192.71,0
188,197.10,192.66,0
188,196.91,192.61,0
188,196.74,192.57,0
188,196.56,192.52,0
188,196.39,192.48,0
187,196.20,192.42,0
187,196.02,192.37,0
186,195.82,192.30,0
187,195.64,192.25,0
186,195.45,192.19,0
185,195.24,192.12,0
186,195.05,192.05,0
185,194.85,191.98,0
185,194.66,191.91,0
185,194.46,191.85,0
185,194.27,191.78,0
185,194.09,191.71,0
184,193.89,191.63,0
185,193.71,191.57,0
184,193.51,191.49,0
184,193.32,191.42,0
184,193.14,191.34,0
184,192.96,191.27,0
183,192.76,191.19,0
183,192.56,191.10,0
183,192.37,191.02,0
183,192.18,190.94,0
183,192.00,190.86,0
183,191.82,190.78,0
183,191.64,190.71,0
182,191.45,190.62,0
184,191.30,190.55,0
182,191.11,190.47,0
181,190.91,190.37,0
181,190.71,190.28,0
181,190.52,190.19,0
181,190.33,190.09,0
181,190.14,190.00,0
181,189.96,189.91,1
181,189.78,189.82,1
180,189.59,189.73,1
180,189.39,189.63,1
180,189.21,189.53,1
179,189.00,189.43,1
180,188.82,189.33,1
179,188.63,189.23,1
180,188.45,189.14,1
180,188.28,189.05,1
179,188.10,188.95,1
178,187.90,188.84,1
177,187.68,188.72,1
177,187.46,188.60,1
179,187.30,188.50,1
177,187.09,188.39,1
177,186.89,188.28,1
177,186.69,188.16,1
177,186.50,188.05,1
177,186.31,187.94,1
177,186.12,187.83,1
176,185.92,187.71,1
176,185.72,187.60,1
177,185.54,187.49,1
176,185.35,187.37,1
176,185.17,187.26,1
175,184.96,187.14,1
175,184.76,187.02,1
175,184.57,186.90,1
175,184.38,186.78,1
175,184.19,186.66,1
175,184.01,186.54,1
174,183.81,186.42,1
174,183.61,186.29,1
174,183.42,186.17,1
173,183.21,186.04,1
173,183.01,185.91,1
173,182.81,185.78,1
173,182.61,185.65,1
173,182.42,185.53,1
172,182.21,185.39,1
172,182.00,185.26,1
172,181.80,185.12,1
172,181.61,184.99,1
172,181.42,184.86,1
171,181.21,184.72,1
172,181.02,184.60,1
171,180.82,184.46,1
171,180.63,184.33,1
171,180.43,184.19,1
170,180.23,184.05,1
171,180.04,183.92,1
174,179.92,183.82,1
169,179.70,183.67,1
171,179.53,183.55,1
169,179.32,183.40,1
169,179.11,183.26,1
169,178.91,183.11,1
170,178.73,182.98,1
169,178.54,182.84,1
168,178.33,182.69,1
169,178.14,182.56,1
168,177.94,182.41,1
169,177.76,182.28,1
168,177.56,182.14,1
167,177.35,181.98,1
167,177.14,181.83,1
169,176.98,181.71,1
168,176.80,181.57,1
169,176.65,181.44,1
168,176.47,181.31,1
168,176.30,181.18,1
168,176.14,181.04,1
167,175.95,180.90,1
167,175.78,180.76,1
167,175.60,180.63,1
167,175.43,180.49,1
166,175.24,180.35,1
166,175.05,180.20,1
166,174.87,180.06,1
165,174.68,179.91,1
165,174.48,179.76,1
165,174.29,179.61,1
165,174.11,179.47,1
166,173.94,179.33,1
164,173.75,179.18,1
165,173.57,179.04,1
165,173.40,178.90,1
165,173.23,178.76,1
164,173.05,178.61,1
164,172.87,178.46,1
163,172.67,178.31,1
163,172.48,178.16,1
164,172.31,178.01,1
163,172.12,177.86,1
161,171.90,177.70,1
163,171.72,177.55,1
162,171.52,177.39,1
162,171.33,177.24,1
161,171.13,177.08,1
161,170.93,176.92,1
160,170.71,176.75,1
161,170.51,176.59,1
161,170.32,176.43,1
161,170.14,176.28,1
160,169.93,176.12,1
159,169.71,175.95,1
163,169.58,175.82,1
159,169.37,175.65,1
159,169.16,175.48,1
159,168.96,175.32,1
159,168.76,175.15,1
159,168.56,174.99,1
159,168.37,174.83,1
159,168.18,174.67,1
159,168.00,174.52,1
159,167.82,174.36,1
159,167.64,174.21,1
159,167.47,174.06,1
159,167.30,173.91,1
157,167.10,173.74,1
159,166.93,173.59,1
160,166.80,173.45,1
158,166.62,173.30,1
159,166.47,173.16,1
159,166.32,173.01,1
159,166.17,172.87,1
159,166.03,172.74,1
158,165.87,172.59,1
157,165.69,172.43,1
158,165.54,172.29,1
157,165.37,172.13,1
157,165.20,171.98,1
157,165.03,171.83,1
157,164.87,171.69,1
157,164.72,171.54,1
155,164.52,171.37,1
157,164.37,171.23,1
155,164.18,171.07,1
156,164.02,170.92,1
156,163.86,170.77,1
157,163.72,170.63,1
155,163.55,170.47,1
156,163.40,170.33,1
156,163.25,170.19,1
155,163.08,170.03,1
157,162.96,169.90,1
155,162.80,169.75,1
153,162.61,169.59,1
154,162.44,169.43,1
153,162.25,169.27,1
153,162.06,169.10,1
153,161.88,168.94,1
153,161.70,168.78,1
153,161.53,168.63,1
153,161.36,168.47,1
153,161.19,168.31,1
153,161.03,168.16,1
153,160.87,168.01,1
153,160.71,167.86,1
154,160.58,167.72,1
153,160.42,167.57,1
153,160.28,167.43,1
153,160.13,167.28,1
154,160.01,167.15,1
153,159.87,167.01,1
153,159.73,166.87,1
154,159.62,166.74,1
154,159.50,166.61,1
154,159.39,166.49,1
153,159.26,166.35,1
153,159.14,166.22,1
153,159.02,166.09,1
153,158.90,165.96,1
153,158.78,165.83,1
153,158.66,165.70,1
153,158.55,165.57,1
152,158.42,165.44,1
152,158.29,165.30,1
152,158.16,165.17,1
152,158.04,165.04,1
151,157.90,164.90,1
152,157.78,164.77,1
151,157.65,164.63,1
152,157.53,164.50,1
151,157.40,164.37,1
151,157.28,164.23,1
151,157.15,164.10,1
150,157.01,163.96,1
150,156.87,163.82,1
149,156.71,163.67,1
149,156.55,163.53,1
150,156.42,163.39,1
149,156.28,163.25,1
149,156.13,163.10,1
149,155.99,162.96,1
149,155.85,162.82,1
149,155.71,162.69,1
149,155.58,162.55,1
148,155.42,162.40,1
148,155.28,162.26,1
149,155.15,162.13,1
150,155.05,162.01,1
149,154.93,161.88,1
148,154.79,161.74,1
148,154.65,161.60,1
148,154.52,161.46,1
149,154.41,161.34,1
148,154.28,161.21,1
148,154.16,161.07,1
147,154.01,160.93,1
148,153.89,160.80,1
147,153.75,160.67,1
148,153.64,160.54,1
147,153.51,160.40,1
147,153.38,160.27,1
147,153.25,160.14,1
145,153.08,159.99,1
146,152.94,159.85,1
147,152.82,159.72,1
145,152.67,159.57,1
146,152.53,159.43,1
145,152.38,159.29,1
145,152.24,159.15,1
145,152.09,159.01,1
145,151.95,158.87,1
145,151.81,158.73,1
145,151.67,158.59,1
145,151.54,158.45,1
144,151.39,158.31,1
144,151.24,158.17,1
143,151.08,158.01,1
143,150.91,157.86,1
143,150.76,157.72,1
143,150.60,157.57,1
143,150.45,157.42,1
144,150.32,157.29,1
143,150.17,157.15,1
143,150.03,157.00,1
143,149.89,156.86,1
143,149.75,156.73,1
143,149.62,156.59,1
143,149.48,156.45,1
141,149.32,156.30,1
142,149.17,156.15,1
141,149.01,156.00,1
141,148.85,155.85,1
141,148.69,155.70,1
141,148.53,155.56,1
141,148.38,155.41,1
141,148.24,155.27,1
141,148.09,155.13,1
141,147.95,154.98,1
143,147.85,154.86,1
141,147.71,154.73,1
142,147.60,154.60,1
140,147.45,154.45,1
141,147.32,154.32,1
142,147.21,154.19,1
143,147.13,154.08,1
142,147.03,153.96,1
141,146.91,153.83,1
143,146.83,153.72,1
142,146.73,153.61,1
143,146.66,153.50,1
142,146.56,153.39,1
142,146.47,153.27,1
142,146.38,153.16,1
141,146.27,153.04,1
141,146.17,152.92,1
141,146.07,152.80,1
141,145.96,152.68,1
141,145.86,152.56,1
142,145.79,152.46,1
141,145.69,152.34,1
141,145.60,152.23,1
141,145.51,152.12,1
141,145.42,152.01,1
141,145.33,151.90,1
140,145.22,151.78,1
141,145.14,151.67,1
141,145.05,151.56,1
140,144.95,151.45,1
140,144.85,151.33,1
138,144.72,151.20,1
140,144.62,151.09,1
140,144.53,150.98,1
140,144.44,150.87,1
139,144.33,150.75,1
139,144.22,150.63,1
139,144.12,150.51,1
139,144.02,150.40,1
138,143.90,150.27,1
138,143.78,150.15,1
137,143.64,150.02,1
138,143.53,149.90,1
137,143.40,149.77,1
137,143.27,149.64,1
137,143.15,149.52,1
137,143.02,149.39,1
137,142.90,149.27,1
136,142.76,149.14,1
136,142.63,149.00,1
136,142.50,148.87,1
136,142.37,148.75,1
137,142.26,148.63,1
135,142.11,148.49,1
136,141.99,148.37,1
137,141.89,148.25,1
136,141.77,148.13,1
136,141.66,148.01,1
133,141.49,147.86,1
136,141.38,147.74,1
136,141.27,147.62,1
136,141.16,147.51,1
135,141.04,147.38,1
135,140.92,147.26,1
135,140.80,147.14,1
135,140.68,147.01,1
134,140.55,146.88,1
134,140.42,146.76,1
134,140.29,146.63,1
134,140.17,146.50,1
135,140.06,146.39,1
133,139.92,146.25,1
133,139.78,146.12,1
133,139.65,145.99,1
134,139.53,145.87,1
133,139.40,145.74,1
134,139.30,145.62,1
133,139.17,145.50,1
133,139.05,145.37,1
133,138.93,145.25,1
133,138.81,145.13,1
133,138.69,145.00,1
132,138.56,144.87,1
133,138.45,144.76,1
132,138.32,144.63,1
132,138.19,144.50,1
131,138.05,144.37,1
132,137.93,144.24,1
132,137.81,144.12,1
131,137.67,143.99,1
132,137.56,143.87,1
131,137.43,143.74,1
131,137.30,143.61,1
131,137.17,143.49,1
131,137.05,143.36,1
131,136.93,143.24,1
131,136.81,143.12,1
133,136.73,143.01,1
129,136.58,142.87,1
130,136.45,142.75,1
130,136.32,142.62,1
129,136.17,142.48,1
129,136.03,142.35,1
130,135.91,142.22,1
130,135.79,142.10,1
130,135.67,141.98,1
129,135.54,141.85,1
129,135.41,141.72,1
130,135.30,141.61,1
130,135.20,141.49,1
131,135.11,141.38,1
129,134.99,141.26,1
131,134.91,141.16,1
128,134.77,141.03,1
129,134.66,140.91,1
129,134.54,140.79,1
131,134.47,140.69,1
129,134.36,140.57,1
129,134.25,140.46,1
129,134.15,140.34,1
129,134.05,140.23,1
129,133.95,140.12,1
128,133.83,140.00,1
127,133.69,139.87,1
129,133.60,139.76,1
128,133.48,139.64,1
127,133.36,139.51,1
127,133.23,139.39,1
127,133.10,139.26,1
127,132.98,139.14,1
127,132.86,139.02,1
127,132.74,138.90,1
127,132.63,138.78,1
127,132.52,138.66,1
126,132.39,138.54,1
126,132.26,138.41,1
126,132.13,138.29,1
125,131.99,138.15,1
125,131.85,138.02,1
126,131.73,137.90,1
126,131.62,137.78,1
126,131.51,137.66,1
127,131.42,137.56,1
125,131.29,137.43,1
127,131.20,137.33,1
125,131.08,137.21,1
125,130.96,137.08,1
125,130.84,136.96,1
124,130.70,136.83,1
125,130.59,136.71,1
125,130.48,136.60,1
125,130.37,136.48,1
125,130.26,136.37,1
125,130.15,136.25,1
125,130.05,136.14,1
126,129.97,136.04,1
125,129.87,135.93,1
125,129.77,135.82,1
125,129.68,135.71,1
124,129.56,135.59,1
124,129.45,135.48,1
125,129.36,135.37,1
124,129.26,135.26,1
124,129.15,135.15,1
124,129.05,135.04,1
123,128.93,134.91,1
123,128.81,134.80,1
123,128.69,134.68,1
123,128.58,134.56,1
123,128.47,134.45,1
121,128.32,134.31,1
123,128.21,134.20,1
123,128.11,134.09,1
124,128.02,133.99,1
124,127.94,133.89,1
123,127.85,133.78,1
123,127.75,133.67,1
123,127.65,133.56,1
123,127.56,133.46,1
123,127.47,133.35,1
123,127.38,133.25,1
123,127.29,133.15,1
122,127.19,133.03,1
121,127.06,132.91,1
121,126.94,132.79,1
121,126.82,132.68,1
122,126.73,132.57,1
122,126.63,132.46,1
122,126.54,132.36,1
122,126.45,132.26,1
121,126.34,132.14,1
121,126.23,132.03,1
121,126.13,131.92,1
121,126.03,131.81,1
121,125.92,131.70,1
122,125.85,131.61,1
122,125.77,131.51,1
121,125.67,131.41,1
121,125.58,131.30,1
121,125.49,131.20,1
120,125.38,131.09,1
121,125.29,130.99,1
120,125.19,130.88,1
119,125.06,130.76,1
120,124.96,130.65,1
120,124.86,130.54,1
120,124.76,130.44,1
119,124.65,130.32,1
119,124.54,130.21,1
119,124.43,130.10,1
120,124.34,130.00,1
119,124.23,129.89,1
118,124.11,129.77,1
119,124.00,129.66,1
118,123.88,129.54,1
118,123.77,129.43,1
117,123.63,129.30,1
118,123.52,129.19,1
119,123.43,129.09,1
118,123.32,128.98,1
118,123.21,128.87,1
118,123.11,128.76,1
118,123.01,128.65,1
119,122.93,128.56,1
120,122.87,128.47,1
119,122.79,128.38,1
119,122.71,128.28,1
119,122.64,128.19,1
120,122.59,128.11,1
120,122.54,128.03,1
120,122.48,127.95,1
121,122.46,127.88,1
119,122.39,127.79,1
120,122.34,127.71,1
120,122.29,127.63,1
119,122.23,127.55,1
119,122.16,127.46,1
120,122.12,127.39,1
119,122.06,127.30,1
119,121.99,127.22,1
119,121.93,127.14,1
119,121.88,127.06,1
117,121.78,126.96,1
119,121.72,126.88,1
119,121.67,126.80,1
119,121.61,126.72,1
120,121.58,126.65,1
118,121.51,126.57,1
119,121.46,126.49,1
118,121.39,126.40,1
118,121.32,126.32,1
119,121.28,126.25,1
118,121.21,126.17,1
118,121.15,126.08,1
119,121.10,126.01,1
117,121.02,125.92,1
118,120.96,125.84,1
117,120.88,125.75,1
117,120.81,125.67,1
117,120.73,125.58,1
117,120.65,125.49,1
117,120.58,125.41,1
114,120.45,125.30,1
117,120.38,125.21,1
117,120.31,125.13,1
117,120.25,125.05,1
116,120.16,124.96,1
116,120.08,124.87,1
116,120.00,124.78,1
115,119.90,124.68,1
115,119.80,124.59,1
116,119.72,124.50,1
115,119.63,124.41,1
117,119.58,124.33,1
115,119.48,124.24,1
115,119.39,124.15,1
114,119.29,124.04,1
114,119.18,123.94,1
115,119.10,123.85,1
115,119.02,123.77,1
115,118.94,123.68,1
113,118.82,123.57,1
113,118.70,123.47,1
113,118.59,123.36,1
113,118.47,123.26,1
113,118.37,123.15,1
114,118.28,123.06,1
113,118.17,122.96,1
113,118.07,122.86,1
113,117.97,122.76,1
113,117.87,122.67,1
113,117.77,122.57,1
114,117.70,122.48,1
113,117.60,122.39,1
115,117.55,122.32,1
113,117.46,122.22,1
113,117.37,122.13,1
113,117.28,122.04,1
113,117.20,121.95,1
113,117.11,121.86,1
113,117.03,121.77,1
117,117.03,121.72,1
113,116.95,121.64,1
113,116.87,121.55,1
113,116.79,121.46,1
113,116.72,121.38,1
113,116.64,121.30,1
113,116.57,121.21,1
113,116.50,121.13,1
113,116.43,121.05,1
113,116.36,120.97,1
113,116.29,120.89,1
113,116.23,120.81,1
113,116.16,120.73,1
114,116.12,120.66,1
113,116.06,120.59,1
114,116.02,120.52,1
114,115.98,120.46,1
113,115.92,120.38,1
114,115.88,120.32,1
115,115.86,120.26,1
115,115.84,120.21,1
116,115.85,120.17,1
115,115.83,120.12,1
115,115.81,120.07,1
115,115.80,120.02,1
116,115.80,119.98,1
115,115.78,119.93,1
115,115.77,119.88,1
116,115.77,119.84,1
115,115.76,119.79,1
116,115.76,119.75,1
115,115.75,119.70,1
116,115.75,119.67,1
115,115.74,119.62,1
116,115.74,119.58,1
115,115.73,119.54,1
117,115.75,119.51,1
115,115.74,119.47,1
116,115.74,119.43,1
115,115.73,119.39,1
115,115.71,119.35,1
115,115.70,119.30,1
116,115.71,119.27,1
115,115.69,119.23,1
116,115.70,119.19,1
115,115.68,119.15,1
115,115.67,119.11,1
115,115.66,119.07,1
116,115.66,119.04,1
115,115.65,119.00,1
114,115.62,118.95,1
114,115.58,118.90,1
114,115.55,118.85,1
113,115.50,118.79,1
114,115.47,118.74,1
111,115.38,118.67,1
114,115.35,118.62,1
113,115.31,118.56,1
113,115.26,118.51,1
115,115.26,118.47,1
115,115.25,118.44,1
115,115.25,118.40,1
115,115.24,118.37,1
115,115.24,118.34,1
115,115.23,118.30,1
116,115.25,118.28,1
115,115.24,118.25,1
117,115.28,118.23,1
116,115.29,118.21,1
116,115.31,118.19,1
116,115.32,118.17,1
116,115.33,118.15,1
116,115.35,118.12,1
116,115.36,118.10,1
116,115.37,118.08,1
115,115.37,118.05,1
116,115.38,118.03,1
115,115.37,118.00,1
116,115.38,117.98,1
117,115.42,117.97,1
117,115.45,117.96,1
115,115.44,117.93,1
117,115.47,117.92,1
116,115.48,117.90,1
117,115.51,117.89,1
118,115.56,117.90,1
118,115.61,117.90,1
118,115.66,117.90,1
119,115.72,117.91,1
117,115.75,117.90,1
119,115.81,117.91,1
118,115.86,117.91,1
118,115.90,117.91,1
119,115.96,117.92,1
118,116.00,117.92,1
118,116.04,117.92,1
118,116.08,117.93,1
118,116.12,117.93,1
118,116.16,117.93,1
119,116.22,117.94,1
117,116.23,117.93,1
118,116.27,117.93,1
120,116.34,117.95,1
119,116.39,117.96,1
118,116.43,117.96,1
118,116.46,117.96,1
118,116.49,117.96,1
118,116.52,117.96,1
118,116.55,117.96,1
117,116.56,117.95,1
116,116.55,117.93,1
118,116.58,117.93,1
117,116.58,117.92,1
117,116.59,117.91,1
117,116.60,117.91,1
117,116.61,117.90,1
118,116.64,117.90,1
118,116.66,117.90,1
118,116.69,117.90,1
117,116.70,117.89,1
118,116.72,117.89,1
117,116.73,117.88,1
119,116.77,117.89,1
117,116.78,117.89,1
118,116.80,117.89,1
117,116.81,117.88,1
119,116.85,117.89,1
119,116.89,117.90,1
117,116.90,117.89,1
117,116.90,117.88,1
117,116.90,117.87,1
116,116.88,117.85,1
117,116.88,117.85,1
117,116.89,117.84,1
118,116.91,117.84,1
117,116.91,117.83,1
117,116.91,117.82,1
119,116.95,117.83,1
117,116.95,117.83,1
117,116.96,117.82,1
117,116.96,117.81,1
117,116.96,117.80,1
119,117.00,117.81,1
116,116.98,117.80,1
117,116.98,117.79,1
117,116.98,117.78,1
119,117.02,117.79,1
120,117.08,117.81,1
121,117.16,117.85,1
122,117.25,117.89,1
121,117.33,117.92,1
121,117.40,117.95,1
121,117.47,117.98,1
121,117.55,118.01,1
121,117.61,118.04,1
121,117.68,118.07,1
121,117.75,118.10,1
121,117.81,118.13,1
121,117.88,118.16,1
121,117.94,118.18,1
122,118.02,118.22,1
121,118.08,118.25,1
121,118.14,118.28,1
121,118.20,118.31,1
121,118.25,118.33,1
120,118.29,118.35,1
121,118.34,118.38,1
120,118.37,118.39,1
121,118.43,118.42,1
121,118.48,118.44,1
120,118.51,118.46,1
121,118.56,118.48,1
122,118.63,118.52,1
121,118.68,118.54,1
122,118.74,118.58,1
122,118.81,118.61,1
122,118.87,118.65,1
123,118.95,118.69,1
123,119.03,118.73,1
124,119.13,118.79,1
124,119.23,118.84,1
123,119.31,118.88,1
123,119.38,118.92,1
123,119.45,118.96,1
123,119.52,119.00,1
123,119.59,119.04,1
123,119.66,119.08,1
123,119.73,119.12,1
123,119.79,119.16,1
123,119.86,119.20,1
123,119.92,119.24,1
122,119.96,119.26,1
123,120.02,119.30,1
122,120.06,119.33,1
123,120.12,119.37,1
122,120.16,119.39,1
122,120.20,119.42,1
121,120.21,119.43,1
122,120.25,119.46,1
122,120.28,119.48,1
122,120.32,119.51,1
123,120.37,119.54,1
123,120.42,119.58,1
124,120.49,119.62,1
122,120.52,119.65,1
122,120.55,119.67,1
121,120.56,119.68,1
122,120.59,119.71,1
122,120.62,119.73,1
123,120.67,119.76,1
123,120.71,119.80,1
123,120.76,119.83,1
123,120.80,119.86,1
123,120.85,119.89,1
123,120.89,119.92,1
124,120.95,119.96,1
123,120.99,119.99,1
123,121.03,120.02,1
123,121.07,120.05,1
123,121.11,120.08,1
123,121.15,120.11,1
123,121.19,120.14,1
123,121.22,120.17,1
124,121.28,120.21,1
124,121.33,120.24,1
123,121.37,120.27,1
123,121.40,120.30,1
122,121.41,120.32,1
123,121.44,120.34,1
121,121.43,120.35,1
122,121.45,120.37,1
121,121.44,120.37,1
122,121.45,120.39,1
123,121.48,120.42,1
122,121.49,120.43,1
121,121.48,120.44,1
122,121.49,120.45,1
123,121.52,120.48,1
123,121.55,120.50,1
124,121.60,120.54,1
123,121.63,120.56,1
123,121.65,120.59,1
123,121.68,120.61,1
122,121.69,120.63,1
123,121.71,120.65,1
124,121.76,120.68,1
123,121.78,120.71,1
124,121.83,120.74,1
123,121.85,120.76,1
125,121.92,120.80,1
124,121.96,120.84,1
125,122.02,120.88,1
124,122.06,120.91,1
125,122.12,120.95,1
125,122.17,120.99,1
125,122.23,121.03,1
125,122.29,121.07,1
125,122.34,121.11,1
126,122.41,121.16,1
123,122.43,121.18,1
125,122.48,121.21,1
125,122.53,121.25,1
125,122.58,121.29,1
124,122.61,121.32,1
125,122.65,121.35,1
125,122.70,121.39,1
126,122.77,121.44,1
125,122.81,121.47,1
125,122.85,121.51,1
127,122.94,121.56,1
127,123.02,121.62,1
127,123.10,121.67,1
127,123.18,121.72,1
126,123.23,121.77,1
127,123.31,121.82,1
127,123.38,121.87,1
128,123.47,121.93,1
128,123.56,121.99,1
128,123.65,122.05,1
128,123.74,122.11,1
128,123.83,122.17,1
129,123.93,122.24,1
128,124.01,122.30,1
129,124.11,122.36,1
128,124.19,122.42,1
128,124.26,122.48,1
127,124.32,122.52,1
128,124.39,122.58,1
127,124.44,122.62,1
127,124.50,122.66,1
128,124.57,122.72,1
128,124.63,122.77,1
127,124.68,122.81,1
127,124.73,122.85,1
127,124.77,122.90,1
128,124.84,122.95,1
127,124.88,122.99,1
127,124.92,123.03,1
131,125.05,123.11,1
127,125.08,123.15,1
127,125.12,123.18,1
127,125.16,123.22,1
127,125.20,123.26,1
127,125.23,123.30,1
127,125.27,123.34,1
128,125.32,123.38,1
129,125.40,123.44,1
129,125.47,123.49,1
129,125.54,123.55,1
129,125.61,123.60,1
129,125.68,123.66,1
130,125.76,123.72,1
131,125.87,123.79,1
133,126.01,123.89,1
129,126.07,123.94,1
131,126.17,124.01,1
131,126.27,124.08,1
131,126.36,124.15,1
133,126.49,124.23,1
133,126.62,124.32,1
135,126.79,124.43,1
136,126.97,124.55,1
136,127.16,124.66,1
139,127.39,124.80,1
140,127.64,124.95,1
141,127.91,125.12,1
141,128.17,125.27,1
142,128.45,125.44,1
140,128.68,125.59,1
141,128.93,125.74,1
141,129.17,125.89,1
141,129.41,126.04,1
141,129.64,126.19,1
141,129.86,126.34,1
142,130.11,126.50,1
142,130.35,126.65,1
142,130.58,126.81,1
142,130.81,126.96,1
143,131.05,127.12,1
142,131.27,127.27,1
142,131.48,127.42,1
143,131.71,127.57,1
143,131.94,127.73,1
142,132.14,127.87,1
143,132.36,128.02,1
142,132.55,128.16,1
141,132.72,128.29,1
141,132.89,128.42,1
142,133.07,128.55,1
141,133.23,128.68,1
142,133.40,128.81,1
143,133.59,128.95,1
142,133.76,129.08,1
143,133.95,129.22,1
142,134.11,129.35,1
143,134.29,129.48,1
143,134.46,129.62,1
143,134.63,129.75,1
141,134.76,129.87,1
143,134.92,130.00,1
142,135.06,130.12,1
141,135.18,130.23,1
143,135.34,130.35,1
143,135.49,130.48,1
145,135.68,130.63,1
145,135.87,130.77,1
147,136.09,130.93,1
147,136.31,131.09,1
147,136.52,131.25,1
147,136.73,131.41,1
148,136.96,131.58,1
147,137.16,131.73,1
148,137.38,131.89,1
147,137.57,132.04,1
147,137.76,132.19,1
147,137.94,132.34,1
147,138.12,132.49,1
147,138.30,132.63,1
149,138.52,132.80,1
149,138.72,132.96,1
147,138.89,133.10,1
149,139.09,133.26,1
149,139.29,133.42,1
148,139.46,133.56,1
149,139.66,133.72,1
149,139.84,133.87,1
149,140.03,134.02,1
150,140.23,134.18,1
148,140.38,134.32,1
149,140.55,134.46,1
151,140.76,134.63,1
151,140.97,134.79,1
152,141.19,134.97,1
153,141.42,135.15,1
153,141.66,135.32,1
155,141.92,135.52,1
155,142.18,135.72,1
156,142.46,135.92,1
155,142.71,136.11,1
155,142.96,136.30,1
156,143.22,136.50,1
155,143.45,136.68,1
156,143.70,136.87,1
156,143.95,137.07,1
157,144.21,137.26,1
157,144.47,137.46,1
159,144.76,137.68,1
158,145.02,137.88,1
159,145.30,138.09,1
159,145.58,138.30,1
160,145.86,138.52,1
159,146.13,138.72,1
160,146.40,138.94,1
159,146.66,139.14,1
161,146.94,139.35,1
161,147.22,139.57,1
162,147.52,139.80,1
161,147.79,140.01,1
161,148.05,140.22,1
161,148.31,140.43,1
161,148.57,140.63,1
161,148.82,140.83,1
162,149.08,141.05,1
162,149.34,141.26,1
162,149.59,141.46,1
164,149.88,141.69,1
163,150.14,141.90,1
167,150.48,142.15,1
167,150.81,142.40,1
167,151.13,142.65,1
168,151.47,142.90,1
169,151.82,143.16,1
170,152.18,143.43,1
172,152.58,143.72,1
171,152.95,143.99,1
171,153.31,144.26,1
171,153.66,144.53,1
171,154.01,144.79,1
171,154.35,145.05,1
171,154.68,145.31,1
173,155.05,145.59,1
173,155.41,145.86,1
176,155.82,146.16,1
176,156.22,146.46,1
176,156.62,146.76,1
178,157.05,147.07,1
179,157.49,147.39,1
184,158.02,147.76,1
184,158.54,148.12,1
183,159.03,148.47,1
184,159.52,148.82,1
183,159.99,149.16,1
183,160.45,149.50,1
184,160.93,149.85,1
184,161.39,150.19,1
184,161.84,150.53,1
185,162.30,150.87,1
186,162.78,151.22,1
187,163.26,151.58,1
187,163.74,151.94,1
187,164.20,152.29,1
189,164.70,152.65,1
188,165.16,153.01,1
187,165.60,153.35,1
189,166.07,153.70,1
189,166.53,154.06,1
189,166.98,154.41,1
191,167.46,154.77,1
191,167.93,155.13,1
193,168.43,155.51,1
195,168.96,155.91,1
195,169.48,156.30,1
195,169.99,156.69,1
197,170.53,157.09,1
200,171.12,157.52,1
201,171.72,157.95,1
201,172.30,158.38,1
203,172.92,158.83,1
205,173.56,159.29,1
207,174.23,159.77,1
207,174.88,160.24,1
206,175.51,160.70,1
206,176.12,161.15,1
207,176.73,161.61,1
212,177.44,162.11,1
213,178.15,162.62,1
212,178.83,163.12,1
211,179.47,163.59,1
213,180.14,164.09,1
212,180.78,164.57,1
212,181.40,165.04,1
212,182.01,165.51,1
211,182.59,165.97,1
212,183.18,166.43,1
213,183.78,166.89,1
215,184.40,167.37,1
214,185.00,167.84,1
215,185.60,168.31,1
215,186.18,168.78,1
216,186.78,169.25,1
217,187.38,169.73,1
219,188.02,170.22,1
220,188.66,170.72,1
218,189.24,171.19,1
217,189.80,171.65,1
219,190.38,172.12,1
218,190.93,172.58,1
221,191.54,173.07,1
221,192.13,173.55,1
221,192.70,174.02,1
221,193.27,174.49,1
223,193.86,174.97,1
222,194.43,175.45,1
221,194.96,175.90,1
222,195.50,176.36,1
223,196.05,176.83,1
224,196.61,177.30,1
223,197.14,177.76,1
222,197.63,178.20,1
223,198.14,178.65,1
223,198.64,179.09,1
222,199.10,179.52,1
223,199.58,179.95,1
225,200.09,180.41,1
227,200.63,180.87,1
227,201.16,181.33,1
227,201.67,181.79,1
227,202.18,182.24,1
229,202.72,182.71,1
229,203.24,183.17,1
231,203.80,183.65,1
233,204.38,184.14,1
231,204.91,184.61,1
231,205.44,185.08,1
231,205.95,185.54,1
231,206.45,185.99,1
231,206.94,186.44,1
235,207.50,186.93,1
236,208.07,187.42,1
237,208.65,187.91,1
237,209.22,188.40,1
239,209.81,188.91,1
242,210.46,189.44,1
244,211.13,189.99,1
243,211.76,190.52,1
244,212.41,191.05,1
243,213.02,191.57,1
243,213.62,192.08,1
243,214.21,192.59,1
242,214.76,193.09,1
243,215.33,193.59,1
243,215.88,194.08,1
244,216.44,194.58,1
243,216.97,195.06,1
244,217.52,195.55,1
243,218.02,196.03,1
245,218.56,196.52,1
245,219.09,197.00,1
245,219.61,197.48,1
245,220.12,197.96,1
248,220.68,198.46,1
246,221.18,198.93,1
246,221.68,199.40,1
247,222.19,199.88,1
246,222.66,200.34,1
245,223.11,200.79,1
246,223.57,201.24,1
246,224.02,201.69,1
246,224.46,202.13,1
247,224.91,202.58,1
246,225.33,203.01,1
246,225.74,203.44,1
247,226.17,203.88,1
248,226.60,204.32,1
248,227.03,204.76,1
249,227.47,205.20,1
250,227.92,205.65,1
249,228.34,206.08,1
252,228.82,206.54,1
251,229.26,206.98,1
251,229.69,207.43,1
252,230.14,207.87,1
253,230.60,208.32,1
256,231.11,208.80,1
255,231.58,209.26,1
256,232.07,209.73,1
255,232.53,210.18,1
255,232.98,210.63,1
257,233.46,211.09,1
259,233.97,211.57,1
260,234.49,212.06,1
260,235.00,212.54,1
261,235.52,213.02,1
261,236.03,213.50,1
261,236.53,213.98,1
261,237.02,214.45,1
262,237.52,214.92,1
265,238.07,215.42,1
265,238.61,215.92,1
266,239.16,216.42,1
269,239.75,216.94,1
269,240.34,217.46,1
269,240.91,217.98,1
271,241.51,218.51,1
271,242.10,219.04,1
271,242.68,219.55,1
274,243.31,220.10,1
276,243.96,220.66,1
275,244.58,221.20,1
275,245.19,221.74,1
274,245.77,222.26,1
273,246.31,222.77,1
272,246.82,223.26,1
275,247.39,223.78,1
276,247.96,224.30,1
278,248.56,224.84,1
278,249.15,225.37,1
278,249.73,225.90,1
279,250.31,226.43,1
279,250.89,226.95,1
280,251.47,227.48,1
281,252.06,228.02,1
284,252.70,228.58,1
286,253.36,229.15,1
286,254.02,229.72,1
286,254.66,230.28,1
287,255.30,230.85,1
288,255.96,231.42,1
289,256.62,232.00,1
288,257.25,232.56,1
289,257.88,233.12,1
289,258.50,233.68,1
288,259.09,234.23,1
291,259.73,234.79,1
293,260.40,235.37,1
294,261.07,235.96,1
295,261.75,236.55,1
297,262.45,237.16,1
299,263.18,237.77,1
301,263.94,238.41,1
299,264.64,239.01,1
300,265.35,239.62,1
300,266.04,240.23,1
301,266.74,240.83,1
303,267.47,241.46,1
304,268.20,242.08,1
304,268.91,242.70,1
306,269.65,243.33,1
308,270.42,243.98,1
309,271.19,244.63,1
309,271.95,245.27,1
310,272.71,245.92,1
309,273.44,246.55,1
310,274.17,247.19,1
311,274.90,247.82,1
311,275.63,248.46,1
311,276.33,249.08,1
311,277.03,249.70,1
311,277.71,250.31,1
311,278.37,250.92,1
311,279.02,251.52,1
311,279.66,252.12,1
312,280.31,252.72,1
311,280.92,253.30,1
312,281.55,253.89,1
311,282.13,254.46,1
311,282.71,255.02,1
312,283.30,255.59,1
312,283.87,256.16,1
312,284.43,256.71,1
311,284.97,257.26,1
312,285.51,257.80,1
313,286.06,258.36,1
311,286.56,258.88,1
311,287.04,259.40,1
310,287.50,259.91,1
309,287.93,260.40,1
309,288.35,260.89,1
309,288.77,261.37,1
309,289.17,261.84,1
309,289.57,262.32,1
310,289.98,262.79,1
309,290.36,263.25,1
310,290.75,263.72,1
310,291.14,264.18,1
311,291.53,264.65,1
311,291.92,265.12,1
310,292.28,265.57,1
310,292.64,266.01,1
309,292.97,266.44,1
309,293.29,266.87,1
308,293.58,267.28,1
309,293.89,267.69,1
309,294.19,268.11,1
309,294.49,268.52,1
308,294.76,268.91,1
307,295.00,269.29,1
307,295.24,269.67,1
307,295.48,270.04,1
306,295.69,270.40,1
305,295.87,270.75,1
305,296.06,271.09,1
305,296.24,271.43,1
304,296.39,271.75,1
304,296.54,272.08,1
303,296.67,272.39,1
303,296.80,272.69,1
303,296.92,273.00,1
303,297.04,273.30,1
303,297.16,273.59,1
302,297.26,273.88,1
303,297.37,274.17,1
301,297.45,274.44,1
301,297.52,274.70,1
301,297.59,274.97,1
301,297.66,275.23,1
301,297.72,275.48,1
301,297.79,275.74,1
301,297.85,275.99,1
301,297.92,276.24,1
301,297.98,276.49,1
301,298.04,276.73,1
299,298.06,276.96,1
300,298.10,277.19,1
300,298.13,277.42,1
300,298.17,277.64,1
300,298.21,277.86,1
299,298.22,278.08,1
299,298.24,278.29,1
299,298.25,278.49,1
299,298.27,278.70,1
298,298.26,278.89,1
298,298.26,279.08,1
297,298.23,279.26,1
297,298.21,279.44,1
297,298.18,279.61,1
296,298.14,279.78,1
296,298.10,279.94,1
296,298.06,280.10,1
295,298.00,280.25,1
296,297.96,280.41,1
294,297.88,280.54,1
294,297.80,280.68,1
294,297.72,280.81,1
293,297.63,280.93,1
293,297.54,281.05,1
293,297.45,281.17,1
293,297.36,281.29,1
292,297.25,281.40,1
292,297.14,281.50,1
291,297.02,281.60,1
291,296.90,281.69,1
290,296.76,281.78,1
290,296.63,281.86,1
290,296.50,281.94,1
289,296.35,282.01,1
289,296.20,282.08,1
289,296.05,282.15,1
288,295.89,282.21,1
288,295.74,282.27,1
287,295.56,282.31,1
288,295.41,282.37,1
287,295.24,282.42,1
287,295.08,282.46,1
287,294.91,282.51,1
285,294.72,282.53,1
286,294.54,282.57,1
287,294.39,282.61,1
287,294.24,282.66,1
285,294.06,282.68,1
285,293.88,282.70,1
284,293.68,282.72,1
285,293.51,282.74,1
284,293.32,282.75,1
283,293.11,282.75,1
283,292.91,282.76,1
282,292.69,282.75,1
281,292.46,282.73,1
282,292.25,282.72,1
280,292.00,282.70,1
281,291.78,282.68,1
280,291.55,282.65,1
280,291.32,282.63,1
280,291.09,282.60,1
279,290.85,282.56,1
279,290.61,282.53,1
278,290.36,282.48,1
277,290.09,282.43,1
277,289.83,282.37,1
277,289.57,282.32,1
277,289.32,282.27,1
276,289.05,282.20,1
275,288.77,282.13,1
276,288.52,282.07,1
274,288.23,281.99,1
273,287.92,281.90,1
273,287.62,281.81,1
273,287.33,281.72,1
273,287.05,281.64,1
273,286.76,281.55,1
275,286.53,281.48,1
272,286.24,281.39,1
271,285.93,281.29,1
271,285.64,281.18,1
270,285.32,281.07,1
270,285.02,280.96,1
269,284.70,280.84,1
269,284.38,280.72,1
269,284.07,280.60,1
268,283.75,280.48,1
268,283.44,280.35,1
267,283.11,280.22,1
268,282.81,280.10,1
266,282.47,279.96,1
266,282.14,279.82,1
265,281.80,279.67,1
263,281.42,279.50,1
265,281.09,279.36,1
264,280.75,279.20,1
264,280.42,279.05,1
264,280.09,278.90,1
264,279.77,278.75,1
264,279.45,278.60,1
264,279.14,278.46,1
263,278.82,278.30,1
263,278.50,278.15,1
263,278.19,278.00,1
263,277.89,277.85,2
262,277.57,277.69,2
262,277.26,277.53,2
261,276.94,277.37,2
261,276.62,277.21,2
260,276.28,277.03,2
261,275.98,276.87,2
259,275.64,276.69,2
260,275.33,276.53,2
259,275.00,276.35,2
258,274.66,276.17,2
257,274.31,275.98,2
257,273.96,275.79,2
257,273.62,275.60,2
256,273.27,275.40,2
256,272.92,275.21,2
255,272.56,275.01,2
255,272.21,274.81,2
255,271.87,274.61,2
255,271.53,274.41,2
255,271.20,274.22,2
254,270.86,274.02,2
253,270.50,273.81,2
255,270.19,273.62,2
253,269.85,273.41,2
252,269.49,273.20,2
251,269.12,272.98,2
251,268.76,272.76,2
254,268.46,272.57,2
250,268.09,272.34,2
250,267.73,272.12,2
249,267.36,271.89,2
249,266.99,271.66,2
249,266.63,271.43,2
249,266.28,271.21,2
249,265.93,270.99,2
249,265.59,270.77,2
248,265.24,270.54,2
248,264.90,270.31,2
247,264.54,270.08,2
248,264.21,269.86,2
247,263.86,269.63,2
247,263.53,269.40,2
247,263.20,269.18,2
247,262.87,268.96,2
246,262.53,268.73,2
246,262.20,268.50,2
245,261.86,268.27,2
245,261.52,268.03,2
245,261.19,267.80,2
245,260.87,267.58,2
245,260.55,267.35,2
244,260.22,267.12,2
245,259.92,266.90,2
244,259.60,266.67,2
244,259.29,266.44,2
243,258.96,266.21,2
243,258.64,265.97,2
243,258.33,265.74,2
242,258.00,265.51,2
242,257.68,265.27,2
242,257.37,265.04,2
241,257.04,264.80,2
242,256.74,264.57,2
241,256.42,264.33,2
240,256.10,264.09,2
241,255.79,263.86,2
239,255.46,263.61,2
239,255.13,263.37,2
239,254.81,263.12,2
239,254.49,262.88,2
239,254.18,262.64,2
239,253.88,262.41,2
237,253.54,262.15,2
237,253.21,261.90,2
237,252.88,261.65,2
237,252.57,261.40,2
236,252.24,261.15,2
237,251.93,260.91,2
235,251.59,260.65,2
236,251.28,260.40,2
235,250.95,260.15,2
235,250.64,259.90,2
233,250.28,259.63,2
234,249.96,259.37,2
233,249.62,259.11,2
233,249.29,258.85,2
233,248.96,258.59,2
233,248.64,258.33,2
233,248.33,258.08,2
232,248.00,257.82,2
232,247.68,257.56,2
231,247.35,257.30,2
231,247.02,257.03,2
231,246.70,256.77,2
230,246.37,256.50,2
229,246.02,256.23,2
229,245.68,255.96,2
229,245.35,255.69,2
229,245.02,255.42,2
229,244.70,255.16,2
229,244.38,254.89,2
228,244.06,254.63,2
228,243.74,254.36,2
227,243.40,254.09,2
227,243.07,253.82,2
227,242.75,253.55,2
227,242.44,253.28,2
227,242.13,253.02,2
226,241.80,252.75,2
225,241.47,252.47,2
225,241.14,252.20,2
225,240.82,251.92,2
225,240.50,251.66,2
225,240.19,251.39,2
224,239.87,251.11,2
225,239.57,250.85,2
224,239.26,250.59,2
224,238.95,250.32,2
223,238.63,250.05,2
223,238.32,249.78,2
224,238.03,249.52,2
225,237.77,249.27,2
223,237.48,249.01,2
222,237.17,248.74,2
222,236.87,248.47,2
221,236.55,248.20,2
221,236.24,247.93,2
221,235.93,247.66,2
221,235.63,247.39,2
220,235.32,247.12,2
220,235.01,246.84,2
219,234.69,246.57,2
220,234.40,246.30,2
219,234.09,246.03,2
220,233.81,245.77,2
218,233.49,245.49,2
218,233.18,245.21,2
217,232.86,244.93,2
217,232.54,244.65,2
217,232.23,244.38,2
217,231.93,244.10,2
217,231.63,243.83,2
217,231.34,243.56,2
217,231.05,243.30,2
216,230.75,243.03,2
216,230.45,242.75,2
216,230.17,242.49,2
216,229.88,242.22,2
215,229.58,241.95,2
216,229.31,241.69,2
215,229.03,241.42,2
216,228.77,241.17,2
215,228.49,240.91,2
215,228.22,240.65,2
215,227.96,240.39,2
215,227.70,240.14,2
213,227.40,239.87,2
213,227.12,239.60,2
213,226.83,239.33,2
213,226.56,239.07,2
213,226.28,238.81,2
212,226.00,238.54,2
212,225.72,238.27,2
211,225.42,238.00,2
211,225.14,237.73,2
211,224.85,237.46,2
211,224.58,237.20,2
211,224.31,236.94,2
209,224.00,236.66,2
209,223.70,236.38,2
209,223.41,236.11,2
209,223.12,235.84,2
210,222.85,235.58,2
208,222.56,235.30,2
208,222.27,235.03,2
207,221.96,234.75,2
207,221.66,234.47,2
207,221.37,234.20,2
207,221.08,233.93,2
207,220.80,233.66,2
207,220.52,233.39,2
207,220.25,233.13,2
206,219.97,232.85,2
206,219.69,232.59,2
205,219.39,232.31,2
205,219.11,232.04,2
205,218.82,231.77,2
204,218.53,231.49,2
203,218.22,231.20,2
203,217.91,230.92,2
204,217.64,230.65,2
203,217.34,230.38,2
201,217.02,230.08,2
203,216.74,229.81,2
203,216.46,229.54,2
203,216.19,229.28,2
202,215.91,229.01,2
203,215.65,228.75,2
203,215.40,228.49,2
201,215.11,228.21,2
201,214.83,227.94,2
201,214.55,227.67,2
201,214.28,227.40,2
200,213.99,227.13,2
201,213.73,226.87,2
200,213.46,226.60,2
200,213.19,226.33,2
200,212.93,226.07,2
199,212.65,225.80,2
197,212.33,225.51,2
198,212.05,225.24,2
198,211.77,224.97,2
199,211.51,224.71,2
197,211.22,224.43,2
197,210.94,224.15,2
197,210.66,223.88,2
197,210.38,223.61,2
197,210.12,223.35,2
196,209.83,223.07,2
196,209.56,222.80,2
195,209.27,222.53,2
196,209.00,222.26,2
196,208.74,222.00,2
196,208.49,221.74,2
194,208.20,221.46,2
194,207.91,221.19,2
193,207.61,220.90,2
194,207.34,220.63,2
193,207.06,220.36,2
193,206.77,220.08,2
192,206.48,219.80,2
193,206.21,219.54,2
193,205.95,219.27,2
192,205.67,219.00,2
193,205.41,218.74,2
193,205.16,218.48,2
192,204.90,218.22,2
192,204.64,217.95,2
191,204.37,217.68,2
191,204.10,217.42,2
193,203.88,217.17,2
191,203.62,216.91,2
191,203.37,216.65,2
192,203.14,216.41,2
191,202.90,216.15,2
190,202.64,215.89,2
190,202.39,215.63,2
189,202.12,215.36,2
189,201.86,215.10,2
189,201.60,214.84,2
189,201.35,214.58,2
189,201.10,214.33,2
189,200.86,214.07,2
189,200.62,213.82,2
188,200.37,213.56,2
188,200.12,213.31,2
188,199.88,213.06,2
188,199.64,212.80,2
188,199.41,212.56,2
187,199.16,212.30,2
187,198.92,212.05,2
187,198.68,211.80,2
186,198.43,211.54,2
187,198.20,211.29,2
185,197.94,211.03,2
185,197.68,210.77,2
185,197.42,210.51,2
185,197.17,210.26,2
185,196.93,210.01,2
185,196.69,209.76,2
188,196.52,209.54,2
184,196.27,209.28,2
185,196.04,209.04,2
183,195.78,208.78,2
183,195.53,208.52,2
184,195.30,208.28,2
183,195.05,208.02,2
183,194.81,207.77,2
183,194.57,207.53,2
182,194.32,207.27,2
182,194.07,207.02,2
181,193.81,206.76,2
181,193.56,206.50,2
182,193.33,206.25,2
181,193.08,206.00,2
181,192.84,205.75,2
180,192.58,205.49,2
181,192.35,205.25,2
180,192.10,205.00,2
181,191.88,204.76,2
181,191.66,204.52,2
181,191.45,204.28,2
181,191.24,204.05,2
181,191.04,203.82,2
181,190.84,203.59,2
181,190.64,203.37,2
180,190.43,203.13,2
181,190.24,202.91,2
181,190.05,202.69,2
179,189.83,202.46,2
179,189.61,202.22,2
179,189.40,201.99,2
180,189.21,201.77,2
179,189.01,201.54,2
179,188.81,201.32,2
179,188.61,201.09,2
179,188.42,200.87,2
179,188.23,200.65,2
178,188.03,200.43,2
181,187.89,200.23,2
177,187.67,200.00,2
177,187.46,199.77,2
177,187.25,199.54,2
177,187.04,199.32,2
177,186.84,199.09,2
176,186.62,198.86,2
177,186.43,198.64,2
176,186.22,198.42,2
177,186.04,198.20,2
175,185.82,197.97,2
176,185.62,197.75,2
175,185.41,197.52,2
175,185.20,197.30,2
175,185.00,197.08,2
175,184.80,196.86,2
178,184.66,196.67,2
175,184.47,196.45,2
174,184.26,196.23,2
174,184.05,196.00,2
174,183.85,195.78,2
174,183.66,195.57,2
174,183.46,195.35,2
173,183.25,195.13,2
174,183.07,194.92,2
173,182.87,194.70,2
173,182.67,194.48,2
173,182.48,194.26,2
172,182.27,194.04,2
174,182.10,193.84,2
172,181.90,193.62,2
172,181.70,193.41,2
172,181.51,193.19,2
172,181.32,192.98,2
172,181.13,192.77,2
172,180.95,192.56,2
171,180.75,192.35,2
172,180.57,192.14,2
170,180.36,191.92,2
170,180.16,191.70,2
171,179.97,191.50,2
173,179.83,191.31,2
171,179.66,191.11,2
171,179.48,190.91,2
172,179.33,190.72,2
171,179.17,190.52,2
170,178.98,190.32,2
171,178.82,190.12,2
170,178.65,189.92,2
170,178.47,189.72,2
169,178.28,189.51,2
169,178.10,189.31,2
169,177.92,189.11,2
169,177.74,188.91,2
170,177.58,188.72,2
169,177.41,188.52,2
169,177.24,188.32,2
168,177.06,188.12,2
169,176.90,187.93,2
168,176.72,187.73,2
169,176.57,187.54,2
168,176.39,187.35,2
168,176.23,187.15,2
167,176.04,186.95,2
168,175.88,186.76,2
167,175.70,186.57,2
167,175.53,186.37,2
167,175.36,186.18,2
167,175.19,185.98,2
165,174.99,185.77,2
166,174.81,185.58,2
166,174.63,185.38,2
166,174.46,185.19,2
165,174.27,184.99,2
165,174.08,184.79,2
165,173.90,184.59,2
165,173.73,184.39,2
165,173.55,184.20,2
165,173.38,184.01,2
164,173.19,183.81,2
163,172.99,183.60,2
165,172.83,183.41,2
164,172.65,183.22,2
163,172.46,183.02,2
163,172.27,182.82,2
163,172.08,182.62,2
162,171.88,182.41,2
162,171.68,182.21,2
162,171.49,182.00,2
162,171.30,181.80,2
161,171.10,181.60,2
161,170.89,181.39,2
162,170.72,181.20,2
161,170.52,180.99,2
162,170.35,180.80,2
161,170.16,180.61,2
162,170.00,180.42,2
161,169.82,180.23,2
160,169.62,180.02,2
160,169.43,179.82,2
160,169.24,179.63,2
161,169.08,179.44,2
160,168.90,179.25,2
159,168.70,179.04,2
159,168.50,178.84,2
159,168.31,178.64,2
159,168.13,178.45,2
160,167.97,178.26,2
159,167.79,178.07,2
158,167.59,177.87,2
159,167.42,177.68,2
160,167.27,177.50,2
158,167.09,177.31,2
157,166.88,177.11,2
158,166.71,176.92,2
157,166.51,176.72,2
158,166.34,176.53,2
158,166.17,176.34,2
157,165.99,176.15,2
157,165.81,175.96,2
157,165.64,175.77,2
157,165.46,175.58,2
157,165.29,175.40,2
157,165.13,175.21,2
156,164.94,175.02,2
157,164.79,174.84,2
155,164.59,174.64,2
156,164.42,174.45,2
157,164.27,174.28,2
156,164.10,174.10,2
156,163.94,173.92,2
155,163.76,173.73,2
156,163.61,173.55,2
156,163.46,173.37,2
155,163.29,173.19,2
155,163.12,173.01,2
156,162.98,172.84,2
154,162.80,172.65,2
154,162.62,172.46,2
155,162.47,172.29,2
154,162.30,172.11,2
153,162.12,171.92,2
154,161.95,171.74,2
153,161.77,171.55,2
154,161.62,171.37,2
153,161.45,171.19,2
153,161.28,171.01,2
153,161.11,170.83,2
153,160.95,170.65,2
153,160.79,170.47,2
153,160.63,170.30,2
153,160.48,170.12,2
152,160.31,169.94,2
152,160.15,169.76,2
152,159.98,169.59,2
151,159.80,169.40,2
151,159.63,169.22,2
151,159.45,169.03,2
152,159.31,168.86,2
151,159.14,168.69,2
151,158.98,168.51,2
151,158.82,168.33,2
152,158.68,168.17,2
150,158.51,167.99,2
151,158.36,167.82,2
152,158.23,167.66,2
150,158.07,167.48,2
150,157.90,167.31,2
151,157.77,167.15,2
150,157.61,166.97,2
151,157.48,166.81,2
149,157.31,166.64,2
150,157.16,166.47,2
149,157.00,166.30,2
149,156.84,166.12,2
149,156.68,165.95,2
149,156.53,165.78,2
149,156.38,165.61,2
149,156.23,165.45,2
149,156.09,165.28,2
149,155.94,165.12,2
148,155.79,164.95,2
149,155.65,164.79,2
148,155.50,164.62,2
147,155.33,164.45,2
149,155.20,164.29,2
149,155.08,164.14,2
147,154.92,163.97,2
147,154.76,163.80,2
147,154.60,163.63,2
147,154.45,163.46,2
147,154.30,163.30,2
147,154.15,163.14,2
148,154.03,162.98,2
148,153.91,162.83,2
147,153.77,162.68,2
148,153.66,162.53,2
147,153.52,162.37,2
147,153.39,162.22,2
146,153.25,162.06,2
146,153.10,161.90,2
146,152.96,161.74,2
145,152.80,161.57,2
145,152.64,161.41,2
145,152.49,161.24,2
145,152.34,161.08,2
145,152.19,160.92,2
145,152.05,160.76,2
145,151.91,160.60,2
144,151.75,160.44,2
145,151.62,160.28,2
144,151.46,160.12,2
144,151.31,159.96,2
143,151.15,159.79,2
144,151.01,159.63,2
144,150.87,159.47,2
143,150.71,159.31,2
144,150.57,159.16,2
143,150.42,158.99,2
143,150.27,158.83,2
143,150.13,158.68,2
143,149.99,158.52,2
143,149.85,158.36,2
143,149.71,158.21,2
142,149.55,158.05,2
143,149.42,157.90,2
141,149.26,157.73,2
142,149.11,157.57,2
141,148.95,157.41,2
142,148.81,157.25,2
142,148.67,157.10,2
142,148.54,156.95,2
141,148.39,156.79,2
141,148.24,156.63,2
142,148.12,156.48,2
141,147.97,156.33,2
141,147.83,156.18,2
141,147.70,156.02,2
140,147.54,155.86,2
140,147.39,155.71,2
140,147.24,155.55,2
140,147.10,155.39,2
141,146.98,155.25,2
140,146.84,155.10,2
141,146.72,154.96,2
140,146.59,154.81,2
140,146.46,154.66,2
139,146.31,154.50,2
140,146.18,154.36,2
140,146.06,154.21,2
140,145.94,154.07,2
140,145.82,153.93,2
139,145.68,153.78,2
140,145.57,153.64,2
139,145.44,153.50,2
140,145.33,153.36,2
139,145.20,153.22,2
139,145.08,153.08,2
140,144.97,152.94,2
139,144.86,152.81,2
139,144.74,152.67,2
139,144.62,152.53,2
139,144.51,152.40,2
138,144.38,152.25,2
138,144.25,152.11,2
139,144.15,151.98,2
138,144.03,151.84,2
138,143.90,151.70,2
139,143.81,151.57,2
139,143.71,151.45,2
139,143.62,151.32,2
138,143.50,151.19,2
138,143.39,151.06,2
137,143.27,150.92,2
139,143.18,150.80,2
135,143.02,150.64,2
139,142.94,150.52,2
138,142.84,150.40,2
137,142.72,150.26,2
138,142.63,150.14,2
137,142.51,150.01,2
137,142.40,149.88,2
138,142.32,149.76,2
137,142.21,149.63,2
138,142.13,149.52,2
137,142.02,149.39,2
139,141.96,149.29,2
139,141.90,149.19,2
139,141.85,149.08,2
139,141.79,148.98,2
138,141.71,148.87,2
137,141.62,148.75,2
137,141.53,148.64,2
138,141.46,148.53,2
138,141.39,148.42,2
137,141.30,148.31,2
137,141.21,148.20,2
137,141.13,148.09,2
137,141.05,147.97,2
137,140.96,147.86,2
138,140.91,147.77,2
138,140.85,147.67,2
138,140.79,147.57,2
137,140.71,147.47,2
137,140.64,147.36,2
137,140.57,147.26,2
137,140.50,147.16,2
137,140.43,147.05,2
137,140.36,146.95,2
137,140.29,146.85,2
136,140.20,146.75,2
136,140.12,146.64,2
136,140.04,146.53,2
136,139.96,146.43,2
139,139.94,146.35,2
135,139.84,146.24,2
136,139.76,146.14,2
135,139.67,146.02,2
136,139.59,145.92,2
135,139.50,145.81,2
135,139.41,145.71,2
135,139.32,145.60,2
135,139.24,145.49,2
133,139.11,145.37,2
134,139.01,145.26,2
134,138.91,145.14,2
134,138.81,145.03,2
134,138.72,144.92,2
134,138.62,144.81,2
134,138.53,144.70,2
132,138.40,144.58,2
133,138.29,144.46,2
133,138.18,144.35,2
133,138.08,144.23,2
133,137.98,144.12,2
133,137.88,144.01,2
133,137.78,143.90,2
133,137.69,143.79,2
133,137.59,143.68,2
133,137.50,143.58,2
133,137.41,143.47,2
133,137.32,143.36,2
133,137.24,143.26,2
132,137.13,143.15,2
132,137.03,143.04,2
131,136.91,142.92,2
132,136.81,142.81,2
132,136.71,142.70,2
133,136.64,142.60,2
131,136.53,142.49,2
131,136.42,142.37,2
131,136.31,142.26,2
131,136.20,142.15,2
131,136.10,142.03,2
132,136.02,141.93,2
131,135.92,141.82,2
131,135.82,141.72,2
131,135.72,141.61,2
131,135.63,141.50,2
130,135.51,141.39,2
130,135.40,141.27,2
131,135.32,141.17,2
130,135.21,141.06,2
130,135.11,140.95,2
130,135.00,140.84,2
130,134.90,140.73,2
130,134.81,140.62,2
129,134.69,140.51,2
129,134.58,140.39,2
133,134.54,140.32,2
129,134.43,140.21,2
130,134.34,140.10,2
129,134.24,139.99,2
129,134.13,139.88,2
128,134.01,139.76,2
130,133.93,139.67,2
129,133.83,139.56,2
129,133.73,139.45,2
128,133.62,139.34,2
129,133.53,139.24,2
129,133.44,139.13,2
130,133.37,139.04,2
130,133.30,138.95,2
128,133.19,138.84,2
130,133.13,138.75,2
130,133.07,138.67,2
132,133.05,138.60,2
131,133.01,138.52,2
131,132.97,138.45,2
131,132.93,138.37,2
131,132.89,138.30,2
131,132.85,138.23,2
131,132.81,138.15,2
131,132.78,138.08,2
132,132.76,138.02,2
132,132.75,137.96,2
131,132.71,137.89,2
132,132.70,137.83,2
131,132.66,137.77,2
131,132.63,137.70,2
131,132.60,137.63,2
131,132.57,137.56,2
131,132.53,137.50,2
131,132.50,137.43,2
131,132.47,137.37,2
131,132.44,137.31,2
130,132.39,137.23,2
131,132.37,137.17,2
132,132.36,137.12,2
133,132.37,137.08,2
131,132.35,137.02,2
132,132.34,136.97,2
133,132.35,136.93,2
133,132.36,136.89,2
133,132.38,136.85,2
133,132.39,136.81,2
133,132.40,136.77,2
133,132.41,136.73,2
135,132.47,136.72,2
133,132.48,136.68,2
135,132.53,136.66,2
134,132.56,136.64,2
133,132.57,136.60,2
133,132.57,136.56,2
131,132.54,136.51,2
133,132.55,136.47,2
134,132.58,136.45,2
133,132.59,136.41,2
133,132.60,136.38,2
133,132.61,136.35,2
133,132.61,136.31,2
133,132.62,136.28,2
132,132.61,136.24,2
134,132.64,136.21,2
135,132.68,136.20,2
135,132.73,136.19,2
135,132.78,136.18,2
135,132.82,136.17,2
135,132.86,136.15,2
135,132.91,136.14,2
135,132.95,136.13,2
135,132.99,136.12,2
135,133.03,136.11,2
135,133.07,136.10,2
133,133.07,136.07,2
133,133.07,136.04,2
133,133.06,136.01,2
134,133.08,135.99,2
134,133.10,135.97,2
134,133.12,135.95,2
133,133.12,135.92,2
134,133.13,135.90,2
133,133.13,135.87,2
134,133.15,135.85,2
133,133.15,135.82,2
134,133.16,135.80,2
133,133.16,135.78,2
133,133.16,135.75,2
131,133.11,135.70,2
133,133.11,135.67,2
133,133.11,135.65,2
132,133.09,135.61,2
132,133.07,135.57,2
135,133.10,135.57,2
133,133.10,135.54,2
132,133.08,135.51,2
132,133.06,135.47,2
132,133.04,135.44,2
131,133.00,135.39,2
132,132.98,135.36,2
131,132.94,135.32,2
131,132.90,135.27,2
131,132.86,135.23,2
132,132.84,135.20,2
131,132.81,135.16,2
132,132.79,135.12,2
131,132.75,135.08,2
131,132.72,135.04,2
131,132.68,135.00,2
132,132.67,134.97,2
130,132.62,134.92,2
131,132.59,134.88,2
129,132.51,134.82,2
129,132.44,134.77,2
129,132.37,134.71,2
130,132.33,134.66,2
130,132.28,134.61,2
130,132.23,134.57,2
130,132.19,134.52,2
130,132.15,134.48,2
131,132.12,134.44,2
130,132.08,134.40,2
131,132.06,134.36,2
130,132.02,134.32,2
131,132.00,134.29,2
131,131.98,134.25,2
132,131.98,134.23,2
131,131.96,134.20,2
133,131.98,134.19,2
132,131.98,134.17,2
133,132.00,134.15,2
133,132.02,134.14,2
136,132.10,134.16,2
131,132.08,134.13,2
132,132.08,134.11,2
132,132.07,134.09,2
133,132.09,134.08,2
133,132.11,134.07,2
133,132.13,134.05,2
133,132.15,134.04,2
133,132.16,134.03,2
134,132.20,134.03,2
133,132.22,134.02,2
133,132.23,134.01,2
133,132.25,134.00,2
133,132.26,133.99,2
132,132.26,133.97,2
132,132.25,133.95,2
132,132.25,133.93,2
132,132.24,133.91,2
132,132.24,133.90,2
132,132.23,133.88,2
132,132.23,133.86,2
131,132.20,133.83,2
132,132.20,133.81,2
133,132.22,133.80,2
132,132.21,133.78,2
132,132.21,133.77,2
132,132.20,133.75,2
131,132.18,133.72,2
133,132.20,133.71,2
132,132.19,133.70,2
132,132.19,133.68,2
133,132.20,133.67,2
132,132.20,133.66,2
132,132.20,133.64,2
133,132.21,133.63,2
131,132.19,133.61,2
132,132.18,133.59,2
132,132.18,133.58,2
132,132.18,133.56,2
132,132.17,133.54,2
133,132.19,133.54,2
132,132.19,133.52,2
131,132.16,133.50,2
131,132.14,133.47,2
131,132.12,133.45,2
132,132.11,133.43,2
132,132.11,133.42,2
132,132.11,133.41,2
132,132.11,133.39,2
132,132.10,133.38,2
131,132.08,133.35,2
133,132.10,133.35,2
132,132.10,133.34,2
131,132.08,133.31,2
132,132.08,133.30,2
132,132.07,133.29,2
132,132.07,133.27,2
133,132.09,133.27,2
132,132.09,133.26,2
131,132.07,133.24,2
131,132.05,133.21,2
132,132.05,133.20,2
133,132.06,133.20,2
135,132.12,133.22,2
135,132.18,133.24,2
135,132.24,133.25,2
135,132.29,133.27,2
137,132.39,133.31,2
139,132.52,133.36,2
138,132.63,133.41,2
139,132.76,133.47,2
137,132.84,133.50,2
139,132.96,133.56,2
138,133.06,133.60,2
140,133.20,133.67,2
139,133.32,133.72,2
137,133.39,133.75,2
139,133.50,133.80,2
137,133.57,133.84,2
137,133.64,133.87,2
138,133.73,133.91,2
137,133.80,133.94,2
137,133.86,133.97,3
139,133.96,134.02,3
137,134.02,134.05,4
138,134.10,134.09,4
137,134.16,134.12,5
137,134.22,134.15,5
137,134.27,134.18,6
138,134.35,134.22,6
137,134.40,134.24,6
137,134.45,134.27,6
138,134.52,134.31,6
137,134.57,134.33,6
138,134.64,134.37,6
138,134.71,134.41,6
139,134.80,134.45,6
138,134.86,134.49,6
139,134.94,134.53,6
138,135.00,134.57,6
139,135.08,134.61,6
137,135.12,134.64,6
137,135.16,134.66,6
137,135.20,134.68,6
139,135.27,134.73,6
138,135.33,134.76,6
139,135.40,134.80,6
139,135.47,134.84,6
139,135.54,134.89,6
139,135.61,134.93,6
138,135.66,134.96,6
137,135.69,134.98,6
139,135.75,135.02,6
138,135.80,135.05,6
138,135.84,135.08,6
138,135.88,135.11,6
139,135.95,135.15,6
139,136.01,135.18,6
138,136.05,135.21,6
138,136.09,135.24,6
139,136.15,135.28,6
139,136.20,135.32,6
138,136.24,135.34,6
139,136.29,135.38,6
139,136.35,135.41,6
139,136.40,135.45,6
136,136.39,135.46,6
137,136.40,135.47,6
137,136.42,135.49,6
138,136.45,135.51,6
137,136.46,135.53,6
137,136.47,135.54,6
138,136.50,135.57,6
137,136.51,135.58,6
137,136.52,135.59,6
137,136.53,135.61,6
138,136.56,135.63,6
137,136.57,135.65,6
137,136.58,135.66,6
138,136.61,135.68,6
138,136.63,135.71,6
137,136.64,135.72,6
140,136.71,135.76,6
141,136.79,135.81,6
141,136.88,135.87,6
141,136.96,135.92,6
141,137.04,135.97,6
141,137.12,136.02,6
141,137.20,136.07,6
142,137.29,136.13,6
143,137.41,136.20,6
143,137.52,136.26,6
142,137.61,136.32,6
143,137.72,136.39,6
143,137.82,136.46,6
143,137.93,136.52,6
144,138.05,136.60,6
143,138.15,136.66,6
143,138.24,136.72,6
143,138.34,136.79,6
143,138.43,136.85,6
143,138.52,136.91,6
143,138.61,136.97,6
145,138.74,137.05,6
143,138.83,137.11,6
146,138.97,137.20,6
143,139.05,137.26,6
143,139.13,137.31,6
143,139.21,137.37,6
143,139.28,137.43,6
143,139.36,137.48,6
143,139.43,137.54,6
143,139.50,137.59,6
143,139.57,137.65,6
143,139.64,137.70,6
143,139.71,137.75,6
145,139.81,137.83,6
145,139.92,137.90,6
147,140.06,137.99,6
145,140.16,138.06,6
148,140.31,138.16,6
148,140.47,138.26,6
149,140.64,138.36,6
149,140.81,138.47,6
150,140.99,138.59,6
149,141.15,138.69,6
149,141.31,138.79,6
149,141.46,138.90,6
149,141.61,139.00,6
151,141.80,139.12,6
149,141.94,139.22,6
152,142.14,139.34,6
151,142.32,139.46,6
152,142.51,139.58,6
151,142.68,139.70,6
153,142.89,139.83,6
153,143.09,139.96,6
153,143.29,140.09,6
153,143.49,140.22,6
152,143.66,140.34,6
153,143.84,140.47,6
153,144.03,140.59,6
152,144.19,140.71,6
153,144.36,140.83,6
156,144.59,140.98,6
158,144.86,141.15,6
159,145.15,141.33,6
159,145.42,141.51,6
160,145.71,141.69,6
163,146.06,141.90,6
165,146.44,142.14,6
165,146.81,142.36,6
165,147.17,142.59,6
165,147.53,142.81,6
165,147.88,143.04,6
165,148.22,143.26,6
165,148.56,143.47,6
165,148.89,143.69,6
165,149.21,143.90,6
165,149.52,144.11,6
167,149.87,144.34,6
166,150.20,144.56,6
165,150.49,144.76,6
166,150.80,144.98,6
166,151.11,145.19,6
167,151.42,145.40,6
167,151.74,145.62,6
167,152.04,145.83,6
166,152.32,146.04,6
166,152.59,146.23,6
165,152.84,146.42,6
167,153.13,146.63,6
167,153.40,146.83,6
168,153.69,147.04,6
169,154.00,147.26,6
170,154.32,147.49,6
169,154.61,147.71,6
169,154.90,147.92,6
169,155.18,148.13,6
171,155.50,148.36,6
170,155.79,148.57,6
171,156.09,148.80,6
171,156.39,149.02,6
170,156.66,149.23,6
169,156.91,149.43,6
170,157.17,149.63,6
172,157.47,149.86,6
171,157.74,150.07,6
171,158.01,150.28,6
171,158.27,150.49,6
172,158.54,150.70,6
172,158.81,150.91,6
173,159.09,151.13,6
173,159.37,151.35,6
173,159.64,151.57,6
176,159.97,151.81,6
178,160.33,152.08,6
176,160.65,152.32,6
176,160.95,152.55,6
179,161.31,152.82,6
176,161.61,153.05,6
177,161.91,153.29,6
177,162.22,153.52,6
177,162.51,153.76,6
182,162.90,154.04,6
183,163.30,154.33,6
182,163.68,154.61,6
185,164.10,154.91,6
186,164.54,155.22,6
189,165.03,155.56,6
189,165.51,155.90,6
189,165.98,156.23,6
189,166.44,156.55,6
188,166.87,156.87,6
188,167.29,157.18,6
187,167.69,157.48,6
189,168.11,157.79,6
189,168.53,158.11,6
189,168.94,158.41,6
189,169.34,158.72,6
188,169.72,159.01,6
187,170.06,159.29,6
189,170.44,159.59,6
187,170.77,159.86,6
188,171.12,160.15,6
187,171.43,160.41,6
188,171.77,160.69,6
189,172.11,160.97,6
189,172.45,161.25,6
189,172.78,161.53,6
189,173.10,161.81,6
188,173.40,162.07,6
189,173.71,162.34,6
188,174.00,162.59,6
189,174.30,162.86,6
188,174.57,163.11,6
189,174.86,163.37,6
189,175.14,163.62,6
188,175.40,163.87,6
189,175.67,164.12,6
189,175.94,164.37,6
189,176.20,164.61,6
189,176.46,164.86,6
192,176.77,165.13,6
194,177.11,165.42,6
193,177.43,165.69,6
196,177.80,166.00,6
199,178.23,166.33,6
200,178.66,166.66,6
201,179.11,167.01,6
202,179.57,167.36,6
201,179.99,167.69,6
201,180.41,168.03,6
201,180.83,168.36,6
205,181.31,168.72,6
201,181.70,169.05,6
204,182.15,169.40,6
203,182.57,169.73,6
203,182.98,170.06,6
203,183.38,170.39,6
203,183.77,170.72,6
203,184.15,171.04,6
203,184.53,171.36,6
203,184.90,171.68,6
204,185.28,172.00,6
205,185.68,172.33,6
205,186.06,172.66,6
205,186.44,172.98,6
205,186.81,173.30,6
206,187.20,173.63,6
208,187.61,173.97,6
207,188.00,174.30,6
207,188.38,174.63,6
207,188.75,174.95,6
206,189.10,175.26,6
206,189.44,175.57,6
208,189.81,175.90,6
209,190.19,176.23,6
211,190.61,176.57,6
213,191.05,176.94,6
214,191.51,177.31,6
213,191.94,177.67,6
216,192.42,178.05,6
219,192.96,178.46,6
221,193.52,178.88,6
223,194.11,179.33,6
224,194.70,179.77,6
224,195.29,180.21,6
223,195.84,180.64,6
224,196.41,181.08,6
224,196.96,181.51,6
225,197.52,181.94,6
226,198.09,182.38,6
226,198.65,182.82,6
229,199.25,183.28,6
229,199.85,183.74,6
232,200.49,184.22,6
234,201.16,184.72,6
234,201.82,185.21,6
235,202.48,185.71,6
238,203.19,186.23,6
239,203.91,186.76,6
243,204.69,187.32,6
243,205.46,187.88,6
244,206.23,188.44,6
243,206.96,188.98,6
244,207.70,189.53,6
247,208.49,190.11,6
250,209.32,190.71,6
251,210.15,191.31,6
253,211.01,191.93,6
254,211.87,192.55,6
254,212.71,193.16,6
257,213.60,193.80,6
259,214.51,194.45,6
262,215.46,195.13,6
262,216.39,195.80,6
264,217.34,196.48,6
263,218.25,197.14,6
264,219.17,197.81,6
264,220.07,198.47,6
265,220.96,199.14,6
266,221.86,199.81,6
267,222.77,200.48,6
267,223.65,201.15,6
268,224.54,201.81,6
268,225.41,202.48,6
269,226.28,203.14,6
268,227.11,203.79,6
269,227.95,204.44,6
272,228.83,205.12,6
273,229.72,205.80,6
274,230.60,206.48,6
273,231.45,207.14,6
273,232.28,207.80,6
273,233.10,208.45,6
276,233.95,209.13,6
277,234.81,209.81,6
278,235.68,210.49,6
277,236.50,211.16,6
279,237.35,211.83,6
278,238.17,212.50,6
277,238.94,213.14,6
277,239.71,213.78,6
279,240.49,214.43,6
280,241.28,215.09,6
281,242.08,215.75,6
281,242.85,216.40,6
283,243.66,217.06,6
280,244.38,217.69,6
280,245.10,218.32,6
281,245.81,218.94,6
281,246.52,219.56,6
280,247.19,220.17,6
280,247.84,220.77,6
280,248.49,221.36,6
284,249.20,221.99,6
285,249.91,222.62,6
285,250.62,223.24,6
288,251.36,223.89,6
289,252.12,224.54,6
291,252.89,225.20,6
292,253.68,225.87,6
291,254.42,226.52,6
291,255.15,227.17,6
291,255.87,227.81,6
291,256.57,228.44,6
290,257.24,229.05,6
290,257.90,229.66,6
290,258.54,230.27,6
292,259.21,230.88,6
295,259.92,231.52,6
297,260.67,232.18,6
296,261.37,232.82,6
297,262.08,233.46,6
297,262.78,234.09,6
298,263.49,234.73,6
299,264.20,235.38,6
300,264.91,236.02,6
301,265.64,236.67,6
302,266.36,237.33,6
301,267.06,237.96,6
301,267.73,238.59,6
301,268.40,239.22,6
304,269.11,239.86,6
306,269.85,240.53,6
307,270.59,241.19,6
307,271.32,241.85,6
308,272.05,242.51,6
310,272.81,243.19,6
311,273.58,243.86,6
312,274.35,244.54,6
311,275.08,245.21,6
311,275.80,245.87,6
311,276.50,246.52,6
311,277.19,247.16,6
312,277.89,247.81,6
314,278.61,248.47,6
315,279.34,249.14,6
313,280.01,249.78,6
313,280.67,250.41,6
313,281.32,251.04,6
313,281.95,251.66,6
314,282.59,252.28,6
313,283.20,252.89,6
313,283.80,253.49,6
313,284.38,254.08,6
313,284.95,254.67,6
313,285.51,255.25,6
312,286.04,255.82,6
312,286.56,256.38,6
311,287.05,256.93,6
311,287.53,257.47,6
310,287.98,258.00,6
310,288.42,258.52,6
313,288.91,259.06,6
314,289.41,259.61,6
313,289.88,260.14,6
314,290.37,260.68,6
317,290.90,261.25,6
319,291.46,261.82,6
319,292.01,262.40,6
319,292.55,262.96,6
319,293.08,263.52,6
321,293.64,264.10,6
321,294.19,264.67,6
321,294.72,265.23,6
321,295.25,265.79,6
321,295.76,266.34,6
321,296.27,266.89,6
320,296.74,267.42,6
320,297.21,267.94,6
319,297.64,268.45,6
320,298.09,268.97,6
320,298.53,269.48,6
319,298.94,269.97,6
319,299.34,270.46,6
319,299.73,270.95,6
318,300.10,271.42,6
317,300.44,271.88,6
317,300.77,272.33,6
317,301.09,272.77,6
317,301.41,273.22,6
316,301.70,273.64,6
316,301.99,274.07,6
316,302.27,274.49,6
316,302.54,274.90,6
314,302.77,275.29,6
314,303.00,275.68,6
314,303.22,276.06,6
314,303.43,276.44,6
315,303.66,276.83,6
315,303.89,277.21,6
315,304.11,277.59,6
315,304.33,277.96,6
315,304.54,278.33,6
313,304.71,278.68,6
313,304.88,279.02,6
313,305.04,279.36,6
313,305.20,279.70,6
313,305.36,280.03,6
313,305.51,280.36,6
313,305.66,280.69,6
313,305.81,281.01,6
313,305.95,281.33,6
313,306.09,281.65,6
313,306.23,281.96,6
312,306.34,282.26,6
313,306.48,282.57,6
313,306.61,282.87,6
311,306.70,283.15,6
311,306.78,283.43,6
311,306.87,283.71,6
310,306.93,283.97,6
309,306.97,284.22,6
309,307.01,284.47,6
309,307.05,284.71,6
308,307.07,284.95,6
307,307.07,285.17,6
307,307.07,285.39,6
306,307.05,285.59,6
306,307.02,285.80,6
305,306.98,285.99,6
305,306.94,286.18,6
305,306.91,286.37,6
304,306.85,286.54,6
305,306.81,286.73,6
303,306.73,286.89,6
303,306.66,287.05,6
303,306.59,287.21,6
303,306.52,287.37,6
303,306.44,287.53,6
302,306.36,287.67,6
301,306.25,287.80,6
301,306.14,287.94,6
303,306.08,288.09,6
301,305.98,288.22,6
300,305.86,288.33,6
300,305.74,288.45,6
300,305.63,288.57,6
299,305.50,288.67,6
299,305.37,288.77,6
298,305.22,288.87,6
297,305.05,288.95,6
297,304.89,289.03,6
297,304.73,289.11,6
296,304.56,289.18,6
295,304.37,289.23,6
296,304.20,289.30,6
294,304.00,289.35,6
294,303.80,289.40,6
293,303.58,289.43,6
293,303.37,289.47,6
291,303.12,289.48,6
293,302.92,289.52,6
292,302.70,289.54,6
292,302.49,289.57,6
291,302.26,289.58,6
292,302.05,289.61,6
290,301.81,289.61,6
289,301.56,289.60,6
289,301.30,289.60,6
288,301.04,289.58,6
288,300.78,289.57,6
288,300.52,289.55,6
287,300.25,289.52,6
288,300.01,289.51,6
286,299.73,289.47,6
286,299.45,289.44,6
285,299.16,289.39,6
285,298.88,289.35,6
285,298.60,289.31,6
284,298.31,289.25,6
284,298.02,289.20,6
284,297.74,289.15,6
284,297.47,289.10,6
283,297.18,289.04,6
284,296.92,288.99,6
281,296.60,288.91,6
281,296.29,288.83,6
281,295.98,288.75,6
280,295.66,288.66,6
280,295.35,288.58,6
279,295.02,288.48,6
279,294.70,288.38,6
278,294.37,288.28,6
277,294.02,288.17,6
277,293.68,288.06,6
277,293.34,287.95,6
277,293.02,287.84,6
276,292.68,287.72,6
275,292.32,287.59,6
279,292.06,287.51,6
275,291.72,287.38,6
275,291.38,287.26,6
275,291.05,287.13,6
274,290.71,287.00,6
274,290.38,286.87,6
274,290.05,286.74,6
273,289.71,286.61,6
273,289.38,286.47,6
272,289.03,286.33,6
271,288.67,286.17,6
271,288.31,286.02,6
271,287.97,285.87,6
271,287.63,285.72,6
270,287.28,285.56,6
271,286.95,285.42,6
268,286.57,285.24,6
269,286.22,285.08,6
269,285.88,284.92,6
268,285.52,284.75,6
268,285.17,284.58,6
268,284.82,284.42,6
267,284.47,284.24,6
266,284.10,284.06,7
265,283.72,283.87,7
265,283.34,283.68,7
265,282.98,283.50,7
264,282.60,283.30,7
264,282.22,283.11,7
264,281.86,282.92,7
263,281.48,282.72,7
262,281.09,282.51,7
263,280.73,282.32,7
262,280.36,282.11,7
262,279.99,281.91,7
261,279.61,281.70,7
262,279.26,281.50,7
261,278.89,281.30,7
260,278.51,281.09,7
260,278.14,280.88,7
260,277.78,280.67,7
259,277.41,280.45,7
259,277.04,280.24,7
258,276.66,280.01,7
258,276.28,279.79,7
258,275.92,279.58,7
257,275.54,279.35,7
257,275.17,279.13,7
257,274.81,278.91,7
257,274.45,278.69,7
257,274.10,278.47,7
257,273.76,278.25,7
256,273.40,278.03,7
255,273.04,277.80,7
255,272.67,277.57,7
257,272.36,277.37,7
255,272.01,277.14,7
255,271.67,276.92,7
254,271.32,276.69,7
254,270.97,276.47,7
254,270.63,276.24,7
253,270.28,276.01,7
252,269.92,275.77,7
252,269.56,275.53,7
252,269.21,275.30,7
251,268.84,275.05,7
251,268.49,274.81,7
251,268.14,274.57,7
251,267.79,274.34,7
250,267.44,274.10,7
249,267.07,273.84,7
249,266.71,273.60,7
249,266.35,273.35,7
248,265.99,273.10,7
248,265.63,272.85,7
248,265.27,272.60,7
247,264.91,272.34,7
247,264.55,272.09,7
246,264.18,271.83,7
246,263.82,271.57,7
245,263.44,271.30,7
245,263.07,271.04,7
245,262.71,270.78,7
245,262.35,270.52,7
244,261.99,270.26,7
244,261.63,269.99,7
244,261.28,269.73,7
243,260.91,269.47,7
243,260.55,269.20,7
243,260.20,268.94,7
242,259.84,268.67,7
242,259.48,268.40,7
242,259.13,268.14,7
242,258.79,267.88,7
241,258.43,267.61,7
241,258.08,267.34,7
240,257.72,267.07,7
241,257.39,266.81,7
239,257.02,266.53,7
239,256.66,266.26,7
239,256.31,265.98,7
240,255.98,265.72,7
239,255.64,265.46,7
239,255.31,265.19,7
239,254.98,264.93,7
238,254.64,264.66,7
237,254.29,264.38,7
237,253.94,264.11,7
237,253.60,263.84,7
237,253.27,263.57,7
238,252.97,263.32,7
237,252.65,263.05,7
237,252.33,262.79,7
235,251.99,262.51,7
236,251.67,262.25,7
236,251.35,261.99,7
235,251.03,261.72,7
235,250.71,261.45,7
234,250.37,261.17,7
234,250.05,260.90,7
234,249.72,260.63,7
233,249.39,260.36,7
233,249.06,260.08,7
233,248.74,259.81,7
233,248.43,259.54,7
232,248.10,259.27,7
232,247.78,259.00,7
232,247.46,258.73,7
231,247.13,258.45,7
232,246.83,258.19,7
231,246.51,257.91,7
231,246.20,257.64,7
231,245.90,257.38,7
230,245.58,257.10,7
230,245.27,256.83,7
229,244.94,256.55,7
229,244.62,256.28,7
229,244.31,256.01,7
229,244.01,255.74,7
228,243.69,255.46,7
227,243.35,255.17,7
228,243.04,254.90,7
227,242.72,254.62,7
226,242.39,254.34,7
227,242.08,254.06,7
225,241.74,253.77,7
225,241.40,253.49,7
225,241.08,253.20,7
225,240.76,252.92,7
225,240.44,252.64,7
224,240.11,252.35,7
224,239.79,252.07,7
225,239.49,251.80,7
224,239.18,251.52,7
224,238.88,251.25,7
224,238.58,250.97,7
223,238.27,250.69,7
223,237.97,250.42,7
223,237.67,250.14,7
222,237.35,249.86,7
222,237.05,249.58,7
221,236.72,249.30,7
221,236.41,249.01,7
221,236.10,248.73,7
221,235.80,248.46,7
220,235.48,248.17,7
220,235.17,247.89,7
220,234.87,247.61,7
219,234.55,247.32,7
221,234.28,247.06,7
219,233.98,246.78,7
219,233.68,246.50,7
219,233.38,246.23,7
218,233.08,245.95,7
217,232.75,245.66,7
217,232.44,245.37,7
217,232.13,245.09,7
217,231.83,244.81,7
217,231.53,244.53,7
216,231.22,244.24,7
216,230.92,243.96,7
215,230.60,243.67,7
215,230.29,243.38,7
215,229.98,243.10,7
215,229.68,242.82,7
214,229.37,242.53,7
215,229.08,242.25,7
214,228.78,241.97,7
214,228.48,241.69,7
214,228.19,241.42,7
215,227.93,241.15,7
213,227.63,240.87,7
214,227.36,240.60,7
213,227.07,240.33,7
213,226.79,240.05,7
214,226.53,239.79,7
214,226.28,239.53,7
213,226.02,239.27,7
213,225.76,239.01,7
213,225.50,238.75,7
214,225.27,238.50,7
212,225.01,238.23,7
211,224.73,237.96,7
212,224.47,237.70,7
214,224.26,237.46,7
212,224.02,237.21,7
211,223.76,236.95,7
212,223.52,236.70,7
210,223.25,236.43,7
210,222.99,236.17,7
210,222.73,235.91,7
210,222.47,235.65,7
210,222.22,235.39,7
209,221.96,235.13,7
208,221.68,234.85,7
208,221.41,234.59,7
208,221.14,234.32,7
207,220.85,234.05,7
207,220.58,233.78,7
207,220.31,233.51,7
206,220.02,233.23,7
206,219.74,232.96,7
207,219.48,232.70,7
206,219.21,232.43,7
207,218.97,232.18,7
205,218.69,231.91,7
205,218.42,231.64,7
205,218.15,231.37,7
204,217.87,231.10,7
204,217.59,230.83,7
205,217.34,230.57,7
204,217.07,230.30,7
203,216.79,230.03,7
205,216.55,229.78,7
203,216.28,229.51,7
203,216.02,229.25,7
203,215.76,228.99,7
203,215.50,228.73,7
202,215.23,228.46,7
203,214.99,228.20,7
202,214.73,227.94,7
202,214.47,227.68,7
201,214.20,227.42,7
202,213.96,227.16,7
202,213.72,226.91,7
202,213.48,226.66,7
201,213.24,226.40,7
202,213.01,226.16,7
201,212.77,225.91,7
200,212.51,225.65,7
201,212.28,225.40,7
200,212.04,225.15,7
201,211.82,224.91,7
199,211.56,224.65,7
199,211.31,224.39,7
199,211.06,224.14,7
199,210.82,223.89,7
199,210.59,223.64,7
199,210.35,223.39,7
198,210.11,223.14,7
199,209.89,222.90,7
197,209.63,222.64,7
198,209.40,222.39,7
197,209.15,222.14,7
197,208.90,221.89,7
196,208.65,221.63,7
196,208.39,221.37,7
196,208.15,221.12,7
195,207.88,220.86,7
196,207.65,220.61,7
195,207.39,220.35,7
195,207.14,220.10,7
194,206.88,219.84,7
195,206.64,219.59,7
194,206.39,219.33,7
194,206.14,219.08,7
193,205.88,218.82,7
193,205.62,218.56,7
193,205.37,218.30,7
193,205.12,218.05,7
192,204.86,217.79,7
191,204.58,217.52,7
192,204.33,217.27,7
192,204.08,217.01,7
191,203.82,216.75,7
192,203.59,216.51,7
191,203.34,216.25,7
191,203.09,216.00,7
191,202.85,215.75,7
191,202.61,215.50,7
191,202.38,215.26,7
191,202.15,215.01,7
190,201.91,214.76,7
190,201.67,214.52,7
190,201.44,214.27,7
190,201.21,214.03,7
191,201.00,213.80,7
189,200.76,213.55,7
191,200.57,213.33,7
189,200.34,213.08,7
190,200.13,212.85,7
189,199.91,212.61,7
191,199.73,212.40,7
189,199.51,212.16,7
189,199.30,211.93,7
189,199.10,211.70,7
187,198.86,211.45,7
189,198.66,211.23,7
188,198.45,211.00,7
188,198.24,210.77,7
187,198.01,210.53,7
188,197.81,210.30,7
187,197.60,210.07,7
187,197.38,209.84,7
185,197.14,209.59,7
186,196.91,209.36,7
186,196.69,209.12,7
185,196.46,208.88,7
185,196.23,208.64,7
185,196.01,208.41,7
185,195.79,208.17,7
186,195.59,207.95,7
185,195.38,207.72,7
184,195.15,207.48,7
184,194.93,207.25,7
183,194.69,207.01,7
183,194.46,206.77,7
183,194.23,206.53,7
183,194.00,206.29,7
182,193.76,206.05,7
181,193.51,205.80,7
182,193.28,205.56,7
182,193.05,205.33,7
181,192.81,205.08,7
181,192.57,204.84,7
181,192.34,204.60,7
181,192.12,204.37,7
180,191.87,204.12,7
180,191.64,203.88,7
180,191.40,203.64,7
180,191.18,203.41,7
179,190.93,203.16,7
179,190.69,202.92,7
180,190.48,202.69,7
179,190.25,202.46,7
177,189.98,202.20,7
178,189.75,201.96,7
178,189.51,201.72,7
178,189.28,201.48,7
177,189.03,201.24,7
177,188.79,201.00,7
177,188.56,200.76,7
177,188.33,200.52,7
180,188.16,200.31,7
177,187.94,200.08,7
177,187.72,199.85,7
176,187.48,199.61,7
177,187.27,199.38,7
176,187.05,199.15,7
176,186.83,198.92,7
176,186.61,198.69,7
175,186.38,198.45,7
175,186.15,198.22,7
175,185.93,197.99,7
175,185.71,197.76,7
175,185.50,197.53,7
176,185.31,197.31,7
175,185.10,197.09,7
174,184.88,196.86,7
175,184.68,196.64,7
175,184.49,196.42,7
175,184.30,196.21,7
174,184.09,195.99,7
174,183.89,195.77,7
175,183.71,195.56,7
173,183.50,195.33,7
173,183.29,195.11,7
173,183.08,194.89,7
173,182.88,194.67,7
173,182.68,194.45,7
172,182.47,194.23,7
172,182.26,194.01,7
172,182.05,193.79,7
172,181.85,193.57,7
171,181.64,193.34,7
172,181.44,193.13,7
171,181.23,192.91,7
171,181.03,192.69,7
171,180.83,192.47,7
170,180.61,192.25,7
171,180.42,192.04,7
170,180.21,191.82,7
170,180.01,191.60,7
170,179.81,191.38,7
169,179.59,191.16,7
169,179.38,190.94,7
170,179.19,190.73,7
169,178.99,190.51,7
170,178.81,190.30,7
169,178.61,190.09,7
169,178.42,189.88,7
168,178.21,189.66,7
169,178.03,189.46,7
167,177.81,189.23,7
169,177.63,189.03,7
167,177.42,188.81,7
167,177.21,188.59,7
167,177.01,188.37,7
167,176.81,188.16,7
167,176.61,187.95,7
167,176.42,187.74,7
167,176.23,187.53,7
167,176.04,187.33,7
167,175.86,187.12,7
167,175.69,186.92,7
167,175.51,186.72,7
166,175.32,186.52,7
167,175.16,186.32,7
165,174.95,186.11,7
166,174.77,185.91,7
165,174.58,185.70,7
165,174.39,185.49,7
165,174.20,185.29,7
165,174.01,185.08,7
163,173.79,184.86,7
164,173.60,184.65,7
164,173.41,184.45,7
163,173.20,184.23,7
163,172.99,184.02,7
163,172.79,183.81,7
163,172.60,183.60,7
163,172.41,183.40,7
163,172.22,183.19,7
162,172.01,182.98,7
161,171.79,182.76,7
162,171.60,182.55,7
161,171.39,182.34,7
161,171.18,182.12,7
161,170.97,181.91,7
161,170.78,181.70,7
161,170.58,181.50,7
160,170.37,181.28,7
161,170.18,181.08,7
161,170.00,180.88,7
160,169.80,180.67,7
159,169.58,180.45,7
161,169.41,180.26,7
164,169.30,180.09,7
160,169.12,179.89,7
159,168.91,179.69,7
159,168.71,179.48,7
160,168.54,179.28,7
159,168.35,179.08,7
159,168.16,178.88,7
158,167.96,178.67,7
160,167.80,178.48,7
158,167.60,178.28,7
159,167.43,178.09,7
158,167.24,177.89,7
157,167.04,177.68,7
158,166.86,177.48,7
159,166.70,177.30,7
157,166.51,177.09,7
157,166.32,176.89,7
157,166.13,176.69,7
157,165.95,176.50,7
157,165.77,176.30,7
157,165.59,176.11,7
157,165.42,175.92,7
157,165.25,175.73,7
157,165.09,175.54,7
157,164.93,175.35,7
157,164.77,175.17,7
156,164.59,174.98,7
157,164.44,174.80,7
155,164.25,174.60,7
155,164.07,174.41,7
155,163.89,174.21,7
156,163.73,174.03,7
155,163.55,173.84,7
156,163.40,173.66,7
155,163.23,173.47,7
153,163.03,173.27,7
153,162.83,173.07,7
154,162.65,172.88,7
153,162.46,172.68,7
153,162.27,172.48,7
153,162.08,172.29,7
153,161.90,172.09,7
153,161.72,171.90,7
153,161.55,171.71,7
153,161.38,171.53,7
152,161.19,171.33,7
152,161.01,171.14,7
152,160.83,170.95,7
152,160.65,170.76,7
151,160.46,170.56,7
152,160.29,170.37,7
151,160.10,170.18,7
151,159.92,169.99,7
150,159.72,169.79,7
151,159.55,169.60,7
153,159.42,169.43,7
151,159.25,169.25,7
149,159.04,169.05,7
149,158.84,168.85,7
149,158.65,168.65,7
150,158.47,168.46,7
149,158.28,168.27,7
149,158.10,168.07,7
149,157.92,167.88,7
149,157.74,167.70,7
149,157.56,167.51,7
147,157.35,167.30,7
148,157.16,167.11,7
147,156.96,166.91,7
147,156.76,166.71,7
147,156.57,166.51,7
146,156.36,166.31,7
147,156.17,166.11,7
148,156.01,165.93,7
147,155.83,165.74,7
147,155.65,165.56,7
145,155.44,165.35,7
147,155.27,165.17,7
146,155.08,164.98,7
146,154.90,164.79,7
147,154.74,164.61,7
145,154.55,164.41,7
146,154.38,164.23,7
146,154.21,164.05,7
146,154.04,163.87,7
146,153.88,163.69,7
145,153.71,163.50,7
145,153.53,163.31,7
145,153.36,163.13,7
145,153.19,162.95,7
145,153.03,162.77,7
145,152.87,162.59,7
145,152.71,162.42,7
143,152.52,162.22,7
144,152.35,162.04,7
144,152.18,161.86,7
144,152.02,161.68,7
145,151.88,161.51,7
145,151.74,161.35,7
145,151.60,161.19,7
143,151.43,161.00,7
144,151.28,160.83,7
144,151.14,160.67,7
145,151.02,160.51,7
144,150.87,160.34,7
145,150.76,160.19,7
144,150.62,160.03,7
143,150.47,159.86,7
143,150.32,159.69,7
144,150.19,159.53,7
143,150.05,159.37,7
144,149.93,159.21,7
143,149.79,159.05,7
143,149.65,158.89,7
143,149.52,158.73,7
143,149.39,158.58,7
143,149.26,158.42,7
142,149.12,158.26,7
143,149.00,158.10,7
143,148.88,157.95,7
143,148.76,157.80,7
143,148.64,157.65,7
143,148.53,157.51,7
143,148.42,157.36,7
143,148.31,157.22,7
143,148.21,157.08,7
142,148.08,156.93,7
143,147.98,156.79,7
143,147.88,156.65,7
143,147.78,156.51,7
143,147.69,156.38,7
141,147.55,156.22,7
142,147.44,156.08,7
142,147.33,155.94,7
142,147.23,155.80,7
141,147.10,155.65,7
141,146.98,155.51,7
141,146.86,155.36,7
141,146.74,155.22,7
141,146.63,155.08,7
141,146.52,154.93,7
142,146.43,154.81,7
141,146.32,154.67,7
141,146.21,154.53,7
141,146.11,154.40,7
141,146.00,154.26,7
140,145.88,154.12,7
140,145.77,153.98,7
140,145.65,153.84,7
140,145.54,153.70,7
140,145.43,153.56,7
139,145.30,153.42,7
140,145.19,153.28,7
140,145.09,153.15,7
141,145.01,153.03,7
141,144.93,152.91,7
141,144.85,152.79,7
141,144.77,152.67,7
141,144.70,152.55,7
141,144.62,152.44,7
143,144.59,152.34,7
142,144.54,152.24,7
143,144.51,152.15,7
143,144.48,152.06,7
141,144.41,151.95,7
141,144.34,151.84,7
143,144.31,151.75,7
141,144.25,151.64,7
141,144.18,151.53,7
141,144.12,151.43,7
142,144.08,151.34,7
142,144.03,151.24,7
142,143.99,151.15,7
141,143.93,151.05,7
141,143.87,150.95,7
141,143.82,150.85,7
142,143.78,150.76,7
143,143.77,150.68,7
142,143.73,150.60,7
143,143.72,150.52,7
143,143.70,150.44,7
142,143.67,150.36,7
143,143.65,150.29,7
144,143.66,150.22,7
143,143.65,150.15,7
143,143.63,150.08,7
143,143.62,150.01,7
142,143.59,149.93,7
142,143.56,149.85,7
142,143.53,149.77,7
141,143.48,149.68,7
141,143.43,149.60,7
141,143.38,149.51,7
141,143.33,149.43,7
141,143.28,149.34,7
142,143.26,149.27,7
141,143.21,149.18,7
141,143.17,149.10,7
142,143.15,149.03,7
141,143.10,148.95,7
142,143.08,148.88,7
140,143.02,148.79,7
141,142.98,148.72,7
140,142.92,148.63,7
141,142.88,148.55,7
142,142.86,148.49,7
141,142.83,148.41,7
141,142.79,148.34,7
141,142.75,148.26,7
141,142.72,148.19,7
141,142.68,148.12,7
141,142.65,148.05,7
141,142.62,147.98,7
141,142.58,147.91,7
141,142.55,147.84,7
141,142.52,147.77,7
141,142.49,147.70,7
141,142.46,147.64,7
140,142.41,147.56,7
140,142.36,147.48,7
140,142.32,147.41,7
141,142.29,147.34,7
140,142.25,147.27,7
142,142.24,147.22,7
141,142.22,147.16,7
141,142.19,147.10,7
141,142.17,147.03,7
141,142.14,146.97,7
142,142.14,146.92,7
141,142.12,146.86,7
141,142.10,146.81,7
140,142.05,146.74,7
141,142.03,146.68,7
140,141.99,146.61,7
140,141.95,146.55,7
140,141.91,146.48,7
140,141.88,146.42,7
139,141.82,146.34,7
141,141.80,146.29,7
141,141.79,146.24,7
141,141.77,146.18,7
141,141.75,146.13,7
141,141.74,146.08,7
141,141.72,146.03,7
141,141.71,145.98,7
141,141.70,145.93,7
141,141.68,145.88,7
141,141.67,145.83,7
142,141.67,145.79,7
143,141.70,145.77,7
142,141.71,145.73,7
142,141.71,145.69,7
142,141.72,145.65,7
143,141.74,145.63,7
142,141.75,145.59,7
142,141.75,145.56,7
141,141.74,145.51,7
141,141.72,145.46,7
141,141.71,145.42,7
141,141.70,145.38,7
141,141.68,145.33,7
141,141.67,145.29,7
141,141.66,145.25,7
140,141.62,145.19,7
141,141.61,145.15,7
141,141.60,145.11,7
141,141.59,145.07,7
141,141.57,145.03,7
141,141.56,144.99,7
141,141.55,144.95,7
141,141.54,144.91,7
141,141.53,144.87,7
141,141.52,144.83,7
140,141.49,144.78,7
141,141.48,144.74,7
141,141.47,144.71,7
142,141.48,144.68,7
143,141.51,144.66,7
142,141.52,144.64,7
143,141.55,144.62,7
143,141.58,144.60,7
145,141.65,144.61,7
144,141.69,144.60,7
145,141.76,144.61,7
144,141.80,144.60,7
143,141.83,144.58,7
143,141.85,144.57,7
143,141.88,144.55,7
143,141.90,144.54,7
143,141.92,144.52,7
143,141.94,144.51,7
143,141.96,144.49,7
143,141.98,144.48,7
144,142.02,144.47,7
143,142.04,144.46,7
144,142.08,144.45,7
143,142.10,144.44,7
143,142.12,144.42,7
143,142.14,144.41,7
143,142.15,144.40,7
143,142.17,144.38,7
143,142.19,144.37,7
142,142.18,144.34,7
142,142.18,144.32,7
141,142.16,144.29,7
141,142.13,144.25,7
141,142.11,144.22,7
141,142.09,144.19,7
141,142.07,144.16,7
141,142.05,144.13,7
143,142.06,144.11,7
141,142.04,144.08,7
141,142.02,144.05,7
141,142.00,144.02,7
141,141.98,143.99,7
141,141.96,143.96,7
141,141.94,143.93,7
142,141.94,143.91,7
142,141.94,143.89,7
142,141.95,143.88,7
142,141.95,143.86,7
141,141.93,143.83,7
142,141.93,143.81,7
143,141.95,143.80,7
143,141.97,143.79,7
143,141.99,143.79,7
144,142.03,143.79,7
143,142.05,143.78,7
143,142.07,143.77,7
143,142.09,143.76,7
143,142.11,143.76,7
143,142.13,143.75,7
145,142.18,143.76,7
146,142.26,143.78,7
145,142.31,143.80,7
145,142.37,143.81,7
145,142.42,143.82,7
144,142.45,143.82,7
145,142.50,143.83,7
145,142.55,143.85,7
146,142.62,143.87,7
145,142.67,143.88,7
145,142.72,143.89,7
144,142.74,143.89,7
145,142.79,143.90,7
145,142.83,143.91,7
145,142.87,143.92,7
145,142.92,143.93,7
145,142.96,143.94,7
146,143.02,143.97,7
146,143.08,143.99,7
145,143.12,144.00,7
145,143.16,144.01,7
145,143.19,144.02,7
145,143.23,144.03,7
146,143.28,144.05,7
145,143.32,144.05,7
143,143.31,144.04,7
145,143.35,144.05,7
147,143.42,144.08,7
146,143.47,144.10,7
146,143.52,144.12,7
147,143.59,144.15,7
147,143.66,144.18,7
147,143.73,144.21,7
147,143.79,144.24,7
147,143.86,144.26,7
147,143.92,144.29,7
146,143.96,144.31,7
146,144.00,144.32,7
145,144.02,144.33,7
145,144.04,144.34,7
145,144.06,144.34,7
145,144.08,144.35,7
145,144.10,144.36,7
145,144.11,144.36,7
145,144.13,144.37,7
146,144.17,144.39,7
145,144.19,144.39,7
146,144.22,144.41,7
147,144.28,144.43,7
147,144.33,144.46,8
148,144.41,144.50,8
147,144.46,144.52,9
148,144.53,144.56,9
147,144.58,144.58,10
149,144.67,144.62,10
146,144.69,144.64,11
146,144.72,144.65,11
147,144.76,144.67,12
146,144.79,144.69,12
146,144.81,144.70,13
146,144.84,144.71,13
146,144.86,144.73,13
146,144.88,144.74,13
147,144.93,144.76,13
146,144.95,144.77,13
145,144.95,144.78,13
146,144.97,144.79,13
146,144.99,144.80,13
146,145.01,144.81,13
146,145.03,144.83,13
146,145.05,144.84,13
147,145.09,144.86,13
147,145.13,144.88,13
147,145.16,144.90,13
147,145.20,144.92,13
147,145.24,144.94,13
147,145.27,144.96,13
146,145.29,144.97,13
145,145.28,144.97,13
147,145.32,144.99,13
147,145.35,145.01,13
147,145.38,145.03,13
148,145.43,145.06,13
147,145.47,145.08,13
147,145.50,145.10,13
148,145.55,145.13,13
147,145.58,145.15,13
150,145.66,145.20,13
150,145.75,145.25,13
150,145.84,145.29,13
150,145.92,145.34,13
150,146.00,145.39,13
150,146.08,145.43,13
149,146.14,145.47,13
150,146.22,145.52,13
150,146.29,145.56,13
149,146.35,145.59,13
148,146.38,145.62,13
149,146.43,145.65,13
147,146.44,145.67,13
149,146.49,145.70,13
149,146.54,145.73,13
149,146.59,145.76,13
149,146.64,145.80,13
149,146.69,145.83,13
149,146.73,145.86,13
149,146.78,145.89,13
149,146.82,145.92,13
150,146.89,145.96,13
150,146.95,146.00,13
150,147.01,146.04,13
150,147.07,146.08,13
151,147.15,146.13,13
151,147.23,146.18,13
150,147.28,146.22,13
150,147.34,146.26,13
150,147.39,146.30,13
150,147.44,146.33,13
149,147.47,146.36,13
150,147.52,146.40,13
150,147.57,146.43,13
149,147.60,146.46,13
150,147.65,146.49,13
150,147.70,146.53,13
151,147.76,146.57,13
151,147.83,146.62,13
151,147.89,146.66,13
151,147.95,146.70,13
152,148.03,146.76,13
152,148.11,146.81,13
152,148.19,146.86,13
153,148.29,146.92,13
153,148.38,146.98,13
153,148.47,147.04,13
151,148.52,147.08,13
153,148.61,147.14,13
155,148.74,147.22,13
155,148.87,147.30,13
154,148.97,147.37,13
155,149.09,147.44,13
155,149.21,147.52,13
156,149.34,147.60,13
156,149.48,147.69,13
155,149.59,147.76,13
157,149.74,147.85,13
156,149.86,147.93,13
155,149.96,148.00,13
155,150.06,148.07,13
156,150.18,148.15,13
156,150.30,148.23,13
155,150.39,148.30,13
155,150.49,148.37,13
155,150.58,148.43,13
155,150.66,148.50,13
154,150.73,148.55,13
155,150.82,148.62,13
155,150.90,148.68,13
155,150.98,148.74,13
156,151.08,148.82,13
156,151.18,148.89,13
155,151.26,148.95,13
157,151.37,149.03,13
155,151.45,149.09,13
157,151.56,149.17,13
158,151.69,149.26,13
159,151.83,149.36,13
159,151.97,149.45,13
159,152.12,149.55,13
160,152.27,149.65,13
162,152.47,149.78,13
162,152.66,149.90,13
162,152.84,150.02,13
162,153.03,150.14,13
163,153.23,150.27,13
163,153.42,150.39,13
164,153.63,150.53,13
164,153.84,150.67,13
164,154.04,150.80,13
165,154.26,150.94,13
165,154.48,151.08,13
164,154.67,151.21,13
166,154.90,151.36,13
166,155.12,151.50,13
165,155.32,151.64,13
167,155.55,151.79,13
167,155.78,151.95,13
167,156.00,152.10,13
170,156.28,152.27,13
172,156.60,152.47,13
172,156.91,152.67,13
172,157.21,152.86,13
175,157.56,153.08,13
177,157.95,153.32,13
177,158.33,153.56,13
178,158.73,153.80,13
177,159.09,154.03,13
177,159.45,154.26,13
178,159.82,154.50,13
179,160.20,154.75,13
179,160.58,154.99,13
180,160.97,155.24,13
180,161.35,155.49,13
180,161.72,155.73,13
179,162.07,155.96,13
179,162.41,156.19,13
179,162.74,156.42,13
179,163.06,156.65,13
178,163.36,156.86,13
179,163.67,157.08,13
179,163.98,157.30,13
179,164.28,157.52,13
179,164.58,157.73,13
180,164.88,157.96,13
182,165.23,158.20,13
182,165.56,158.44,13
183,165.91,158.68,13
183,166.25,158.92,13
187,166.67,159.21,13
189,167.11,159.50,13
187,167.51,159.78,13
186,167.88,160.04,13
189,168.30,160.33,13
190,168.74,160.63,13
192,169.20,160.94,13
192,169.66,161.25,13
192,170.11,161.56,13
193,170.56,161.87,13
194,171.03,162.19,13
193,171.47,162.50,13
194,171.92,162.82,13
196,172.40,163.15,13
198,172.92,163.50,13
198,173.42,163.84,13
199,173.93,164.19,13
199,174.43,164.54,13
200,174.94,164.90,13
203,175.50,165.28,13
205,176.09,165.68,13
205,176.67,166.07,13
205,177.24,166.46,13
208,177.85,166.87,13
210,178.50,167.30,13
211,179.15,167.74,13
211,179.78,168.17,13
214,180.47,168.63,13
217,181.20,169.12,13
220,181.97,169.62,13
219,182.72,170.12,13
219,183.44,170.61,13
220,184.17,171.10,13
220,184.89,171.59,13
221,185.61,172.08,13
222,186.34,172.58,13
222,187.05,173.08,13
223,187.77,173.58,13
225,188.52,174.09,13
228,189.31,174.63,13
228,190.08,175.16,13
229,190.86,175.70,13
232,191.68,176.27,13
234,192.53,176.84,13
235,193.38,177.42,13
235,194.21,178.00,13
234,195.00,178.56,13
232,195.74,179.09,13
234,196.51,179.64,13
233,197.24,180.18,13
233,197.95,180.71,13
234,198.68,181.24,13
237,199.44,181.80,13
239,200.23,182.37,13
240,201.03,182.94,13
241,201.83,183.52,13
244,202.67,184.13,13
245,203.52,184.74,13
246,204.37,185.35,13
246,205.20,185.96,13
245,206.00,186.55,13
246,206.80,187.14,13
247,207.60,187.74,13
248,208.41,188.34,13
247,209.18,188.93,13
247,209.94,189.51,13
247,210.68,190.09,13
246,211.38,190.64,13
246,212.08,191.20,13
247,212.77,191.76,13
249,213.50,192.33,13
250,214.23,192.91,13
249,214.92,193.47,13
250,215.63,194.03,13
252,216.35,194.61,13
254,217.11,195.21,13
254,217.84,195.79,13
255,218.59,196.39,13
256,219.34,196.98,13
256,220.07,197.57,13
254,220.75,198.14,13
255,221.43,198.70,13
255,222.10,199.27,13
256,222.78,199.83,13
258,223.49,200.42,13
257,224.16,200.98,13
260,224.87,201.57,13
262,225.62,202.18,13
263,226.36,202.79,13
263,227.10,203.39,13
264,227.83,203.99,13
267,228.62,204.62,13
267,229.39,205.25,13
267,230.14,205.86,13
268,230.90,206.49,13
268,231.64,207.10,13
268,232.36,207.71,13
268,233.08,208.31,13
268,233.78,208.91,13
268,234.46,209.50,13
267,235.11,210.08,13
266,235.73,210.63,13
268,236.37,211.21,13
267,236.99,211.77,13
269,237.63,212.34,13
269,238.25,212.91,13
269,238.87,213.47,13
270,239.49,214.03,13
271,240.12,214.60,13
271,240.74,215.17,13
272,241.36,215.73,13
273,242.00,216.31,13
274,242.64,216.88,13
273,243.25,217.44,13
273,243.84,218.00,13
273,244.42,218.55,13
273,244.99,219.09,13
273,245.55,219.63,13
273,246.10,220.17,13
273,246.64,220.70,13
273,247.17,221.22,13
273,247.69,221.74,13
275,248.23,222.27,13
275,248.77,222.80,13
274,249.27,223.31,13
275,249.79,223.83,13
277,250.33,224.36,13
276,250.84,224.87,13
276,251.35,225.38,13
276,251.84,225.89,13
275,252.30,226.38,13
275,252.76,226.87,13
275,253.20,227.35,13
275,253.64,227.83,13
275,254.07,228.30,13
275,254.48,228.76,13
275,254.89,229.23,13
276,255.32,229.69,13
274,255.69,230.14,13
275,256.08,230.59,13
276,256.48,231.04,13
275,256.85,231.48,13
275,257.21,231.92,13
275,257.56,232.35,13
276,257.93,232.78,13
278,258.33,233.24,13
277,258.71,233.67,13
277,259.07,234.11,13
276,259.41,234.52,13
276,259.74,234.94,13
277,260.09,235.36,13
277,260.43,235.78,13
277,260.76,236.19,13
276,261.06,236.59,13
275,261.34,236.97,13
275,261.62,237.35,13
277,261.92,237.75,13
278,262.24,238.15,13
278,262.56,238.55,13
278,262.87,238.94,13
280,263.21,239.35,13
280,263.55,239.76,13
280,263.88,240.16,13
279,264.18,240.55,13
279,264.48,240.94,13
279,264.77,241.32,13
278,265.03,241.68,13
279,265.31,242.06,13
280,265.60,242.44,13
278,265.85,242.79,13
278,266.09,243.14,13
277,266.31,243.48,13
276,266.51,243.81,13
276,266.70,244.13,13
276,266.88,244.45,13
276,267.06,244.76,13
276,267.24,245.08,13
276,267.42,245.39,13
276,267.59,245.69,13
275,267.74,245.98,13
275,267.88,246.27,13
275,268.03,246.56,13
276,268.19,246.86,13
276,268.34,247.15,13
276,268.49,247.44,13
278,268.68,247.74,13
278,268.87,248.04,13
277,269.03,248.33,13
278,269.21,248.63,13
278,269.39,248.92,13
277,269.54,249.21,13
277,269.69,249.48,13
277,269.84,249.76,13
277,269.98,250.03,13
276,270.10,250.29,13
276,270.22,250.55,13
277,270.35,250.81,13
276,270.47,251.06,13
276,270.58,251.31,13
276,270.69,251.56,13
276,270.79,251.80,13
275,270.88,252.04,13
275,270.96,252.27,13
274,271.02,252.48,13
274,271.08,252.70,13
274,271.14,252.91,13
274,271.19,253.12,13
273,271.23,253.32,13
272,271.25,253.51,13
274,271.30,253.71,13
272,271.32,253.90,13
271,271.31,254.07,13
272,271.32,254.25,13
272,271.34,254.42,13
272,271.35,254.60,13
271,271.34,254.76,13
272,271.36,254.94,13
273,271.39,255.12,13
274,271.44,255.31,13
276,271.53,255.51,13
272,271.54,255.68,13
272,271.55,255.84,13
271,271.54,255.99,13
271,271.53,256.14,13
271,271.52,256.29,13
270,271.49,256.43,13
270,271.46,256.56,13
270,271.43,256.70,13
268,271.36,256.81,13
268,271.29,256.92,13
268,271.23,257.03,13
269,271.18,257.15,13
267,271.10,257.25,13
268,271.04,257.36,13
268,270.98,257.47,13
267,270.90,257.56,13
267,270.82,257.66,13
267,270.74,257.75,13
267,270.67,257.84,13
267,270.59,257.93,13
266,270.50,258.01,13
265,270.39,258.08,13
265,270.28,258.15,13
264,270.16,258.21,13
264,270.04,258.27,13
264,269.92,258.33,13
264,269.80,258.38,13
263,269.66,258.43,13
262,269.51,258.46,13
262,269.36,258.50,13
262,269.21,258.54,13
263,269.09,258.58,13
262,268.94,258.61,13
261,268.79,258.64,13
262,268.65,258.67,13
261,268.50,258.69,13
261,268.35,258.72,13
260,268.18,258.73,13
260,268.02,258.74,13
259,267.84,258.75,13
259,267.66,258.75,13
258,267.47,258.74,13
258,267.28,258.73,13
258,267.09,258.73,13
257,266.89,258.71,13
257,266.69,258.69,13
256,266.48,258.67,13
256,266.27,258.64,13
256,266.06,258.61,13
255,265.84,258.58,13
255,265.62,258.54,13
255,265.41,258.50,13
254,265.18,258.46,13
254,264.96,258.42,13
254,264.74,258.37,13
254,264.53,258.33,13
253,264.30,258.27,13
252,264.05,258.21,13
252,263.81,258.15,13
251,263.55,258.08,13
253,263.34,258.03,13
252,263.11,257.97,13
251,262.87,257.90,13
251,262.64,257.83,13
251,262.40,257.76,13
251,262.17,257.69,13
251,261.95,257.63,13
251,261.73,257.56,13
250,261.50,257.48,13
252,261.31,257.43,13
251,261.10,257.36,13
250,260.88,257.29,13
249,260.64,257.21,13
248,260.39,257.12,13
248,260.14,257.02,13
248,259.90,256.93,13
248,259.66,256.84,13
247,259.41,256.75,13
247,259.16,256.65,13
247,258.92,256.55,13
246,258.66,256.45,13
246,258.40,256.34,13
247,258.18,256.25,13
245,257.91,256.14,13
245,257.65,256.03,13
245,257.40,255.91,13
244,257.13,255.80,13
243,256.85,255.67,13
243,256.57,255.54,13
243,256.30,255.42,13
243,256.04,255.29,13
243,255.78,255.17,13
242,255.50,255.04,13
242,255.23,254.91,13
241,254.95,254.77,13
241,254.67,254.63,14
241,254.39,254.49,14
240,254.11,254.35,14
240,253.82,254.21,14
240,253.55,254.06,14
240,253.28,253.92,14
239,252.99,253.77,14
239,252.71,253.63,14
239,252.44,253.48,14
242,252.23,253.36,14
238,251.94,253.21,14
238,251.66,253.06,14
237,251.37,252.90,14
237,251.08,252.74,14
237,250.80,252.58,14
238,250.55,252.44,14
236,250.25,252.27,14
235,249.95,252.10,14
235,249.65,251.93,14
235,249.36,251.76,14
234,249.05,251.58,14
234,248.75,251.41,14
233,248.43,251.22,14
234,248.15,251.05,14
233,247.84,250.87,14
233,247.55,250.69,14
233,247.26,250.51,14
233,246.97,250.34,14
232,246.67,250.15,14
231,246.36,249.96,14
231,246.05,249.77,14
231,245.75,249.59,14
231,245.45,249.40,14
230,245.15,249.21,14
230,244.84,249.01,14
229,244.53,248.81,14
229,244.21,248.62,14
229,243.91,248.42,14
228,243.59,248.22,14
228,243.28,248.01,14
228,242.97,247.81,14
227,242.66,247.60,14
227,242.34,247.40,14
226,242.02,247.18,14
226,241.70,246.97,14
226,241.38,246.76,14
226,241.07,246.56,14
225,240.75,246.34,14
225,240.44,246.13,14
224,240.11,245.91,14
224,239.79,245.69,14
224,239.47,245.47,14
223,239.14,245.24,14
223,238.82,245.02,14
223,238.50,244.80,14
223,238.19,244.58,14
222,237.87,244.36,14
222,237.55,244.13,14
222,237.24,243.91,14
221,236.91,243.68,14
221,236.60,243.46,14
220,236.26,243.22,14
220,235.94,242.99,14
220,235.62,242.76,14
220,235.31,242.53,14
219,234.98,242.30,14
219,234.66,242.06,14
218,234.33,241.82,14
219,234.02,241.60,14
218,233.70,241.36,14
218,233.39,241.13,14
217,233.06,240.88,14
216,232.72,240.64,14
217,232.40,240.40,14
217,232.10,240.17,14
216,231.77,239.92,14
215,231.44,239.67,14
215,231.11,239.43,14
216,230.81,239.19,14
213,230.45,238.93,14
214,230.12,238.68,14
214,229.80,238.44,14
215,229.50,238.20,14
213,229.17,237.95,14
213,228.85,237.70,14
213,228.53,237.45,14
213,228.22,237.21,14
212,227.90,236.96,14
211,227.56,236.70,14
211,227.23,236.44,14
211,226.91,236.19,14
210,226.57,235.92,14
211,226.26,235.67,14
211,225.95,235.43,14
211,225.65,235.18,14
210,225.34,234.93,14
210,225.03,234.68,14
211,224.75,234.45,14
212,224.50,234.22,14
210,224.21,233.98,14
209,223.90,233.73,14
210,223.62,233.49,14
211,223.37,233.27,14
211,223.12,233.04,14
210,222.86,232.81,14
210,222.60,232.59,14
211,222.37,232.37,14
211,222.14,232.16,14
210,221.90,231.93,14
210,221.66,231.72,14
210,221.43,231.50,14
208,221.16,231.26,14
209,220.92,231.04,14
208,220.66,230.81,14
208,220.41,230.58,14
210,220.20,230.38,14
207,219.94,230.14,14
207,219.68,229.91,14
208,219.44,229.69,14
207,219.19,229.46,14
207,218.95,229.24,14
206,218.69,229.01,14
207,218.46,228.79,14
206,218.21,228.56,14
206,217.96,228.33,14
206,217.72,228.11,14
205,217.47,227.88,14
205,217.22,227.65,14
205,216.98,227.42,14
206,216.76,227.21,14
206,216.54,227.00,14
203,216.27,226.76,14
203,216.01,226.52,14
203,215.75,226.29,14
203,215.49,226.05,14
202,215.22,225.81,14
203,214.98,225.58,14
203,214.74,225.36,14
203,214.50,225.13,14
203,214.27,224.91,14
201,214.01,224.67,14
201,213.75,224.44,14
201,213.49,224.20,14
201,213.24,223.97,14
201,213.00,223.74,14
201,212.76,223.51,14
202,212.54,223.30,14
199,212.27,223.06,14
199,212.01,222.82,14
199,211.75,222.58,14
200,211.51,222.35,14
199,211.26,222.12,14
199,211.02,221.89,14
198,210.75,221.65,14
200,210.54,221.43,14
198,210.29,221.20,14
198,210.04,220.96,14
197,209.78,220.73,14
197,209.53,220.49,14
197,209.28,220.25,14
200,209.09,220.05,14
197,208.85,219.82,14
197,208.61,219.59,14
196,208.36,219.36,14
195,208.09,219.11,14
197,207.87,218.89,14
196,207.63,218.66,14
195,207.38,218.43,14
195,207.13,218.19,14
194,206.87,217.95,14
195,206.63,217.72,14
194,206.38,217.48,14
194,206.13,217.25,14
194,205.89,217.02,14
194,205.65,216.79,14
193,205.40,216.55,14
192,205.13,216.30,14
193,204.89,216.07,14
194,204.67,215.85,14
192,204.42,215.61,14
192,204.17,215.37,14
192,203.93,215.14,14
193,203.71,214.92,14
191,203.45,214.68,14
191,203.20,214.44,14
192,202.98,214.22,14
191,202.74,213.99,14
190,202.49,213.75,14
189,202.22,213.50,14
190,201.97,213.26,14
190,201.73,213.03,14
189,201.48,212.79,14
189,201.23,212.55,14
189,200.98,212.32,14
189,200.74,212.08,14
191,200.55,211.87,14
187,200.28,211.62,14
187,200.01,211.38,14
187,199.75,211.13,14
187,199.50,210.89,14
186,199.23,210.64,14
187,198.98,210.41,14
187,198.74,210.17,14
186,198.49,209.93,14
186,198.24,209.69,14
185,197.97,209.45,14
186,197.73,209.21,14
185,197.48,208.97,14
186,197.25,208.74,14
185,197.00,208.50,14
186,196.78,208.28,14
184,196.53,208.03,14
183,196.26,207.78,14
183,195.99,207.54,14
183,195.73,207.29,14
183,195.48,207.05,14
183,195.23,206.81,14
183,194.98,206.57,14
184,194.76,206.34,14
183,194.53,206.11,14
181,194.26,205.86,14
182,194.01,205.62,14
182,193.77,205.38,14
181,193.52,205.14,14
181,193.27,204.90,14
182,193.04,204.67,14
183,192.84,204.45,14
181,192.60,204.22,14
181,192.37,203.99,14
182,192.17,203.77,14
183,191.98,203.56,14
183,191.80,203.35,14
183,191.63,203.15,14
183,191.45,202.95,14
185,191.32,202.77,14
182,191.14,202.56,14
182,190.96,202.36,14
182,190.78,202.15,14
182,190.60,201.95,14
183,190.45,201.76,14
181,190.26,201.55,14
181,190.07,201.35,14
181,189.89,201.14,14
180,189.70,200.93,14
179,189.48,200.71,14
179,189.27,200.50,14
179,189.07,200.28,14
179,188.86,200.07,14
179,188.67,199.86,14
179,188.47,199.65,14
178,188.26,199.43,14
178,188.06,199.22,14
178,187.86,199.01,14
178,187.66,198.80,14
177,187.45,198.58,14
177,187.24,198.36,14
178,187.05,198.16,14
177,186.85,197.95,14
177,186.66,197.74,14
177,186.46,197.53,14
176,186.25,197.32,14
176,186.05,197.10,14
176,185.85,196.89,14
175,185.63,196.67,14
175,185.42,196.46,14
175,185.21,196.24,14
174,184.99,196.02,14
175,184.79,195.81,14
175,184.59,195.60,14
174,184.38,195.38,14
175,184.19,195.18,14
175,184.01,194.98,14
174,183.81,194.77,14
175,183.63,194.57,14
175,183.46,194.38,14
175,183.29,194.18,14
175,183.12,193.99,14
176,182.98,193.81,14
176,182.84,193.63,14
176,182.70,193.46,14
173,182.51,193.25,14
176,182.38,193.08,14
175,182.23,192.90,14
175,182.09,192.72,14
175,181.95,192.54,14
175,181.81,192.37,14
174,181.65,192.18,14
174,181.50,192.00,14
174,181.35,191.82,14
174,181.20,191.64,14
173,181.04,191.46,14
173,180.88,191.27,14
172,180.70,191.08,14
173,180.54,190.90,14
173,180.39,190.72,14
172,180.23,190.53,14
173,180.08,190.36,14
173,179.94,190.18,14
172,179.78,190.00,14
172,179.63,189.82,14
171,179.45,189.63,14
171,179.28,189.45,14
171,179.12,189.26,14
171,178.96,189.08,14
171,178.80,188.90,14
171,178.64,188.72,14
170,178.47,188.53,14
170,178.30,188.35,14
170,178.13,188.16,14
170,177.97,187.98,14
170,177.81,187.80,14
169,177.63,187.61,14
169,177.46,187.43,14
169,177.29,187.24,14
169,177.13,187.06,14
169,176.96,186.88,14
170,176.82,186.71,14
170,176.69,186.54,14
170,176.55,186.38,14
171,176.44,186.23,14
172,176.35,186.08,14
172,176.27,185.94,14
172,176.18,185.80,14
172,176.10,185.67,14
172,176.02,185.53,14
172,175.94,185.39,14
171,175.84,185.25,14
171,175.74,185.11,14
171,175.65,184.97,14
171,175.55,184.83,14
171,175.46,184.69,14
170,175.35,184.54,14
170,175.25,184.40,14
171,175.16,184.26,14
170,175.06,184.12,14
170,174.96,183.98,14
169,174.84,183.83,14
169,174.72,183.68,14
169,174.61,183.53,14
168,174.47,183.38,14
168,174.34,183.22,14
168,174.22,183.07,14
168,174.09,182.92,14
168,173.97,182.77,14
167,173.83,182.61,14
167,173.70,182.46,14
166,173.54,182.29,14
167,173.41,182.14,14
166,173.26,181.98,14
166,173.12,181.82,14
166,172.97,181.66,14
166,172.84,181.50,14
165,172.68,181.34,14
165,172.53,181.18,14
165,172.37,181.01,14
165,172.23,180.85,14
164,172.06,180.69,14
164,171.90,180.52,14
164,171.74,180.35,14
165,171.61,180.20,14
164,171.46,180.04,14
164,171.31,179.88,14
164,171.16,179.72,14
163,171.00,179.55,14
162,170.82,179.38,14
162,170.64,179.20,14
162,170.47,179.03,14
163,170.32,178.87,14
161,170.13,178.69,14
161,169.95,178.51,14
160,169.75,178.33,14
162,169.60,178.17,14
162,169.44,178.00,14
162,169.30,177.84,14
162,169.15,177.69,14
161,168.99,177.52,14
161,168.83,177.35,14
161,168.67,177.19,14
162,168.54,177.04,14
162,168.41,176.89,14
161,168.26,176.73,14
161,168.11,176.57,14
161,167.97,176.42,14
161,167.83,176.26,14
161,167.69,176.11,14
159,167.52,175.94,14
159,167.35,175.77,14
160,167.20,175.61,14
161,167.08,175.46,14
160,166.94,175.31,14
159,166.78,175.15,14
159,166.62,174.99,14
159,166.47,174.83,14
160,166.34,174.68,14
159,166.19,174.52,14
158,166.03,174.36,14
158,165.87,174.19,14
158,165.71,174.03,14
158,165.56,173.87,14
159,165.43,173.72,14
158,165.28,173.56,14
158,165.13,173.41,14
158,164.99,173.25,14
157,164.83,173.09,14
157,164.67,172.93,14
156,164.50,172.76,14
158,164.37,172.61,14
157,164.22,172.46,14
156,164.06,172.29,14
156,163.90,172.13,14
156,163.74,171.97,14
155,163.56,171.80,14
156,163.41,171.64,14
156,163.27,171.48,14
156,163.12,171.33,14
155,162.96,171.17,14
156,162.82,171.01,14
155,162.66,170.85,14
156,162.53,170.71,14
155,162.38,170.55,14
154,162.21,170.38,14
155,162.07,170.23,14
155,161.93,170.08,14
155,161.79,169.93,14
154,161.63,169.77,14
154,161.48,169.61,14
154,161.33,169.45,14
155,161.20,169.31,14
154,161.06,169.16,14
155,160.94,169.01,14
154,160.80,168.86,14
154,160.66,168.72,14
153,160.51,168.56,14
153,160.36,168.40,14
153,160.21,168.25,14
152,160.05,168.09,14
152,159.89,167.93,14
152,159.73,167.77,14
152,159.57,167.61,14
151,159.40,167.44,14
152,159.25,167.29,14
151,159.09,167.13,14
152,158.95,166.97,14
151,158.79,166.81,14
150,158.61,166.65,14
152,158.48,166.50,14
150,158.31,166.33,14
150,158.14,166.17,14
149,157.96,166.00,14
150,157.80,165.84,14
149,157.63,165.67,14
154,157.55,165.55,14
149,157.38,165.39,14
149,157.22,165.23,14
148,157.03,165.05,14
147,156.83,164.87,14
147,156.63,164.69,14
148,156.46,164.53,14
148,156.29,164.36,14
148,156.13,164.20,14
148,155.96,164.04,14
147,155.78,163.87,14
147,155.61,163.70,14
146,155.42,163.52,14
147,155.25,163.35,14
147,155.08,163.19,14
146,154.90,163.02,14
146,154.72,162.85,14
146,154.55,162.68,14
145,154.36,162.50,14
146,154.19,162.34,14
145,154.01,162.17,14
144,153.81,161.98,14
145,153.63,161.81,14
145,153.46,161.65,14
145,153.29,161.48,14
144,153.10,161.30,14
144,152.92,161.13,14
144,152.74,160.96,14
144,152.57,160.79,14
143,152.38,160.61,14
143,152.19,160.44,14
143,152.01,160.26,14
143,151.83,160.09,14
143,151.65,159.92,14
143,151.48,159.75,14
143,151.31,159.58,14
142,151.12,159.41,14
142,150.94,159.23,14
142,150.76,159.06,14
141,150.56,158.88,14
141,150.37,158.70,14
141,150.19,158.52,14
142,150.02,158.36,14
141,149.84,158.18,14
140,149.64,158.00,14
141,149.47,157.83,14
140,149.28,157.65,14
141,149.12,157.49,14
141,148.95,157.32,14
141,148.79,157.16,14
140,148.62,156.99,14
