Teste de posicionamento 1(EMG ao centro do bíceps (Vermelho A, Verde B) + Ref no pulso) - 16/04/2024 - teste2 - 5 contrações
long frequencia = 1000;                 //frequência de aquisição do sinal, neste caso, 1000 sinais por segundo
float fator1 = 0.02, fator2 = 0.01;
float incerteza = 0.13;
float pico_basal = 130; // Mínimo para ser considerado um pico de contração
int filtro_horizontal=200000; //intervalo de 200ms valores não pode ter mais de 1 contração

Biceps_D,mediaMovel_1,mediaMovel_2,Contracao
71,1.42,0.71,0
73,2.85,1.43,0
70,4.19,2.12,0
71,5.53,2.81,0
70,6.82,3.48,0
72,8.12,4.16,0
73,9.42,4.85,0
71,10.65,5.51,0
70,11.84,6.16,0
70,13.00,6.80,0
71,14.16,7.44,0
72,15.32,8.09,0
72,16.45,8.72,0
72,17.56,9.36,0
70,18.61,9.96,0
71,19.66,10.57,0
71,20.69,11.18,0
72,21.71,11.79,0
71,22.70,12.38,0
70,23.65,12.95,0
71,24.59,13.54,0
70,25.50,14.10,0
71,26.41,14.67,0
71,27.30,15.23,0
72,28.20,15.80,0
71,29.05,16.35,0
73,29.93,16.92,0
72,30.77,17.47,0
70,31.56,17.99,0
71,32.35,18.52,0
71,33.12,19.05,0
69,33.84,19.55,0
70,34.56,20.05,0
71,35.29,20.56,0
70,35.98,21.06,0
69,36.64,21.54,0
70,37.31,22.02,0
70,37.96,22.50,0
72,38.65,23.00,0
70,39.27,23.47,0
70,39.89,23.93,0
70,40.49,24.39,0
74,41.16,24.89,0
70,41.74,25.34,0
70,42.30,25.79,0
70,42.86,26.23,0
69,43.38,26.66,0
69,43.89,27.08,0
70,44.41,27.51,0
70,44.92,27.93,0
73,45.49,28.38,0
71,46.00,28.81,0
70,46.48,29.22,0
70,46.95,29.63,0
71,47.43,30.04,0
69,47.86,30.43,0
70,48.30,30.83,0
70,48.74,31.22,0
69,49.14,31.60,0
70,49.56,31.98,0
70,49.97,32.36,0
69,50.35,32.73,0
69,50.72,33.09,0
70,51.11,33.46,0
70,51.48,33.83,0
70,51.85,34.19,0
69,52.20,34.54,0
70,52.55,34.89,0
70,52.90,35.24,0
70,53.24,35.59,0
69,53.56,35.92,0
70,53.89,36.26,0
70,54.21,36.60,0
70,54.53,36.94,0
69,54.82,37.26,0
70,55.12,37.58,0
70,55.42,37.91,0
70,55.71,38.23,0
70,55.99,38.55,0
70,56.28,38.86,0
69,56.53,39.16,0
70,56.80,39.47,0
70,57.06,39.78,0
70,57.32,40.08,0
70,57.58,40.38,0
70,57.82,40.67,0
70,58.07,40.97,0
70,58.31,41.26,0
71,58.56,41.55,0
69,58.77,41.83,0
70,58.99,42.11,0
70,59.21,42.39,0
70,59.43,42.67,0
69,59.62,42.93,0
70,59.83,43.20,0
70,60.03,43.47,0
69,60.21,43.72,0
70,60.41,43.99,0
70,60.60,44.25,0
70,60.79,44.50,0
68,60.93,44.74,0
70,61.11,44.99,0
70,61.29,45.24,0
70,61.46,45.49,0
70,61.63,45.73,0
69,61.78,45.97,0
70,61.95,46.21,0
71,62.13,46.45,0
69,62.27,46.68,0
70,62.42,46.91,0
70,62.57,47.14,0
70,62.72,47.37,0
70,62.87,47.60,0
69,62.99,47.81,0
70,63.13,48.04,0
69,63.25,48.24,0
69,63.36,48.45,0
70,63.49,48.67,0
68,63.58,48.86,0
69,63.69,49.06,0
69,63.80,49.26,0
69,63.90,49.46,0
70,64.02,49.66,0
70,64.14,49.87,0
69,64.24,50.06,0
69,64.34,50.25,0
70,64.45,50.45,0
69,64.54,50.63,0
69,64.63,50.82,0
70,64.74,51.01,0
69,64.82,51.19,0
69,64.91,51.37,0
69,64.99,51.54,0
70,65.09,51.73,0
69,65.17,51.90,0
69,65.24,52.07,0
69,65.32,52.24,0
69,65.39,52.41,0
69,65.46,52.57,0
69,65.53,52.74,0
68,65.58,52.89,0
68,65.63,53.04,0
69,65.70,53.20,0
69,65.77,53.36,0
70,65.85,53.52,0
70,65.93,53.69,0
69,65.99,53.84,0
70,66.07,54.00,0
70,66.15,54.16,0
69,66.21,54.31,0
71,66.31,54.48,0
70,66.38,54.63,0
70,66.45,54.79,0
70,66.52,54.94,0
69,66.57,55.08,0
70,66.64,55.23,0
70,66.71,55.38,0
73,66.83,55.55,0
69,66.88,55.69,0
69,66.92,55.82,0
70,66.98,55.96,0
68,67.00,56.08,0
70,67.06,56.22,0
67,67.06,56.33,0
68,67.08,56.45,0
69,67.12,56.57,0
67,67.12,56.68,0
68,67.13,56.79,0
70,67.19,56.92,0
68,67.21,57.03,0
68,67.22,57.14,0
68,67.24,57.25,0
68,67.25,57.36,0
66,67.23,57.45,0
67,67.22,57.54,0
68,67.24,57.65,0
68,67.25,57.75,0
68,67.27,57.85,0
68,67.28,57.95,0
68,67.30,58.05,0
68,67.31,58.15,0
68,67.33,58.25,0
68,67.34,58.35,0
68,67.35,58.45,0
68,67.37,58.54,0
68,67.38,58.64,0
68,67.39,58.73,0
68,67.40,58.82,0
68,67.42,58.91,0
68,67.43,59.00,0
70,67.48,59.11,0
68,67.49,59.20,0
67,67.48,59.28,0
68,67.49,59.37,0
70,67.54,59.48,0
69,67.57,59.57,0
68,67.58,59.65,0
68,67.59,59.74,0
68,67.59,59.82,0
68,67.60,59.90,0
68,67.61,59.98,0
68,67.62,60.06,0
69,67.65,60.15,0
68,67.65,60.23,0
68,67.66,60.31,0
68,67.67,60.39,0
68,67.67,60.46,0
68,67.68,60.54,0
68,67.69,60.61,0
66,67.65,60.67,0
68,67.66,60.74,0
68,67.67,60.81,0
67,67.65,60.87,0
67,67.64,60.94,0
68,67.65,61.01,0
68,67.65,61.08,0
68,67.66,61.14,0
68,67.67,61.21,0
68,67.67,61.28,0
67,67.66,61.34,0
67,67.65,61.40,0
66,67.61,61.44,0
68,67.62,61.51,0
68,67.63,61.57,0
68,67.64,61.64,0
68,67.64,61.70,0
68,67.65,61.76,0
68,67.66,61.83,0
67,67.65,61.88,0
66,67.61,61.92,0
68,67.62,61.98,0
67,67.61,62.03,0
67,67.60,62.08,0
66,67.56,62.12,0
69,67.59,62.19,0
67,67.58,62.23,0
68,67.59,62.29,0
68,67.60,62.35,0
69,67.63,62.42,0
69,67.65,62.48,0
68,67.66,62.54,0
70,67.71,62.61,0
69,67.73,62.68,0
69,67.76,62.74,0
68,67.76,62.79,0
70,67.81,62.86,0
69,67.83,62.92,0
68,67.83,62.98,0
68,67.84,63.03,0
68,67.84,63.08,0
68,67.84,63.12,0
68,67.85,63.17,0
68,67.85,63.22,0
69,67.87,63.28,0
68,67.88,63.33,0
68,67.88,63.37,0
68,67.88,63.42,0
68,67.88,63.47,0
69,67.91,63.52,0
72,67.99,63.61,0
68,67.99,63.65,0
69,68.01,63.70,0
68,68.01,63.75,0
69,68.03,63.80,0
68,68.03,63.84,0
68,68.03,63.88,0
68,68.03,63.92,0
69,68.05,63.97,0
68,68.04,64.01,0
68,68.04,64.05,0
69,68.06,64.10,0
68,68.06,64.14,0
70,68.10,64.20,0
68,68.10,64.24,0
68,68.10,64.28,0
68,68.09,64.31,0
68,68.09,64.35,0
68,68.09,64.39,0
69,68.11,64.43,0
70,68.15,64.49,0
72,68.22,64.56,0
67,68.20,64.59,0
69,68.22,64.63,0
67,68.19,64.66,0
68,68.19,64.69,0
67,68.16,64.71,0
68,68.16,64.75,0
70,68.20,64.80,0
65,68.13,64.80,0
67,68.11,64.82,0
67,68.09,64.84,0
68,68.09,64.88,0
68,68.08,64.91,0
66,68.04,64.92,0
69,68.06,64.96,0
68,68.06,64.99,0
64,67.98,64.98,0
66,67.94,64.99,0
68,67.94,65.02,0
68,67.94,65.05,0
67,67.92,65.07,0
68,67.93,65.10,0
68,67.93,65.13,0
67,67.91,65.15,0
68,67.91,65.17,0
68,67.91,65.20,0
68,67.91,65.23,0
68,67.92,65.26,0
66,67.88,65.27,0
68,67.88,65.29,0
68,67.88,65.32,0
67,67.86,65.34,0
66,67.83,65.34,0
68,67.83,65.37,0
68,67.83,65.40,0
68,67.84,65.42,0
67,67.82,65.44,0
67,67.80,65.45,0
67,67.79,65.47,0
68,67.79,65.49,0
66,67.76,65.50,0
66,67.72,65.50,0
68,67.73,65.53,0
68,67.73,65.55,0
66,67.70,65.56,0
68,67.70,65.58,0
68,67.71,65.61,0
67,67.70,65.62,0
68,67.70,65.65,0
68,67.71,65.67,0
67,67.69,65.68,0
66,67.66,65.69,0
68,67.67,65.71,0
66,67.63,65.71,0
67,67.62,65.72,0
66,67.59,65.73,0
66,67.56,65.73,0
67,67.54,65.74,0
66,67.51,65.75,0
68,67.52,65.77,0
66,67.49,65.77,0
67,67.48,65.78,0
66,67.45,65.78,0
66,67.42,65.79,0
66,67.40,65.79,0
66,67.37,65.79,0
66,67.34,65.79,0
66,67.31,65.80,0
66,67.29,65.80,0
67,67.28,65.81,0
67,67.28,65.82,0
68,67.29,65.84,0
66,67.27,65.84,0
67,67.26,65.86,0
68,67.27,65.88,0
68,67.29,65.90,0
68,67.30,65.92,0
67,67.30,65.93,0
66,67.27,65.93,0
70,67.33,65.97,0
67,67.32,65.98,0
67,67.31,65.99,0
66,67.29,65.99,0
66,67.26,65.99,0
67,67.26,66.00,0
67,67.25,66.01,0
69,67.29,66.04,0
67,67.28,66.05,0
67,67.27,66.06,0
67,67.27,66.07,0
67,67.26,66.08,0
68,67.28,66.10,0
67,67.27,66.11,0
67,67.27,66.12,0
67,67.26,66.13,0
67,67.26,66.13,0
66,67.23,66.13,0
66,67.21,66.13,0
65,67.16,66.12,0
66,67.14,66.12,0
66,67.12,66.12,0
66,67.09,66.12,0
66,67.07,66.12,0
66,67.05,66.11,0
66,67.03,66.11,0
66,67.01,66.11,0
65,66.97,66.10,0
66,66.95,66.10,0
66,66.93,66.10,0
66,66.91,66.10,0
66,66.89,66.10,0
65,66.86,66.09,0
66,66.84,66.09,0
66,66.82,66.08,0
67,66.83,66.09,0
68,66.85,66.11,0
66,66.83,66.11,0
66,66.82,66.11,0
66,66.80,66.11,0
66,66.78,66.11,0
64,66.73,66.09,0
66,66.71,66.09,0
66,66.70,66.09,0
63,66.62,66.05,0
66,66.61,66.05,0
66,66.60,66.05,0
65,66.57,66.04,0
65,66.54,66.03,0
64,66.49,66.01,0
65,66.46,66.00,0
65,66.43,65.99,0
64,66.38,65.97,0
65,66.35,65.96,0
66,66.34,65.96,0
65,66.32,65.95,0
66,66.31,65.95,0
66,66.30,65.95,0
65,66.28,65.94,0
66,66.27,65.95,0
66,66.27,65.95,0
66,66.26,65.95,0
66,66.26,65.95,0
66,66.25,65.95,0
66,66.25,65.95,0
66,66.24,65.95,0
65,66.22,65.94,0
66,66.21,65.94,0
65,66.19,65.93,0
64,66.14,65.91,0
65,66.12,65.90,0
66,66.12,65.90,0
66,66.12,65.90,0
65,66.09,65.89,0
65,66.07,65.89,0
65,66.05,65.88,0
66,66.05,65.88,0
65,66.03,65.87,0
65,66.01,65.86,0
65,65.99,65.85,0
65,65.97,65.84,0
65,65.95,65.84,0
64,65.91,65.82,0
66,65.91,65.82,0
65,65.89,65.81,0
65,65.88,65.80,0
65,65.86,65.79,0
65,65.84,65.79,0
65,65.82,65.78,0
65,65.81,65.77,0
65,65.79,65.76,0
64,65.76,65.75,0
65,65.74,65.74,0
64,65.71,65.72,0
64,65.67,65.70,0
65,65.66,65.70,0
64,65.63,65.68,0
65,65.61,65.67,0
64,65.58,65.66,0
64,65.55,65.64,0
65,65.54,65.63,0
64,65.51,65.62,0
65,65.50,65.61,0
65,65.49,65.60,0
64,65.46,65.59,0
64,65.43,65.57,0
65,65.42,65.57,0
65,65.41,65.56,0
65,65.40,65.56,0
64,65.38,65.54,0
64,65.35,65.52,0
65,65.34,65.52,0
64,65.31,65.50,0
64,65.29,65.49,0
65,65.28,65.48,0
64,65.26,65.47,0
64,65.23,65.45,0
64,65.21,65.44,0
64,65.18,65.43,0
64,65.16,65.41,0
64,65.14,65.40,0
64,65.11,65.38,0
66,65.13,65.39,0
64,65.11,65.38,0
64,65.09,65.36,0
64,65.06,65.35,0
64,65.04,65.33,0
63,65.00,65.31,0
64,64.98,65.30,0
64,64.96,65.29,0
64,64.94,65.27,0
64,64.92,65.26,0
65,64.93,65.26,0
64,64.91,65.24,0
64,64.89,65.23,0
64,64.87,65.22,0
64,64.85,65.21,0
64,64.84,65.20,0
64,64.82,65.18,0
65,64.82,65.18,0
64,64.81,65.17,0
64,64.79,65.16,0
64,64.78,65.15,0
65,64.78,65.15,0
65,64.78,65.14,0
64,64.77,65.13,0
64,64.75,65.12,0
65,64.76,65.12,0
67,64.80,65.14,0
64,64.79,65.13,0
65,64.79,65.13,0
67,64.84,65.14,0
64,64.82,65.13,0
64,64.80,65.12,0
64,64.79,65.11,0
64,64.77,65.10,0
64,64.75,65.09,0
66,64.78,65.10,0
64,64.76,65.09,0
63,64.73,65.07,0
64,64.71,65.06,0
64,64.70,65.04,0
64,64.69,65.03,0
64,64.67,65.02,0
65,64.68,65.02,0
64,64.67,65.01,0
64,64.65,65.00,0
64,64.64,64.99,0
64,64.63,64.98,0
64,64.61,64.97,0
64,64.60,64.96,0
64,64.59,64.95,0
64,64.58,64.94,0
64,64.57,64.94,0
64,64.55,64.93,0
64,64.54,64.92,0
64,64.53,64.91,0
64,64.52,64.90,0
64,64.51,64.89,0
64,64.50,64.88,0
65,64.51,64.88,0
64,64.50,64.87,0
64,64.49,64.86,0
65,64.50,64.87,0
64,64.49,64.86,0
64,64.48,64.85,0
64,64.47,64.84,0
64,64.46,64.83,0
65,64.47,64.83,0
64,64.46,64.82,0
64,64.45,64.82,0
64,64.45,64.81,0
64,64.44,64.80,0
64,64.43,64.79,0
64,64.42,64.78,0
64,64.41,64.78,0
64,64.40,64.77,0
64,64.39,64.76,0
64,64.39,64.75,0
64,64.38,64.75,0
64,64.37,64.74,0
64,64.36,64.73,0
65,64.38,64.73,0
65,64.39,64.74,0
64,64.38,64.73,0
64,64.37,64.72,0
64,64.37,64.71,0
65,64.38,64.72,0
64,64.37,64.71,0
64,64.36,64.70,0
64,64.36,64.70,0
65,64.37,64.70,0
64,64.36,64.69,0
65,64.37,64.70,0
65,64.39,64.70,0
64,64.38,64.69,0
63,64.35,64.67,0
64,64.35,64.67,0
65,64.36,64.67,0
66,64.39,64.68,0
64,64.38,64.68,0
65,64.40,64.68,0
65,64.41,64.68,0
65,64.42,64.69,0
68,64.49,64.72,0
66,64.52,64.73,0
64,64.51,64.73,0
64,64.50,64.72,0
67,64.55,64.74,0
64,64.54,64.73,0
64,64.53,64.73,0
64,64.52,64.72,0
64,64.51,64.71,0
64,64.50,64.70,0
64,64.49,64.70,0
64,64.48,64.69,0
65,64.49,64.69,0
64,64.48,64.69,0
65,64.49,64.69,0
64,64.48,64.68,0
65,64.49,64.69,0
64,64.48,64.68,0
64,64.47,64.67,0
64,64.46,64.67,0
66,64.49,64.68,0
64,64.48,64.67,0
64,64.47,64.67,0
64,64.46,64.66,0
64,64.45,64.65,0
64,64.44,64.65,0
64,64.44,64.64,0
64,64.43,64.63,0
64,64.42,64.63,0
64,64.41,64.62,0
64,64.40,64.61,0
65,64.41,64.62,0
64,64.41,64.61,0
64,64.40,64.61,0
64,64.39,64.60,0
64,64.38,64.59,0
63,64.35,64.58,0
64,64.35,64.57,0
64,64.34,64.57,0
65,64.35,64.57,0
64,64.35,64.57,0
64,64.34,64.56,0
64,64.33,64.55,0
64,64.33,64.55,0
64,64.32,64.54,0
64,64.31,64.54,0
62,64.27,64.51,0
65,64.28,64.52,0
64,64.28,64.51,0
62,64.23,64.49,0
63,64.21,64.47,0
64,64.20,64.47,0
64,64.20,64.46,0
64,64.19,64.46,0
62,64.15,64.43,0
63,64.13,64.42,0
64,64.12,64.41,0
64,64.12,64.41,0
63,64.10,64.40,0
64,64.10,64.39,0
63,64.08,64.38,0
62,64.03,64.35,0
64,64.03,64.35,0
63,64.01,64.34,0
63,63.99,64.32,0
62,63.95,64.30,0
62,63.91,64.28,0
63,63.90,64.27,0
63,63.88,64.25,0
62,63.84,64.23,0
62,63.80,64.21,0
63,63.79,64.20,0
63,63.77,64.18,0
62,63.74,64.16,0
63,63.72,64.15,0
64,63.73,64.15,0
62,63.69,64.13,0
62,63.66,64.11,0
63,63.64,64.09,0
62,63.61,64.07,0
64,63.62,64.07,0
64,63.63,64.07,0
64,63.63,64.07,0
62,63.60,64.05,0
62,63.57,64.03,0
62,63.54,64.01,0
63,63.53,64.00,0
63,63.52,63.99,0
63,63.51,63.98,0
64,63.52,63.98,0
62,63.49,63.96,0
62,63.46,63.94,0
61,63.41,63.91,0
62,63.38,63.89,0
63,63.37,63.88,0
62,63.34,63.86,0
62,63.32,63.85,0
62,63.29,63.83,0
63,63.29,63.82,0
62,63.26,63.80,0
62,63.23,63.78,0
62,63.21,63.77,0
62,63.19,63.75,0
62,63.16,63.73,0
62,63.14,63.71,0
62,63.12,63.70,0
62,63.09,63.68,0
62,63.07,63.66,0
62,63.05,63.65,0
62,63.03,63.63,0
62,63.01,63.61,0
61,62.97,63.59,0
62,62.95,63.57,0
62,62.93,63.55,0
62,62.91,63.54,0
61,62.87,63.51,0
62,62.86,63.50,0
62,62.84,63.48,0
62,62.82,63.47,0
62,62.81,63.45,0
62,62.79,63.44,0
62,62.77,63.43,0
62,62.76,63.41,0
63,62.76,63.41,0
65,62.81,63.42,0
62,62.79,63.41,0
62,62.78,63.39,0
62,62.76,63.38,0
62,62.75,63.37,0
62,62.73,63.35,0
63,62.74,63.35,0
62,62.72,63.34,0
62,62.71,63.32,0
62,62.69,63.31,0
62,62.68,63.30,0
62,62.66,63.28,0
61,62.63,63.26,0
62,62.62,63.25,0
62,62.61,63.24,0
61,62.57,63.21,0
62,62.56,63.20,0
62,62.55,63.19,0
62,62.54,63.18,0
62,62.53,63.17,0
62,62.52,63.15,0
62,62.51,63.14,0
62,62.50,63.13,0
62,62.49,63.12,0
61,62.46,63.10,0
62,62.45,63.09,0
60,62.40,63.06,0
62,62.39,63.05,0
60,62.34,63.02,0
62,62.34,63.01,0
62,62.33,63.00,0
62,62.32,62.99,0
60,62.28,62.96,0
62,62.27,62.95,0
60,62.23,62.92,0
60,62.18,62.89,0
63,62.20,62.89,0
61,62.18,62.87,0
61,62.15,62.85,0
62,62.15,62.84,0
62,62.15,62.83,0
60,62.10,62.81,0
62,62.10,62.80,0
61,62.08,62.78,0
61,62.06,62.76,0
60,62.02,62.73,0
60,61.98,62.71,0
62,61.98,62.70,0
60,61.94,62.67,0
60,61.90,62.65,0
60,61.86,62.62,0
63,61.88,62.62,0
60,61.84,62.60,0
60,61.81,62.57,0
60,61.77,62.55,0
62,61.78,62.54,0
60,61.74,62.51,0
60,61.71,62.49,0
59,61.65,62.45,0
61,61.64,62.44,0
60,61.61,62.42,0
60,61.57,62.39,0
60,61.54,62.37,0
60,61.51,62.34,0
60,61.48,62.32,0
60,61.45,62.30,0
59,61.40,62.26,0
61,61.39,62.25,0
60,61.37,62.23,0
59,61.32,62.20,0
58,61.25,62.15,0
62,61.27,62.15,0
60,61.24,62.13,0
59,61.20,62.10,0
60,61.17,62.08,0
60,61.15,62.06,0
60,61.13,62.04,0
60,61.10,62.02,0
60,61.08,62.00,0
60,61.06,61.98,0
60,61.04,61.96,0
60,61.02,61.94,0
60,61.00,61.92,0
60,60.98,61.90,0
60,60.96,61.88,0
59,60.92,61.85,0
60,60.90,61.83,0
60,60.88,61.81,0
60,60.87,61.80,0
59,60.83,61.77,0
58,60.77,61.73,0
60,60.76,61.71,0
59,60.72,61.69,0
58,60.67,61.65,0
58,60.61,61.61,0
59,60.58,61.59,0
58,60.53,61.55,0
58,60.48,61.52,0
58,60.43,61.48,0
60,60.42,61.47,0
58,60.37,61.43,0
58,60.33,61.40,0
58,60.28,61.36,0
59,60.25,61.34,0
58,60.21,61.31,0
58,60.16,61.27,0
58,60.12,61.24,0
59,60.10,61.22,0
58,60.06,61.19,0
58,60.02,61.15,0
58,59.97,61.12,0
58,59.94,61.09,0
58,59.90,61.06,0
58,59.86,61.03,0
59,59.84,61.01,0
58,59.80,60.98,0
58,59.77,60.95,0
58,59.73,60.92,0
58,59.70,60.89,0
60,59.70,60.88,0
58,59.67,60.85,0
58,59.64,60.82,0
58,59.60,60.80,0
58,59.57,60.77,0
58,59.54,60.74,0
58,59.51,60.71,0
57,59.46,60.68,0
58,59.43,60.65,0
57,59.38,60.61,0
57,59.33,60.58,0
57,59.29,60.54,0
58,59.26,60.52,0
58,59.24,60.49,0
57,59.19,60.46,0
58,59.17,60.43,0
57,59.12,60.40,0
58,59.10,60.37,0
57,59.06,60.34,0
57,59.02,60.31,0
57,58.98,60.27,0
57,58.94,60.24,0
58,58.92,60.22,0
56,58.86,60.18,0
57,58.82,60.14,0
57,58.79,60.11,0
56,58.73,60.07,0
56,58.68,60.03,0
57,58.64,60.00,0
59,58.65,59.99,0
57,58.62,59.96,0
57,58.59,59.93,0
57,58.55,59.90,0
57,58.52,59.87,0
57,58.49,59.84,0
56,58.44,59.80,0
57,58.41,59.78,0
60,58.45,59.78,0
56,58.40,59.74,0
56,58.35,59.70,0
57,58.32,59.68,0
57,58.30,59.65,0
56,58.25,59.61,0
56,58.20,59.58,0
57,58.18,59.55,0
56,58.14,59.52,0
57,58.11,59.49,0
56,58.07,59.46,0
59,58.09,59.45,0
57,58.07,59.43,0
58,58.07,59.41,0
58,58.07,59.40,0
58,58.06,59.38,0
56,58.02,59.35,0
56,57.98,59.32,0
58,57.98,59.30,0
58,57.98,59.29,0
57,57.96,59.27,0
58,57.96,59.26,0
58,57.97,59.24,0
58,57.97,59.23,0
58,57.97,59.22,0
58,57.97,59.21,0
58,57.97,59.19,0
58,57.97,59.18,0
58,57.97,59.17,0
58,57.97,59.16,0
58,57.97,59.15,0
58,57.97,59.14,0
58,57.97,59.12,0
58,57.97,59.11,0
58,57.97,59.10,0
57,57.95,59.08,0
58,57.95,59.07,0
58,57.96,59.06,0
59,57.98,59.06,0
58,57.98,59.05,0
58,57.98,59.04,0
58,57.98,59.03,0
57,57.96,59.01,0
58,57.96,59.00,0
60,58.00,59.01,0
58,58.00,59.00,0
57,57.98,58.98,0
57,57.96,58.96,0
56,57.92,58.93,0
56,57.88,58.90,0
57,57.86,58.88,0
57,57.85,58.86,0
57,57.83,58.84,0
56,57.79,58.81,0
56,57.76,58.79,0
57,57.74,58.77,0
57,57.73,58.75,0
57,57.71,58.73,0
57,57.70,58.71,0
57,57.69,58.70,0
56,57.65,58.67,0
57,57.64,58.65,0
57,57.63,58.64,0
58,57.63,58.63,0
57,57.62,58.61,0
57,57.61,58.60,0
56,57.58,58.57,0
57,57.56,58.56,0
57,57.55,58.54,0
56,57.52,58.52,0
56,57.49,58.49,0
57,57.48,58.48,0
56,57.45,58.45,0
56,57.42,58.43,0
57,57.41,58.41,0
58,57.43,58.41,0
56,57.40,58.38,0
56,57.37,58.36,0
57,57.36,58.35,0
58,57.38,58.34,0
56,57.35,58.32,0
56,57.32,58.30,0
56,57.29,58.27,0
58,57.31,58.27,0
56,57.28,58.25,0
56,57.26,58.23,0
57,57.25,58.21,0
57,57.25,58.20,0
57,57.24,58.19,0
56,57.22,58.17,0
57,57.21,58.16,0
56,57.19,58.13,0
56,57.16,58.11,0
56,57.14,58.09,0
57,57.14,58.08,0
57,57.14,58.07,0
57,57.13,58.06,0
56,57.11,58.04,0
58,57.13,58.04,0
57,57.13,58.03,0
57,57.12,58.02,0
56,57.10,58.00,0
56,57.08,57.98,0
57,57.08,57.97,0
56,57.06,57.95,0
58,57.07,57.95,0
56,57.05,57.93,0
58,57.07,57.93,0
56,57.05,57.91,0
58,57.07,57.91,0
57,57.07,57.90,0
57,57.07,57.89,0
56,57.05,57.87,0
58,57.06,57.88,0
57,57.06,57.87,0
58,57.08,57.87,0
58,57.10,57.87,0
58,57.12,57.87,0
57,57.12,57.86,0
58,57.13,57.86,0
58,57.15,57.86,0
58,57.17,57.87,0
57,57.16,57.86,0
57,57.16,57.85,0
56,57.14,57.83,0
56,57.12,57.81,0
57,57.11,57.80,0
56,57.09,57.79,0
56,57.07,57.77,0
57,57.07,57.76,0
57,57.07,57.75,0
56,57.04,57.74,0
57,57.04,57.73,0
57,57.04,57.72,0
56,57.02,57.70,0
57,57.02,57.70,0
57,57.02,57.69,0
58,57.04,57.69,0
57,57.04,57.69,0
55,57.00,57.66,0
57,57.00,57.65,0
57,57.00,57.65,0
58,57.02,57.65,0
58,57.04,57.65,0
57,57.04,57.65,0
57,57.04,57.64,0
57,57.04,57.63,0
58,57.06,57.64,0
58,57.07,57.64,0
58,57.09,57.64,0
58,57.11,57.65,0
57,57.11,57.64,0
58,57.13,57.64,0
58,57.14,57.65,0
58,57.16,57.65,0
60,57.22,57.68,0
57,57.21,57.67,0
58,57.23,57.67,0
58,57.25,57.68,0
58,57.26,57.68,0
58,57.27,57.68,0
58,57.29,57.69,0
58,57.30,57.69,0
57,57.30,57.68,0
57,57.29,57.67,0
58,57.31,57.68,0
58,57.32,57.68,0
57,57.31,57.67,0
58,57.33,57.68,0
58,57.34,57.68,0
58,57.35,57.68,0
58,57.37,57.69,0
58,57.38,57.69,0
58,57.39,57.69,0
58,57.40,57.70,0
57,57.40,57.69,0
58,57.41,57.69,0
58,57.42,57.70,0
58,57.43,57.70,0
58,57.44,57.70,0
58,57.45,57.70,0
57,57.44,57.70,0
58,57.46,57.70,0
58,57.47,57.70,0
58,57.48,57.71,0
58,57.49,57.71,0
58,57.50,57.71,0
58,57.51,57.72,0
60,57.56,57.74,0
58,57.57,57.74,0
58,57.58,57.74,0
58,57.58,57.75,0
58,57.59,57.75,0
58,57.60,57.75,0
58,57.61,57.75,0
59,57.64,57.77,0
60,57.68,57.79,0
58,57.69,57.79,0
58,57.70,57.79,0
59,57.72,57.80,0
62,57.81,57.85,0
58,57.81,57.85,0
60,57.86,57.87,0
58,57.86,57.87,0
58,57.86,57.87,0
58,57.86,57.87,0
58,57.87,57.87,0
58,57.87,57.88,0
58,57.87,57.88,0
58,57.87,57.88,0
58,57.88,57.88,0
58,57.88,57.88,0
57,57.86,57.87,0
58,57.86,57.87,0
59,57.89,57.88,0
61,57.95,57.92,0
58,57.95,57.92,0
59,57.97,57.93,0
59,57.99,57.94,0
59,58.01,57.95,0
58,58.01,57.95,0
58,58.01,57.95,0
58,58.01,57.95,0
60,58.05,57.97,0
59,58.07,57.98,0
60,58.11,58.00,0
59,58.13,58.01,0
59,58.14,58.02,0
59,58.16,58.03,0
58,58.16,58.03,0
59,58.17,58.04,0
59,58.19,58.05,0
59,58.21,58.06,0
60,58.24,58.08,0
58,58.24,58.08,0
60,58.27,58.10,0
60,58.31,58.12,0
59,58.32,58.13,0
60,58.36,58.14,0
60,58.39,58.16,0
60,58.42,58.18,0
60,58.45,58.20,0
58,58.44,58.20,0
61,58.49,58.23,0
60,58.52,58.24,0
59,58.53,58.25,0
56,58.48,58.23,0
61,58.53,58.26,0
60,58.56,58.27,0
58,58.55,58.27,0
59,58.56,58.28,0
60,58.59,58.29,0
59,58.60,58.30,0
59,58.61,58.31,0
58,58.59,58.31,0
60,58.62,58.32,0
59,58.63,58.33,0
58,58.62,58.33,0
59,58.62,58.33,0
60,58.65,58.35,0
59,58.66,58.36,0
58,58.65,58.35,0
58,58.63,58.35,0
60,58.66,58.37,0
59,58.67,58.37,0
60,58.69,58.39,0
61,58.74,58.41,0
60,58.77,58.43,0
63,58.85,58.48,0
58,58.83,58.47,0
60,58.86,58.49,0
59,58.86,58.49,0
59,58.86,58.50,0
60,58.88,58.51,0
60,58.91,58.53,0
59,58.91,58.53,0
58,58.89,58.53,0
60,58.91,58.54,0
60,58.93,58.56,0
59,58.94,58.56,0
60,58.96,58.57,0
60,58.98,58.59,0
60,59.00,58.60,0
60,59.02,58.62,0
58,59.00,58.61,0
60,59.02,58.62,0
59,59.02,58.63,0
59,59.02,58.63,0
60,59.04,58.65,0
60,59.06,58.66,0
60,59.08,58.67,0
59,59.07,58.68,0
60,59.09,58.69,0
60,59.11,58.70,0
59,59.11,58.70,0
60,59.13,58.72,0
63,59.20,58.76,0
61,59.24,58.78,0
61,59.27,58.81,0
63,59.35,58.85,0
60,59.36,58.86,0
60,59.37,58.87,0
61,59.41,58.89,0
61,59.44,58.91,0
62,59.49,58.94,0
61,59.52,58.96,0
62,59.57,58.99,0
61,59.60,59.01,0
64,59.69,59.06,0
62,59.73,59.09,0
62,59.78,59.12,0
63,59.84,59.16,0
64,59.93,59.21,0
62,59.97,59.24,0
62,60.01,59.27,0
61,60.03,59.28,0
63,60.09,59.32,0
63,60.15,59.36,0
62,60.18,59.38,0
63,60.24,59.42,0
64,60.31,59.47,0
62,60.35,59.49,0
63,60.40,59.53,0
63,60.45,59.56,0
63,60.50,59.59,0
64,60.57,59.64,0
63,60.62,59.67,0
63,60.67,59.71,0
63,60.72,59.74,0
62,60.74,59.76,0
62,60.77,59.78,0
63,60.81,59.82,0
64,60.88,59.86,0
64,60.94,59.90,0
62,60.96,59.92,0
63,61.00,59.95,0
63,61.04,59.98,0
63,61.08,60.01,0
63,61.12,60.04,0
63,61.16,60.07,0
63,61.19,60.10,0
64,61.25,60.14,0
63,61.28,60.17,0
63,61.32,60.20,0
64,61.37,60.23,0
64,61.42,60.27,0
64,61.48,60.31,0
63,61.51,60.34,0
64,61.56,60.37,0
64,61.60,60.41,0
64,61.65,60.44,0
64,61.70,60.48,0
64,61.75,60.52,0
68,61.87,60.59,0
65,61.93,60.63,0
65,61.99,60.68,0
64,62.03,60.71,0
64,62.07,60.74,0
64,62.11,60.78,0
66,62.19,60.83,0
64,62.23,60.86,0
64,62.26,60.89,0
65,62.32,60.93,0
65,62.37,60.97,0
67,62.46,61.03,0
64,62.49,61.06,0
64,62.52,61.09,0
65,62.57,61.13,0
66,62.64,61.18,0
64,62.67,61.21,0
65,62.72,61.25,0
66,62.78,61.29,0
66,62.85,61.34,0
66,62.91,61.39,0
66,62.97,61.43,0
68,63.07,61.50,0
65,63.11,61.54,0
66,63.17,61.58,0
67,63.24,61.63,0
67,63.32,61.69,0
66,63.37,61.73,0
68,63.47,61.79,0
67,63.54,61.85,0
67,63.61,61.90,0
68,63.69,61.96,0
68,63.78,62.02,0
67,63.84,62.07,0
68,63.93,62.13,0
69,64.03,62.20,0
67,64.09,62.24,0
67,64.15,62.29,0
68,64.22,62.35,0
69,64.32,62.42,0
68,64.39,62.47,0
68,64.46,62.53,0
69,64.56,62.59,0
68,64.62,62.65,0
68,64.69,62.70,0
68,64.76,62.75,0
69,64.84,62.81,0
69,64.93,62.88,0
70,65.03,62.95,0
70,65.13,63.02,0
69,65.20,63.08,0
69,65.28,63.14,0
70,65.37,63.21,0
70,65.47,63.27,0
70,65.56,63.34,0
72,65.69,63.43,0
70,65.77,63.49,0
70,65.86,63.56,0
71,65.96,63.63,0
71,66.06,63.71,0
70,66.14,63.77,0
70,66.22,63.83,0
71,66.31,63.90,0
71,66.41,63.97,0
70,66.48,64.03,0
70,66.55,64.09,0
73,66.68,64.18,0
71,66.76,64.25,0
71,66.85,64.32,0
72,66.95,64.40,0
72,67.05,64.47,0
71,67.13,64.54,0
70,67.19,64.59,0
72,67.29,64.67,0
71,67.36,64.73,0
71,67.43,64.79,0
70,67.48,64.84,0
70,67.53,64.90,0
72,67.62,64.97,0
73,67.73,65.05,0
74,67.86,65.14,0
72,67.94,65.21,0
73,68.04,65.28,0
74,68.16,65.37,0
75,68.30,65.47,0
74,68.41,65.55,0
75,68.54,65.65,0
76,68.69,65.75,0
76,68.84,65.85,0
76,68.98,65.95,0
75,69.10,66.04,0
76,69.24,66.14,0
76,69.37,66.24,0
76,69.51,66.34,0
77,69.66,66.45,0
77,69.80,66.55,0
78,69.97,66.67,0
78,70.13,66.78,0
78,70.29,66.89,0
76,70.40,66.98,0
79,70.57,67.10,0
79,70.74,67.22,0
81,70.95,67.36,0
80,71.13,67.49,0
79,71.28,67.60,0
79,71.44,67.72,0
79,71.59,67.83,0
79,71.74,67.94,0
79,71.88,68.05,0
79,72.03,68.16,0
82,72.23,68.30,0
79,72.36,68.41,0
79,72.49,68.51,0
79,72.62,68.62,0
81,72.79,68.74,0
81,72.96,68.86,0
79,73.08,68.96,0
80,73.21,69.07,0
81,73.37,69.19,0
80,73.50,69.30,0
80,73.63,69.41,0
79,73.74,69.50,0
80,73.87,69.61,0
82,74.03,69.73,0
80,74.15,69.84,0
80,74.26,69.94,0
80,74.38,70.04,0
81,74.51,70.15,0
80,74.62,70.25,0
80,74.73,70.34,0
81,74.85,70.45,0
79,74.94,70.54,0
80,75.04,70.63,0
80,75.14,70.72,0
82,75.28,70.84,0
82,75.41,70.95,0
82,75.54,71.06,0
82,75.67,71.17,0
84,75.84,71.30,0
84,76.00,71.42,0
86,76.20,71.57,0
86,76.40,71.71,0
86,76.59,71.86,0
86,76.78,72.00,0
86,76.96,72.14,0
86,77.14,72.28,0
88,77.36,72.43,0
87,77.55,72.58,0
86,77.72,72.71,0
88,77.93,72.87,0
88,78.13,73.02,0
87,78.31,73.16,0
88,78.50,73.31,0
86,78.65,73.43,0
88,78.84,73.58,0
88,79.02,73.72,0
90,79.24,73.89,0
90,79.45,74.05,0
89,79.65,74.20,0
89,79.83,74.35,0
88,80.00,74.48,0
90,80.20,74.64,0
90,80.39,74.79,0
90,80.58,74.94,0
94,80.85,75.13,0
92,81.08,75.30,0
92,81.29,75.47,0
92,81.51,75.63,0
93,81.74,75.81,0
94,81.98,75.99,0
95,82.24,76.18,0
96,82.52,76.38,0
96,82.79,76.57,0
96,83.05,76.77,0
95,83.29,76.95,0
94,83.51,77.12,0
95,83.74,77.30,0
94,83.94,77.47,0
96,84.18,77.65,0
96,84.42,77.84,0
96,84.65,78.02,0
96,84.88,78.20,0
98,85.14,78.40,0
96,85.36,78.57,0
97,85.59,78.76,0
97,85.82,78.94,0
98,86.06,79.13,0
97,86.28,79.31,0
100,86.55,79.51,0
100,86.82,79.72,0
102,87.13,79.94,0
104,87.46,80.18,0
103,87.78,80.41,0
102,88.06,80.63,0
103,88.36,80.85,0
105,88.69,81.09,0
108,89.08,81.36,0
109,89.48,81.64,0
109,89.87,81.91,0
110,90.27,82.19,0
112,90.70,82.49,0
115,91.19,82.82,0
115,91.67,83.14,0
116,92.15,83.47,0
116,92.63,83.79,0
115,93.08,84.10,0
116,93.54,84.42,0
116,93.98,84.74,0
117,94.44,85.06,0
117,94.90,85.38,0
116,95.32,85.69,0
117,95.75,86.00,0
117,96.18,86.31,0
117,96.59,86.62,0
118,97.02,86.93,0
119,97.46,87.25,0
120,97.91,87.58,0
120,98.35,87.90,0
121,98.81,88.23,0
120,99.23,88.55,0
121,99.67,88.88,0
121,100.09,89.20,0
121,100.51,89.51,0
122,100.94,89.84,0
121,101.34,90.15,0
120,101.71,90.45,0
122,102.12,90.77,0
122,102.52,91.08,0
123,102.93,91.40,0
122,103.31,91.70,0
125,103.74,92.04,0
128,104.23,92.40,0
127,104.68,92.74,0
126,105.11,93.07,0
127,105.55,93.41,0
130,106.04,93.78,0
132,106.56,94.16,0
132,107.06,94.54,0
132,107.56,94.91,0
131,108.03,95.28,0
132,108.51,95.64,0
131,108.96,96.00,0
132,109.42,96.36,0
132,109.87,96.71,0
132,110.32,97.07,0
132,110.75,97.41,0
132,111.17,97.76,0
132,111.59,98.10,0
132,112.00,98.44,0
134,112.44,98.80,0
134,112.87,99.15,0
133,113.27,99.49,0
135,113.71,99.84,0
134,114.11,100.18,0
134,114.51,100.52,0
134,114.90,100.86,0
134,115.28,101.19,0
135,115.68,101.53,0
135,116.06,101.86,0
135,116.44,102.19,0
135,116.81,102.52,0
134,117.16,102.84,0
136,117.53,103.17,0
136,117.90,103.50,0
137,118.29,103.83,0
137,118.66,104.16,0
137,119.03,104.49,0
139,119.43,104.84,0
139,119.82,105.18,0
137,120.16,105.50,0
138,120.52,105.82,0
137,120.85,106.13,0
139,121.21,106.46,0
139,121.57,106.79,0
139,121.92,107.11,0
139,122.26,107.43,0
138,122.57,107.73,0
138,122.88,108.04,0
140,123.22,108.36,0
139,123.54,108.66,0
140,123.87,108.98,0
139,124.17,109.28,0
139,124.47,109.57,0
140,124.78,109.88,0
141,125.10,110.19,0
141,125.42,110.50,0
143,125.77,110.82,0
144,126.14,111.15,0
143,126.47,111.47,0
144,126.82,111.80,0
146,127.21,112.14,0
145,127.56,112.47,0
145,127.91,112.79,0
145,128.25,113.12,0
145,128.59,113.43,0
145,128.92,113.75,0
145,129.24,114.06,0
146,129.57,114.38,0
146,129.90,114.70,0
146,130.22,115.01,0
149,130.60,115.35,0
149,130.97,115.69,0
151,131.37,116.04,0
151,131.76,116.39,0
151,132.15,116.74,0
153,132.56,117.10,0
153,132.97,117.46,0
153,133.37,117.81,0
154,133.78,118.18,0
154,134.19,118.53,0
155,134.61,118.90,0
156,135.03,119.27,0
157,135.47,119.65,0
157,135.90,120.02,0
157,136.33,120.39,0
157,136.74,120.76,0
157,137.14,121.12,0
157,137.54,121.48,0
157,137.93,121.83,0
157,138.31,122.18,0
158,138.71,122.54,0
159,139.11,122.91,0
161,139.55,123.29,0
163,140.02,123.68,0
161,140.44,124.06,0
164,140.91,124.46,0
167,141.43,124.88,0
169,141.98,125.32,0
169,142.52,125.76,0
169,143.05,126.19,0
171,143.61,126.64,0
170,144.14,127.07,0
169,144.64,127.49,0
172,145.18,127.94,0
172,145.72,128.38,0
171,146.23,128.81,0
173,146.76,129.25,0
175,147.33,129.71,0
175,147.88,130.16,0
175,148.42,130.61,0
176,148.97,131.06,0
175,149.49,131.50,0
177,150.04,131.96,0
177,150.58,132.41,0
177,151.11,132.85,0
179,151.67,133.31,0
179,152.22,133.77,0
179,152.75,134.22,0
177,153.24,134.65,0
177,153.71,135.07,0
177,154.18,135.49,0
177,154.63,135.91,0
177,155.08,136.32,0
179,155.56,136.75,0
178,156.01,137.16,0
179,156.47,137.58,0
182,156.98,138.02,0
183,157.50,138.47,0
184,158.03,138.93,0
185,158.57,139.39,0
188,159.16,139.87,0
191,159.79,140.38,0
194,160.48,140.92,0
193,161.13,141.44,0
193,161.77,141.96,0
193,162.39,142.47,0
194,163.02,142.98,0
193,163.62,143.48,0
194,164.23,143.99,0
193,164.81,144.48,0
193,165.37,144.96,0
193,165.92,145.44,0
193,166.46,145.92,0
193,166.99,146.39,0
193,167.51,146.86,0
194,168.04,147.33,0
193,168.54,147.78,0
193,169.03,148.24,0
193,169.51,148.68,0
195,170.02,149.15,0
195,170.52,149.61,0
197,171.05,150.08,0
197,171.57,150.55,0
197,172.08,151.01,0
199,172.62,151.49,0
199,173.14,151.97,0
200,173.68,152.45,0
199,174.19,152.91,0
201,174.72,153.39,0
202,175.27,153.88,0
204,175.84,154.38,0
204,176.41,154.88,0
204,176.96,155.37,0
206,177.54,155.88,0
208,178.15,156.40,0
208,178.75,156.91,0
207,179.31,157.41,0
207,179.87,157.91,0
209,180.45,158.42,0
208,181.00,158.92,0
208,181.54,159.41,0
207,182.05,159.88,0
207,182.55,160.35,0
207,183.04,160.82,0
207,183.52,161.28,0
205,183.95,161.72,0
205,184.37,162.15,0
205,184.78,162.58,0
205,185.18,163.01,0
205,185.58,163.43,0
204,185.95,163.83,0
205,186.33,164.24,0
202,186.64,164.62,0
204,186.99,165.01,0
203,187.31,165.39,0
204,187.64,165.78,0
204,187.97,166.16,0
204,188.29,166.54,0
203,188.59,166.91,0
203,188.87,167.27,0
202,189.14,167.61,0
203,189.41,167.97,0
201,189.65,168.30,0
201,189.87,168.62,0
201,190.10,168.95,0
201,190.31,169.27,0
201,190.53,169.59,0
200,190.72,169.89,0
201,190.92,170.20,0
200,191.10,170.50,0
200,191.28,170.79,0
199,191.44,171.08,0
200,191.61,171.37,0
199,191.76,171.64,0
199,191.90,171.92,0
198,192.02,172.18,0
199,192.16,172.44,0
199,192.30,172.71,0
199,192.43,172.97,0
197,192.52,173.21,0
198,192.63,173.46,0
198,192.74,173.71,0
197,192.83,173.94,0
197,192.91,174.17,0
196,192.97,174.39,0
196,193.03,174.60,0
196,193.09,174.82,0
196,193.15,175.03,0
196,193.21,175.24,0
195,193.24,175.44,0
195,193.28,175.63,0
198,193.37,175.86,0
194,193.38,176.04,0
193,193.38,176.21,0
194,193.39,176.39,0
194,193.40,176.56,0
193,193.39,176.73,0
193,193.39,176.89,0
193,193.38,177.05,0
194,193.39,177.22,0
192,193.36,177.37,0
193,193.36,177.52,0
193,193.35,177.68,0
191,193.30,177.81,0
192,193.28,177.95,0
192,193.25,178.09,0
191,193.20,178.22,0
191,193.16,178.35,0
191,193.12,178.48,0
190,193.05,178.59,0
191,193.01,178.72,0
190,192.95,178.83,0
190,192.89,178.94,0
189,192.82,179.04,0
187,192.70,179.12,0
189,192.63,179.22,0
190,192.57,179.33,0
189,192.50,179.42,0
189,192.43,179.52,0
188,192.34,179.61,0
188,192.26,179.69,0
188,192.17,179.77,0
188,192.09,179.85,0
187,191.99,179.93,0
186,191.87,179.99,0
185,191.73,180.04,0
186,191.61,180.10,0
187,191.52,180.17,0
185,191.39,180.21,0
186,191.28,180.27,0
185,191.16,180.32,0
186,191.06,180.38,0
185,190.93,180.42,0
185,190.82,180.47,0
184,190.68,180.50,0
184,190.55,180.54,0
184,190.41,180.57,0
184,190.29,180.61,0
183,190.14,180.63,0
183,190.00,180.65,0
182,189.84,180.67,0
182,189.68,180.68,0
183,189.55,180.70,0
182,189.40,180.72,0
181,189.23,180.72,0
181,189.06,180.72,0
182,188.92,180.74,0
181,188.76,180.74,0
182,188.63,180.75,0
181,188.48,180.75,0
181,188.33,180.76,0
180,188.16,180.75,0
180,188.00,180.74,0
180,187.84,180.73,0
181,187.70,180.74,0
179,187.53,180.72,0
180,187.38,180.71,0
179,187.21,180.69,0
178,187.02,180.67,0
179,186.86,180.65,0
179,186.71,180.63,0
178,186.53,180.61,0
178,186.36,180.58,0
178,186.19,180.56,0
177,186.01,180.52,0
177,185.83,180.49,0
177,185.65,180.45,0
177,185.48,180.42,0
177,185.31,180.38,0
177,185.14,180.35,0
175,184.94,180.30,0
177,184.78,180.26,0
175,184.59,180.21,0
175,184.40,180.16,0
175,184.21,180.11,0
175,184.02,180.05,0
173,183.80,179.98,0
174,183.61,179.92,0
174,183.42,179.87,0
173,183.21,179.80,0
175,183.04,179.75,0
173,182.84,179.68,0
173,182.64,179.61,0
173,182.45,179.55,0
172,182.24,179.47,0
173,182.06,179.41,0
171,181.84,179.32,0
171,181.62,179.24,0
172,181.43,179.17,0
171,181.22,179.09,0
172,181.03,179.02,0
171,180.83,178.94,0
170,180.62,178.85,0
170,180.41,178.76,0
172,180.24,178.69,0
170,180.03,178.60,0
170,179.83,178.52,0
171,179.66,178.44,0
170,179.46,178.36,0
171,179.29,178.28,0
169,179.09,178.19,0
169,178.89,178.10,0
170,178.71,178.02,0
171,178.55,177.95,0
170,178.38,177.87,0
169,178.19,177.78,0
169,178.01,177.69,0
169,177.83,177.61,0
169,177.65,177.52,0
170,177.50,177.44,1
169,177.33,177.36,1
170,177.18,177.29,2
168,177.00,177.19,2
168,176.82,177.10,2
168,176.64,177.01,2
168,176.47,176.92,2
168,176.30,176.83,2
168,176.14,176.74,2
168,175.97,176.66,2
167,175.79,176.56,2
168,175.64,176.47,2
167,175.47,176.38,2
168,175.32,176.29,2
167,175.15,176.20,2
167,174.99,176.11,2
167,174.83,176.02,2
167,174.67,175.93,2
166,174.50,175.83,2
167,174.35,175.74,2
165,174.16,175.63,2
165,173.98,175.53,2
165,173.80,175.42,2
166,173.64,175.33,2
165,173.47,175.22,2
165,173.30,175.12,2
165,173.13,175.02,2
165,172.97,174.92,2
165,172.81,174.82,2
165,172.65,174.72,2
166,172.52,174.64,2
167,172.41,174.56,2
166,172.28,174.47,2
165,172.14,174.38,2
165,171.99,174.29,2
165,171.85,174.19,2
165,171.72,174.10,2
165,171.58,174.01,2
165,171.45,173.92,2
164,171.30,173.82,2
165,171.18,173.73,2
164,171.03,173.63,2
164,170.89,173.54,2
165,170.77,173.45,2
163,170.62,173.35,2
163,170.47,173.24,2
163,170.32,173.14,2
162,170.15,173.03,2
162,169.99,172.92,2
162,169.83,172.81,2
162,169.67,172.70,2
161,169.50,172.59,2
161,169.33,172.47,2
161,169.16,172.36,2
161,169.00,172.24,2
161,168.84,172.13,2
160,168.66,172.01,2
161,168.51,171.90,2
160,168.34,171.78,2
161,168.19,171.67,2
160,168.03,171.55,2
159,167.85,171.43,2
161,167.71,171.33,2
159,167.54,171.20,2
159,167.37,171.08,2
158,167.18,170.95,2
159,167.01,170.83,2
158,166.83,170.70,2
158,166.66,170.57,2
157,166.46,170.44,2
158,166.30,170.31,2
157,166.11,170.18,2
157,165.93,170.05,2
157,165.75,169.92,2
158,165.59,169.80,2
157,165.42,169.67,2
157,165.25,169.54,2
157,165.09,169.42,2
157,164.93,169.30,2
157,164.77,169.17,2
156,164.59,169.04,2
156,164.42,168.91,2
156,164.25,168.78,2
156,164.09,168.65,2
155,163.91,168.52,2
156,163.75,168.39,2
155,163.57,168.26,2
155,163.40,168.13,2
156,163.25,168.00,2
156,163.11,167.88,2
154,162.93,167.74,2
154,162.75,167.61,2
153,162.55,167.46,2
154,162.38,167.33,2
153,162.19,167.18,2
154,162.03,167.05,2
153,161.85,166.91,2
155,161.71,166.79,2
153,161.54,166.65,2
153,161.37,166.52,2
153,161.20,166.38,2
153,161.04,166.25,2
153,160.88,166.12,2
153,160.72,165.98,2
152,160.54,165.85,2
152,160.37,165.71,2
152,160.20,165.57,2
151,160.02,165.42,2
152,159.86,165.29,2
151,159.68,165.15,2
151,159.51,165.01,2
151,159.34,164.87,2
151,159.17,164.73,2
151,159.01,164.59,2
151,158.85,164.45,2
151,158.69,164.32,2
149,158.50,164.17,2
151,158.35,164.03,2
150,158.18,163.89,2
151,158.04,163.76,2
151,157.90,163.64,2
151,157.76,163.51,2
150,157.60,163.38,2
151,157.47,163.25,2
151,157.34,163.13,2
151,157.22,163.01,2
149,157.05,162.87,2
151,156.93,162.75,2
150,156.79,162.62,2
150,156.66,162.50,2
150,156.52,162.37,2
149,156.37,162.24,2
149,156.22,162.10,2
149,156.08,161.97,2
149,155.94,161.84,2
149,155.80,161.72,2
150,155.68,161.60,2
149,155.55,161.47,2
149,155.42,161.35,2
147,155.25,161.20,2
149,155.13,161.08,2
147,154.96,160.94,2
149,154.84,160.82,2
147,154.69,160.68,2
147,154.53,160.55,2
147,154.38,160.41,2
147,154.24,160.28,2
147,154.09,160.14,2
147,153.95,160.01,2
147,153.81,159.88,2
146,153.65,159.74,2
147,153.52,159.62,2
147,153.39,159.49,2
146,153.24,159.36,2
145,153.08,159.21,2
145,152.92,159.07,2
145,152.76,158.93,2
145,152.60,158.79,2
145,152.45,158.65,2
143,152.26,158.50,2
144,152.10,158.35,2
144,151.93,158.21,2
144,151.78,158.06,2
145,151.64,157.93,2
144,151.49,157.79,2
145,151.36,157.67,2
145,151.23,157.54,2
144,151.09,157.40,2
143,150.92,157.26,2
144,150.79,157.13,2
144,150.65,157.00,2
144,150.52,156.87,2
145,150.41,156.75,2
143,150.26,156.61,2
143,150.11,156.47,2
143,149.97,156.34,2
143,149.83,156.21,2
143,149.69,156.07,2
143,149.56,155.94,2
142,149.41,155.80,2
145,149.32,155.70,2
141,149.16,155.55,2
141,148.99,155.40,2
141,148.83,155.26,2
141,148.68,155.12,2
141,148.52,154.98,2
141,148.37,154.84,2
141,148.22,154.70,2
140,148.06,154.55,2
140,147.90,154.41,2
139,147.72,154.25,2
141,147.59,154.12,2
139,147.41,153.97,2
139,147.25,153.82,2
139,147.08,153.67,2
140,146.94,153.53,2
137,146.74,153.37,2
139,146.59,153.22,2
139,146.43,153.08,2
139,146.29,152.94,2
139,146.14,152.80,2
139,146.00,152.66,2
138,145.84,152.52,2
137,145.66,152.36,2
137,145.49,152.21,2
137,145.32,152.06,2
137,145.15,151.91,2
137,144.99,151.76,2
137,144.83,151.61,2
137,144.67,151.46,2
136,144.50,151.31,2
136,144.33,151.16,2
137,144.18,151.01,2
136,144.02,150.86,2
137,143.88,150.72,2
136,143.72,150.58,2
136,143.57,150.43,2
136,143.41,150.29,2
135,143.25,150.13,2
135,143.08,149.98,2
135,142.92,149.83,2
135,142.76,149.69,2
135,142.61,149.54,2
133,142.41,149.37,2
135,142.27,149.23,2
135,142.12,149.09,2
135,141.98,148.95,2
135,141.84,148.81,2
134,141.68,148.66,2
135,141.55,148.52,2
134,141.40,148.38,2
135,141.27,148.24,2
135,141.14,148.11,2
133,140.98,147.96,2
134,140.84,147.82,2
134,140.70,147.68,2
133,140.55,147.53,2
135,140.44,147.41,2
133,140.29,147.27,2
133,140.14,147.12,2
134,140.02,146.99,2
133,139.88,146.85,2
133,139.74,146.71,2
133,139.61,146.58,2
133,139.48,146.44,2
133,139.35,146.31,2
133,139.22,146.17,2
133,139.10,146.04,2
133,138.97,145.91,2
132,138.83,145.77,2
133,138.72,145.64,2
131,138.56,145.50,2
132,138.43,145.36,2
131,138.28,145.22,2
131,138.14,145.08,2
132,138.02,144.95,2
131,137.87,144.81,2
131,137.74,144.67,2
131,137.60,144.53,2
131,137.47,144.40,2
131,137.34,144.26,2
129,137.17,144.11,2
129,137.01,143.96,2
130,136.87,143.82,2
130,136.73,143.68,2
129,136.58,143.53,2
129,136.43,143.39,2
130,136.30,143.25,2
129,136.15,143.11,2
129,136.01,142.97,2
129,135.87,142.83,2
129,135.73,142.69,2
129,135.60,142.56,2
129,135.47,142.42,2
128,135.32,142.28,2
127,135.15,142.12,2
127,134.99,141.97,2
128,134.85,141.83,2
127,134.69,141.68,2
127,134.54,141.54,2
127,134.39,141.39,2
127,134.24,141.25,2
127,134.09,141.11,2
127,133.95,140.96,2
127,133.81,140.83,2
127,133.68,140.69,2
127,133.54,140.55,2
127,133.41,140.41,2
127,133.28,140.28,2
127,133.16,140.15,2
127,133.03,140.02,2
127,132.91,139.89,2
127,132.80,139.76,2
126,132.66,139.62,2
125,132.51,139.47,2
125,132.36,139.33,2
125,132.21,139.19,2
125,132.06,139.04,2
125,131.92,138.90,2
125,131.79,138.76,2
125,131.65,138.63,2
125,131.52,138.49,2
124,131.37,138.35,2
125,131.24,138.21,2
125,131.11,138.08,2
124,130.97,137.94,2
123,130.81,137.79,2
125,130.70,137.66,2
123,130.54,137.51,2
125,130.43,137.39,2
124,130.30,137.26,2
124,130.18,137.12,2
124,130.05,136.99,2
123,129.91,136.85,2
123,129.77,136.71,2
122,129.62,136.57,2
124,129.51,136.44,2
123,129.38,136.31,2
121,129.21,136.15,2
123,129.08,136.02,2
122,128.94,135.88,2
122,128.80,135.74,2
123,128.69,135.62,2
122,128.55,135.48,2
121,128.40,135.33,2
121,128.25,135.19,2
121,128.11,135.05,2
121,127.97,134.91,2
122,127.85,134.78,2
120,127.69,134.63,2
121,127.56,134.50,2
121,127.43,134.36,2
121,127.30,134.23,2
121,127.17,134.09,2
120,127.03,133.95,2
121,126.91,133.82,2
120,126.77,133.69,2
120,126.63,133.55,2
119,126.48,133.40,2
119,126.33,133.26,2
119,126.19,133.12,2
119,126.04,132.98,2
119,125.90,132.84,2
119,125.76,132.70,2
118,125.61,132.55,2
118,125.46,132.41,2
118,125.31,132.26,2
118,125.16,132.12,2
117,125.00,131.97,2
117,124.84,131.82,2
118,124.70,131.68,2
117,124.55,131.53,2
118,124.42,131.40,2
118,124.29,131.26,2
117,124.14,131.12,2
117,124.00,130.98,2
117,123.86,130.84,2
116,123.70,130.69,2
117,123.57,130.55,2
116,123.42,130.41,2
116,123.27,130.26,2
115,123.10,130.11,2
116,122.96,129.97,2
115,122.80,129.82,2
116,122.66,129.68,2
115,122.51,129.54,2
115,122.36,129.39,2
115,122.21,129.25,2
115,122.07,129.10,2
115,121.93,128.96,2
116,121.81,128.83,2
115,121.67,128.70,2
114,121.52,128.55,2
114,121.37,128.40,2
113,121.20,128.25,2
114,121.06,128.11,2
114,120.92,127.97,2
113,120.76,127.82,2
113,120.60,127.67,2
113,120.45,127.52,2
113,120.30,127.38,2
113,120.16,127.23,2
113,120.01,127.09,2
113,119.87,126.95,2
115,119.78,126.83,2
113,119.64,126.69,2
112,119.49,126.54,2
112,119.34,126.40,2
112,119.19,126.25,2
112,119.05,126.11,2
111,118.89,125.96,2
111,118.73,125.81,2
112,118.59,125.67,2
111,118.44,125.53,2
111,118.29,125.38,2
111,118.15,125.24,2
111,118.00,125.10,2
111,117.86,124.95,2
111,117.73,124.81,2
111,117.59,124.68,2
112,117.48,124.55,2
111,117.35,124.41,2
111,117.22,124.28,2
110,117.08,124.14,2
109,116.92,123.99,2
109,116.76,123.84,2
109,116.60,123.69,2
110,116.47,123.55,2
110,116.34,123.42,2
110,116.22,123.28,2
110,116.09,123.15,2
109,115.95,123.01,2
109,115.81,122.87,2
109,115.67,122.73,2
109,115.54,122.59,2
110,115.43,122.46,2
109,115.30,122.33,2
109,115.18,122.20,2
109,115.05,122.06,2
109,114.93,121.93,2
109,114.81,121.80,2
109,114.70,121.68,2
109,114.58,121.55,2
109,114.47,121.42,2
107,114.32,121.28,2
110,114.23,121.17,2
109,114.13,121.05,2
108,114.01,120.92,2
109,113.91,120.80,2
107,113.77,120.66,2
108,113.65,120.53,2
107,113.52,120.40,2
108,113.41,120.27,2
108,113.30,120.15,2
108,113.20,120.03,2
107,113.07,119.90,2
108,112.97,119.78,2
107,112.85,119.65,2
108,112.75,119.53,2
108,112.66,119.42,2
108,112.57,119.31,2
107,112.45,119.18,2
108,112.37,119.07,2
107,112.26,118.95,2
107,112.15,118.83,2
107,112.05,118.71,2
107,111.95,118.59,2
107,111.85,118.48,2
106,111.73,118.35,2
106,111.62,118.23,2
106,111.51,118.11,2
105,111.38,117.98,2
105,111.25,117.85,2
106,111.14,117.73,2
105,111.02,117.60,2
106,110.92,117.49,2
106,110.82,117.37,2
106,110.73,117.26,2
106,110.63,117.14,2
106,110.54,117.03,2
105,110.43,116.91,2
105,110.32,116.79,2
106,110.23,116.69,2
105,110.13,116.57,2
105,110.03,116.45,2
103,109.88,116.32,2
105,109.79,116.21,2
105,109.69,116.09,2
105,109.60,115.98,2
105,109.51,115.87,2
105,109.42,115.76,2
104,109.31,115.65,2
104,109.20,115.53,2
104,109.10,115.41,2
105,109.02,115.31,2
104,108.91,115.20,2
104,108.82,115.09,2
104,108.72,114.97,2
106,108.67,114.88,2
104,108.57,114.78,2
103,108.46,114.66,2
103,108.35,114.54,2
104,108.26,114.44,2
103,108.16,114.32,2
103,108.06,114.21,2
103,107.96,114.10,2
103,107.86,113.99,2
103,107.76,113.88,2
103,107.66,113.77,2
103,107.57,113.66,2
101,107.44,113.53,2
103,107.35,113.43,2
102,107.24,113.31,2
101,107.12,113.19,2
101,107.00,113.07,2
102,106.90,112.96,2
102,106.80,112.85,2
103,106.72,112.75,2
102,106.63,112.64,2
103,106.56,112.55,2
101,106.44,112.43,2
102,106.36,112.33,2
101,106.25,112.21,2
101,106.14,112.10,2
101,106.04,111.99,2
101,105.94,111.88,2
101,105.84,111.77,2
101,105.74,111.66,2
101,105.65,111.56,2
101,105.56,111.45,2
101,105.46,111.35,2
101,105.38,111.24,2
100,105.27,111.13,2
101,105.18,111.03,2
102,105.12,110.94,2
101,105.04,110.84,2
101,104.96,110.74,2
101,104.88,110.64,2
101,104.80,110.55,2
101,104.72,110.45,2
101,104.65,110.36,2
100,104.56,110.25,2
100,104.46,110.15,2
100,104.38,110.05,2
100,104.29,109.95,2
101,104.22,109.86,2
100,104.14,109.76,2
101,104.08,109.67,2
100,103.99,109.58,2
100,103.91,109.48,2
100,103.84,109.39,2
100,103.76,109.29,2
100,103.68,109.20,2
104,103.69,109.15,2
100,103.62,109.06,2
99,103.52,108.96,2
98,103.41,108.85,2
100,103.34,108.76,2
99,103.26,108.66,2
99,103.17,108.56,2
100,103.11,108.48,2
99,103.03,108.38,2
99,102.95,108.29,2
99,102.87,108.20,2
100,102.81,108.11,2
99,102.73,108.02,2
99,102.66,107.93,2
99,102.59,107.84,2
100,102.53,107.76,2
99,102.46,107.68,2
99,102.39,107.59,2
99,102.33,107.50,2
98,102.24,107.41,2
100,102.20,107.34,2
99,102.13,107.25,2
98,102.05,107.16,2
97,101.95,107.06,2
99,101.89,106.98,2
98,101.81,106.89,2
98,101.74,106.80,2
98,101.66,106.71,2
98,101.59,106.62,2
98,101.52,106.54,2
100,101.49,106.47,2
99,101.44,106.40,2
99,101.39,106.32,2
98,101.32,106.24,2
98,101.25,106.16,2
98,101.19,106.08,2
98,101.12,106.00,2
98,101.06,105.92,2
98,101.00,105.84,2
100,100.98,105.78,2
99,100.94,105.71,2
97,100.86,105.62,2
99,100.82,105.56,2
98,100.77,105.48,2
98,100.71,105.41,2
98,100.66,105.33,2
98,100.61,105.26,2
98,100.55,105.19,2
100,100.54,105.13,2
97,100.47,105.05,2
97,100.40,104.97,2
97,100.33,104.89,2
97,100.27,104.81,2
98,100.22,104.75,2
98,100.18,104.68,2
99,100.15,104.62,2
98,100.11,104.56,2
98,100.07,104.49,2
99,100.05,104.43,2
98,100.01,104.37,2
98,99.97,104.31,2
98,99.93,104.24,2
97,99.87,104.17,2
97,99.81,104.10,2
97,99.75,104.03,2
97,99.70,103.96,2
97,99.65,103.89,2
98,99.61,103.83,2
97,99.56,103.76,2
97,99.51,103.69,2
97,99.46,103.63,2
97,99.41,103.56,2
97,99.36,103.50,2
97,99.31,103.43,2
97,99.27,103.37,2
97,99.22,103.30,2
97,99.18,103.24,2
97,99.13,103.18,2
97,99.09,103.12,2
97,99.05,103.05,2
98,99.03,103.00,2
97,98.99,102.94,2
97,98.95,102.88,2
97,98.91,102.83,2
97,98.87,102.77,2
101,98.91,102.75,2
97,98.88,102.69,2
97,98.84,102.63,2
97,98.80,102.58,2
97,98.77,102.52,2
95,98.69,102.45,2
97,98.66,102.39,2
99,98.66,102.36,2
97,98.63,102.31,2
97,98.60,102.25,2
97,98.57,102.20,2
97,98.53,102.15,2
97,98.50,102.10,2
96,98.45,102.04,2
97,98.42,101.99,2
97,98.40,101.94,2
96,98.35,101.88,2
97,98.32,101.83,2
97,98.29,101.78,2
97,98.27,101.73,2
97,98.24,101.68,2
97,98.22,101.64,2
97,98.19,101.59,2
97,98.17,101.54,2
99,98.19,101.52,2
97,98.16,101.47,2
97,98.14,101.43,2
97,98.12,101.39,2
97,98.09,101.34,2
97,98.07,101.30,2
97,98.05,101.25,2
98,98.05,101.22,2
98,98.05,101.19,2
99,98.07,101.17,2
101,98.13,101.17,2
99,98.14,101.14,2
100,98.18,101.13,2
100,98.22,101.12,2
99,98.23,101.10,2
100,98.27,101.09,2
100,98.30,101.08,2
100,98.34,101.07,2
100,98.37,101.06,2
100,98.40,101.05,2
99,98.42,101.03,2
99,98.43,101.01,2
100,98.46,101.00,2
100,98.49,100.99,2
100,98.52,100.98,2
100,98.55,100.97,2
101,98.60,100.97,2
99,98.61,100.95,2
100,98.63,100.94,2
100,98.66,100.93,2
100,98.69,100.92,2
98,98.67,100.89,2
102,98.74,100.90,2
98,98.73,100.87,2
98,98.71,100.84,2
99,98.72,100.82,2
99,98.72,100.81,2
98,98.71,100.78,2
98,98.69,100.75,2
99,98.70,100.73,2
97,98.67,100.70,2
98,98.65,100.67,2
97,98.62,100.63,2
97,98.59,100.60,2
97,98.56,100.56,2
98,98.54,100.53,2
98,98.53,100.51,2
97,98.50,100.47,2
97,98.47,100.44,2
97,98.44,100.40,2
97,98.41,100.37,2
97,98.39,100.34,2
98,98.38,100.31,2
98,98.37,100.29,2
99,98.38,100.28,2
99,98.40,100.26,2
99,98.41,100.25,2
100,98.44,100.25,2
101,98.49,100.26,2
100,98.52,100.25,2
100,98.55,100.25,2
100,98.58,100.25,2
100,98.61,100.25,2
100,98.64,100.24,2
99,98.64,100.23,2
100,98.67,100.23,2
100,98.70,100.23,2
101,98.74,100.24,2
100,98.77,100.23,2
100,98.79,100.23,2
100,98.82,100.23,2
100,98.84,100.23,2
99,98.84,100.21,2
100,98.87,100.21,2
99,98.87,100.20,2
100,98.89,100.20,2
100,98.91,100.20,2
100,98.94,100.19,2
100,98.96,100.19,2
100,98.98,100.19,2
100,99.00,100.19,2
102,99.06,100.21,2
102,99.12,100.22,2
101,99.16,100.23,2
102,99.21,100.25,2
101,99.25,100.26,2
100,99.26,100.25,2
102,99.32,100.27,2
101,99.35,100.28,2
101,99.38,100.29,2
100,99.40,100.28,2
101,99.43,100.29,2
102,99.48,100.31,2
103,99.55,100.33,2
102,99.60,100.35,2
103,99.67,100.38,2
102,99.71,100.39,2
103,99.78,100.42,2
103,99.84,100.45,2
105,99.95,100.49,2
104,100.03,100.53,2
105,100.13,100.57,2
106,100.25,100.63,2
107,100.38,100.69,2
106,100.49,100.74,2
106,100.60,100.79,2
106,100.71,100.85,2
107,100.84,100.91,2
107,100.96,100.97,2
105,101.04,101.01,2
107,101.16,101.07,2
106,101.26,101.12,2
106,101.35,101.17,2
106,101.44,101.22,2
106,101.54,101.26,2
106,101.63,101.31,2
105,101.69,101.35,2
105,101.76,101.38,2
108,101.88,101.45,2
105,101.95,101.49,2
105,102.01,101.52,2
105,102.07,101.56,2
106,102.15,101.60,2
105,102.20,101.63,2
105,102.26,101.67,2
106,102.33,101.71,2
105,102.39,101.74,2
105,102.44,101.78,2
106,102.51,101.82,2
106,102.58,101.86,2
108,102.69,101.92,2
108,102.79,101.98,2
108,102.90,102.04,2
108,103.00,102.10,2
105,103.04,102.13,2
108,103.14,102.19,2
108,103.24,102.25,2
107,103.31,102.30,2
107,103.39,102.34,2
107,103.46,102.39,2
107,103.53,102.44,2
106,103.58,102.47,2
105,103.61,102.50,2
106,103.65,102.53,2
106,103.70,102.57,2
105,103.73,102.59,2
106,103.77,102.63,2
107,103.84,102.67,2
106,103.88,102.70,2
107,103.94,102.75,2
105,103.96,102.77,2
106,104.01,102.80,2
106,104.05,102.83,2
106,104.08,102.86,2
105,104.10,102.88,2
105,104.12,102.91,2
105,104.14,102.93,2
106,104.18,102.96,2
107,104.23,103.00,2
106,104.27,103.03,2
107,104.32,103.07,2
106,104.36,103.10,2
105,104.37,103.12,2
107,104.42,103.16,2
107,104.47,103.19,2
105,104.48,103.21,2
105,104.49,103.23,2
105,104.50,103.25,2
107,104.55,103.28,2
105,104.56,103.30,2
106,104.59,103.33,2
105,104.60,103.35,2
105,104.61,103.36,2
109,104.70,103.42,2
105,104.70,103.43,2
105,104.71,103.45,2
106,104.73,103.48,2
106,104.76,103.50,2
105,104.76,103.52,2
105,104.77,103.53,2
105,104.77,103.55,2
105,104.78,103.56,2
105,104.78,103.57,2
105,104.79,103.59,2
105,104.79,103.60,2
105,104.79,103.62,2
105,104.80,103.63,2
105,104.80,103.64,2
105,104.81,103.66,2
105,104.81,103.67,2
105,104.81,103.68,2
105,104.82,103.70,2
107,104.86,103.73,2
107,104.90,103.76,2
107,104.95,103.80,2
107,104.99,103.83,2
109,105.07,103.88,2
110,105.17,103.94,2
109,105.24,103.99,2
109,105.32,104.04,2
110,105.41,104.10,2
111,105.52,104.17,2
111,105.63,104.24,2
111,105.74,104.31,2
112,105.87,104.38,2
111,105.97,104.45,2
111,106.07,104.51,2
111,106.17,104.58,2
114,106.32,104.67,2
112,106.44,104.75,2
112,106.55,104.82,2
112,106.66,104.89,2
112,106.76,104.96,2
111,106.85,105.02,2
113,106.97,105.10,2
111,107.05,105.16,2
112,107.15,105.23,2
113,107.27,105.31,2
113,107.38,105.38,2
113,107.50,105.46,2
113,107.61,105.54,2
113,107.71,105.61,2
114,107.84,105.69,2
114,107.96,105.78,2
113,108.06,105.85,2
113,108.16,105.92,2
113,108.26,105.99,2
114,108.37,106.07,2
112,108.45,106.13,2
113,108.54,106.20,2
114,108.65,106.28,2
113,108.73,106.35,2
113,108.82,106.41,2
113,108.90,106.48,2
113,108.98,106.54,2
113,109.07,106.61,2
113,109.14,106.67,2
113,109.22,106.73,2
113,109.30,106.80,2
113,109.37,106.86,2
114,109.46,106.93,2
114,109.55,107.00,2
114,109.64,107.07,2
115,109.75,107.15,2
115,109.85,107.23,2
113,109.92,107.29,2
115,110.02,107.36,2
115,110.12,107.44,2
116,110.24,107.53,2
115,110.33,107.60,2
116,110.45,107.68,2
119,110.62,107.80,2
117,110.74,107.89,2
117,110.87,107.98,2
118,111.01,108.08,2
119,111.17,108.19,2
119,111.33,108.30,2
120,111.50,108.42,2
121,111.69,108.54,2
121,111.88,108.67,2
121,112.06,108.79,2
121,112.24,108.91,2
121,112.41,109.03,2
121,112.59,109.15,2
121,112.75,109.27,2
122,112.94,109.40,2
121,113.10,109.51,2
121,113.26,109.63,2
121,113.41,109.74,2
121,113.56,109.85,2
121,113.71,109.97,2
121,113.86,110.08,2
122,114.02,110.20,2
121,114.16,110.30,2
121,114.30,110.41,2
121,114.43,110.52,2
123,114.60,110.64,2
121,114.73,110.75,2
121,114.86,110.85,2
121,114.98,110.95,2
123,115.14,111.07,2
124,115.32,111.20,2
123,115.47,111.32,2
123,115.62,111.43,2
126,115.83,111.58,2
125,116.01,111.71,2
125,116.19,111.85,2
126,116.39,111.99,2
125,116.56,112.12,2
125,116.73,112.25,2
126,116.92,112.38,2
127,117.12,112.53,2
128,117.33,112.69,2
129,117.57,112.85,2
128,117.78,113.00,2
129,118.00,113.16,2
131,118.26,113.34,2
131,118.52,113.52,2
131,118.77,113.69,2
131,119.01,113.86,2
129,119.21,114.01,2
131,119.45,114.18,2
131,119.68,114.35,2
131,119.90,114.52,2
131,120.13,114.68,2
131,120.34,114.85,2
131,120.56,115.01,2
131,120.76,115.17,2
132,120.99,115.34,2
131,121.19,115.49,2
131,121.39,115.65,2
131,121.58,115.80,2
132,121.79,115.96,2
131,121.97,116.11,2
133,122.19,116.28,2
131,122.37,116.43,2
132,122.56,116.59,2
131,122.73,116.73,2
132,122.91,116.88,2
131,123.08,117.02,2
131,123.23,117.16,2
131,123.39,117.30,2
134,123.60,117.47,2
131,123.75,117.60,2
131,123.90,117.74,2
131,124.04,117.87,2
131,124.18,118.00,2
132,124.33,118.14,2
132,124.49,118.28,2
131,124.62,118.41,2
131,124.74,118.53,2
131,124.87,118.66,2
131,124.99,118.78,2
132,125.13,118.91,2
132,125.27,119.05,2
131,125.38,119.16,2
132,125.52,119.29,2
132,125.65,119.42,2
132,125.77,119.55,2
134,125.94,119.69,2
135,126.12,119.84,2
135,126.30,120.00,2
135,126.47,120.15,2
136,126.66,120.30,2
136,126.85,120.46,2
136,127.03,120.62,2
137,127.23,120.78,2
136,127.41,120.93,2
137,127.60,121.09,2
137,127.79,121.25,2
137,127.97,121.41,2
137,128.15,121.57,2
139,128.37,121.74,2
137,128.54,121.89,2
138,128.73,122.05,2
137,128.89,122.20,2
137,129.06,122.35,2
137,129.22,122.50,2
136,129.35,122.63,2
138,129.52,122.79,2
137,129.67,122.93,2
137,129.82,123.07,2
137,129.96,123.21,2
139,130.14,123.37,2
137,130.28,123.50,2
137,130.42,123.64,2
137,130.55,123.77,2
137,130.68,123.90,2
137,130.80,124.03,2
138,130.95,124.17,2
137,131.07,124.30,2
138,131.21,124.44,2
137,131.32,124.56,2
137,131.44,124.69,2
137,131.55,124.81,2
137,131.66,124.93,2
138,131.78,125.06,2
137,131.89,125.18,2
136,131.97,125.29,2
136,132.05,125.40,2
137,132.15,125.52,2
136,132.23,125.62,2
137,132.32,125.73,2
136,132.40,125.84,2
136,132.47,125.94,2
135,132.52,126.03,2
135,132.57,126.12,2
135,132.62,126.21,2
136,132.68,126.31,2
135,132.73,126.39,2
136,132.80,126.49,2
136,132.86,126.58,2
135,132.90,126.67,2
136,132.97,126.76,2
135,133.01,126.84,2
136,133.07,126.93,2
135,133.10,127.02,2
137,133.18,127.12,2
136,133.24,127.20,2
136,133.29,127.29,2
136,133.35,127.38,2
138,133.44,127.49,2
137,133.51,127.58,2
137,133.58,127.67,2
137,133.65,127.77,2
137,133.72,127.86,2
137,133.78,127.95,2
139,133.89,128.06,2
139,133.99,128.17,2
138,134.07,128.27,2
138,134.15,128.37,2
137,134.21,128.45,2
137,134.26,128.54,2
137,134.32,128.62,2
137,134.37,128.71,2
139,134.46,128.81,2
141,134.59,128.93,2
140,134.70,129.04,2
141,134.83,129.16,2
139,134.91,129.26,2
141,135.03,129.38,2
141,135.15,129.49,2
142,135.29,129.62,2
141,135.40,129.73,2
142,135.54,129.86,2
141,135.64,129.97,2
142,135.77,130.09,2
141,135.88,130.20,2
141,135.98,130.31,2
141,136.08,130.41,2
141,136.18,130.52,2
141,136.27,130.62,2
139,136.33,130.71,2
141,136.42,130.81,2
141,136.51,130.91,2
141,136.60,131.01,2
141,136.69,131.11,2
141,136.78,131.21,2
141,136.86,131.31,2
142,136.96,131.42,2
143,137.09,131.53,2
143,137.20,131.65,2
143,137.32,131.76,2
144,137.45,131.88,2
144,137.58,132.00,2
144,137.71,132.12,2
145,137.86,132.25,2
144,137.98,132.37,2
143,138.08,132.48,2
144,138.20,132.59,2
143,138.30,132.70,2
144,138.41,132.81,2
145,138.54,132.93,2
145,138.67,133.05,2
145,138.80,133.17,2
146,138.94,133.30,2
147,139.10,133.44,2
146,139.24,133.56,2
147,139.40,133.70,2
145,139.51,133.81,2
147,139.66,133.94,2
145,139.76,134.05,2
145,139.87,134.16,2
145,139.97,134.27,2
146,140.09,134.39,2
146,140.21,134.50,2
147,140.35,134.63,2
146,140.46,134.74,2
147,140.59,134.86,2
147,140.72,134.99,2
146,140.82,135.10,2
150,141.01,135.24,2
146,141.11,135.35,2
145,141.19,135.45,2
145,141.26,135.54,2
145,141.34,135.64,2
145,141.41,135.73,2
145,141.48,135.82,2
145,141.55,135.92,2
144,141.60,136.00,2
144,141.65,136.08,2
145,141.72,136.17,2
144,141.76,136.25,2
145,141.83,136.33,2
144,141.87,136.41,2
143,141.89,136.48,2
143,141.91,136.54,2
144,141.96,136.62,2
143,141.98,136.68,2
143,142.00,136.74,2
143,142.02,136.80,2
143,142.04,136.87,2
143,142.06,136.93,2
143,142.08,136.99,2
143,142.09,137.05,2
143,142.11,137.11,2
143,142.13,137.17,2
143,142.15,137.23,2
145,142.20,137.30,2
143,142.22,137.36,2
143,142.24,137.42,2
143,142.25,137.47,2
142,142.25,137.52,2
143,142.26,137.57,2
143,142.28,137.63,2
143,142.29,137.68,2
142,142.28,137.72,2
143,142.30,137.78,2
142,142.29,137.82,2
141,142.27,137.85,2
142,142.26,137.89,2
142,142.26,137.93,2
142,142.25,137.97,2
142,142.25,138.01,2
142,142.24,138.05,2
141,142.22,138.08,2
141,142.19,138.11,2
142,142.19,138.15,2
143,142.20,138.20,2
142,142.20,138.24,2
142,142.20,138.28,2
142,142.19,138.31,2
142,142.19,138.35,2
142,142.18,138.39,2
140,142.14,138.40,2
141,142.12,138.43,2
142,142.12,138.46,2
141,142.09,138.49,2
141,142.07,138.51,2
141,142.05,138.54,2
141,142.03,138.56,2
139,141.97,138.57,2
141,141.95,138.59,2
140,141.91,138.61,2
140,141.87,138.62,2
140,141.83,138.63,2
139,141.78,138.64,2
139,141.72,138.64,2
139,141.67,138.65,2
137,141.57,138.63,2
138,141.50,138.62,2
138,141.43,138.62,2
138,141.36,138.61,2
139,141.32,138.61,2
138,141.25,138.61,2
137,141.17,138.59,2
137,141.08,138.58,2
137,141.00,138.56,2
137,140.92,138.54,2
137,140.84,138.53,2
137,140.77,138.51,2
137,140.69,138.50,2
137,140.62,138.48,2
137,140.54,138.47,2
137,140.47,138.45,2
137,140.40,138.44,2
137,140.34,138.43,2
137,140.27,138.41,2
136,140.18,138.39,2
136,140.10,138.36,2
136,140.02,138.34,2
135,139.92,138.31,2
135,139.82,138.27,2
136,139.74,138.25,2
135,139.65,138.22,2
133,139.52,138.17,2
135,139.42,138.13,2
135,139.34,138.10,2
134,139.23,138.06,2
135,139.15,138.03,2
136,139.08,138.01,2
135,139.00,137.98,2
135,138.92,137.95,2
133,138.80,137.90,2
134,138.71,137.86,2
133,138.59,137.81,2
134,138.50,137.78,2
133,138.39,137.73,2
133,138.28,137.68,2
133,138.18,137.63,2
133,138.07,137.59,2
133,137.97,137.54,2
133,137.87,137.50,2
133,137.77,137.45,2
133,137.68,137.41,2
134,137.61,137.37,2
133,137.51,137.33,2
133,137.42,137.29,2
131,137.29,137.22,3
132,137.19,137.17,3
132,137.09,137.12,4
131,136.96,137.06,4
131,136.84,137.00,4
131,136.73,136.94,4
131,136.61,136.88,4
131,136.50,136.82,4
131,136.39,136.76,4
130,136.26,136.69,4
131,136.16,136.64,4
130,136.03,136.57,4
131,135.93,136.51,4
130,135.81,136.45,4
129,135.68,136.37,4
129,135.55,136.30,4
130,135.43,136.24,4
129,135.31,136.17,4
129,135.18,136.09,4
129,135.06,136.02,4
129,134.93,135.95,4
129,134.82,135.88,4
129,134.70,135.81,4
129,134.59,135.75,4
128,134.45,135.67,4
128,134.32,135.59,4
128,134.20,135.52,4
129,134.09,135.45,4
128,133.97,135.38,4
127,133.83,135.29,4
127,133.70,135.21,4
127,133.56,135.13,4
130,133.49,135.08,4
127,133.36,135.00,4
126,133.21,134.91,4
126,133.07,134.82,4
127,132.95,134.74,4
127,132.83,134.66,4
126,132.69,134.57,4
126,132.56,134.49,4
125,132.41,134.39,4
125,132.26,134.30,4
125,132.11,134.21,4
125,131.97,134.11,4
125,131.83,134.02,4
125,131.70,133.93,4
125,131.56,133.84,4
125,131.43,133.76,4
123,131.26,133.65,4
124,131.12,133.55,4
124,130.97,133.46,4
124,130.84,133.36,4
124,130.70,133.27,4
124,130.56,133.18,4
124,130.43,133.08,4
124,130.30,132.99,4
124,130.18,132.90,4
123,130.04,132.80,4
123,129.89,132.71,4
124,129.78,132.62,4
122,129.62,132.51,4
123,129.49,132.42,4
123,129.36,132.32,4
124,129.25,132.24,4
123,129.13,132.15,4
123,129.00,132.06,4
123,128.88,131.97,4
122,128.75,131.87,4
122,128.61,131.77,4
122,128.48,131.67,4
122,128.35,131.57,4
122,128.22,131.48,4
121,128.08,131.37,4
121,127.94,131.27,4
121,127.80,131.17,4
121,127.66,131.06,4
121,127.53,130.96,4
121,127.40,130.86,4
121,127.27,130.77,4
120,127.12,130.66,4
121,127.00,130.56,4
120,126.86,130.46,4
120,126.72,130.35,4
120,126.59,130.25,4
120,126.46,130.14,4
119,126.31,130.03,4
120,126.18,129.93,4
119,126.04,129.82,4
120,125.92,129.73,4
119,125.78,129.62,4
120,125.66,129.52,4
119,125.53,129.42,4
119,125.40,129.31,4
118,125.25,129.20,4
118,125.11,129.09,4
118,124.97,128.98,4
118,124.83,128.87,4
118,124.69,128.76,4
117,124.54,128.64,4
117,124.39,128.52,4
117,124.24,128.41,4
117,124.09,128.29,4
117,123.95,128.18,4
117,123.81,128.07,4
116,123.66,127.95,4
117,123.52,127.84,4
115,123.35,127.71,4
115,123.19,127.58,4
116,123.04,127.47,4
116,122.90,127.35,4
116,122.76,127.24,4
117,122.65,127.14,4
115,122.49,127.02,4
116,122.36,126.91,4
116,122.24,126.80,4
116,122.11,126.69,4
116,121.99,126.58,4
115,121.85,126.47,4
116,121.73,126.36,4
115,121.60,126.25,4
116,121.49,126.15,4
115,121.36,126.03,4
116,121.25,125.93,4
115,121.12,125.82,4
115,121.00,125.72,4
115,120.88,125.61,4
114,120.74,125.49,4
114,120.61,125.38,4
115,120.50,125.27,4
113,120.35,125.15,4
113,120.20,125.03,4
113,120.06,124.91,4
114,119.94,124.80,4
113,119.80,124.68,4
114,119.68,124.58,4
113,119.55,124.46,4
112,119.40,124.34,4
113,119.27,124.22,4
111,119.10,124.09,4
111,118.94,123.96,4
113,118.82,123.85,4
113,118.71,123.74,4
112,118.57,123.62,4
113,118.46,123.52,4
111,118.31,123.39,4
111,118.16,123.27,4
111,118.02,123.15,4
111,117.88,123.02,4
111,117.74,122.90,4
111,117.61,122.79,4
111,117.48,122.67,4
112,117.37,122.56,4
111,117.24,122.44,4
111,117.11,122.33,4
111,116.99,122.22,4
111,116.87,122.10,4
111,116.76,121.99,4
111,116.64,121.88,4
111,116.53,121.78,4
112,116.44,121.68,4
113,116.37,121.59,4
113,116.30,121.50,4
112,116.21,121.41,4
112,116.13,121.32,4
113,116.07,121.23,4
112,115.99,121.14,4
113,115.93,121.06,4
112,115.85,120.97,4
112,115.77,120.88,4
111,115.68,120.78,4
112,115.60,120.69,4
112,115.53,120.60,4
112,115.46,120.52,4
113,115.41,120.44,4
113,115.36,120.37,4
113,115.31,120.30,4
113,115.27,120.22,4
113,115.22,120.15,4
112,115.16,120.07,4
111,115.08,119.98,4
112,115.01,119.90,4
115,115.01,119.85,4
112,114.95,119.77,4
111,114.87,119.68,4
111,114.80,119.60,4
111,114.72,119.51,4
111,114.65,119.43,4
111,114.57,119.34,4
111,114.50,119.26,4
113,114.47,119.20,4
111,114.40,119.11,4
111,114.33,119.03,4
111,114.27,118.95,4
111,114.20,118.87,4
109,114.10,118.77,4
110,114.02,118.69,4
109,113.92,118.59,4
107,113.78,118.47,4
110,113.70,118.39,4
110,113.63,118.30,4
109,113.54,118.21,4
109,113.45,118.12,4
109,113.36,118.03,4
109,113.27,117.94,4
110,113.20,117.86,4
109,113.12,117.77,4
109,113.04,117.68,4
109,112.96,117.60,4
109,112.88,117.51,4
109,112.80,117.42,4
109,112.72,117.34,4
109,112.65,117.26,4
109,112.58,117.17,4
108,112.48,117.08,4
108,112.40,116.99,4
108,112.31,116.90,4
107,112.20,116.80,4
108,112.12,116.71,4
108,112.03,116.63,4
107,111.93,116.53,4
108,111.86,116.45,4
108,111.78,116.36,4
108,111.70,116.28,4
109,111.65,116.20,4
108,111.58,116.12,4
107,111.48,116.03,4
105,111.35,115.92,4
107,111.27,115.83,4
108,111.20,115.75,4
107,111.12,115.67,4
108,111.06,115.59,4
107,110.97,115.50,4
107,110.90,115.42,4
107,110.82,115.33,4
107,110.74,115.25,4
107,110.67,115.17,4
109,110.63,115.11,4
106,110.54,115.02,4
107,110.47,114.94,4
106,110.38,114.85,4
107,110.31,114.77,4
106,110.23,114.68,4
105,110.12,114.58,4
106,110.04,114.50,4
105,109.94,114.40,4
105,109.84,114.31,4
106,109.76,114.23,4
105,109.67,114.13,4
105,109.57,114.04,4
105,109.48,113.95,4
105,109.39,113.86,4
107,109.35,113.79,4
107,109.30,113.73,4
107,109.25,113.66,4
106,109.19,113.58,4
105,109.10,113.50,4
105,109.02,113.41,4
105,108.94,113.33,4
105,108.86,113.24,4
105,108.78,113.16,4
105,108.71,113.08,4
105,108.64,113.00,4
105,108.56,112.92,4
105,108.49,112.84,4
105,108.42,112.76,4
105,108.35,112.68,4
105,108.29,112.61,4
105,108.22,112.53,4
104,108.14,112.45,4
105,108.07,112.37,4
105,108.01,112.30,4
104,107.93,112.21,4
105,107.87,112.14,4
104,107.80,112.06,4
104,107.72,111.98,4
103,107.62,111.89,4
104,107.55,111.81,4
103,107.46,111.72,4
104,107.39,111.65,4
103,107.30,111.56,4
102,107.20,111.46,4
103,107.11,111.38,4
103,107.03,111.30,4
103,106.95,111.21,4
104,106.89,111.14,4
104,106.83,111.07,4
103,106.76,110.99,4
103,106.68,110.91,4
103,106.61,110.83,4
103,106.54,110.75,4
101,106.43,110.65,4
103,106.36,110.58,4
103,106.29,110.50,4
103,106.22,110.43,4
102,106.14,110.34,4
103,106.08,110.27,4
101,105.98,110.18,4
101,105.88,110.08,4
102,105.80,110.00,4
102,105.72,109.92,4
101,105.63,109.83,4
103,105.58,109.77,4
101,105.48,109.68,4
101,105.39,109.59,4
102,105.33,109.52,4
101,105.24,109.43,4
101,105.16,109.35,4
101,105.07,109.26,4
101,104.99,109.18,4
101,104.91,109.10,4
101,104.83,109.02,4
101,104.76,108.94,4
101,104.68,108.86,4
101,104.61,108.78,4
101,104.54,108.70,4
101,104.46,108.62,4
100,104.38,108.54,4
101,104.31,108.46,4
102,104.26,108.40,4
101,104.20,108.32,4
101,104.13,108.25,4
101,104.07,108.18,4
101,104.01,108.11,4
102,103.97,108.05,4
101,103.91,107.97,4
101,103.85,107.91,4
100,103.77,107.83,4
101,103.72,107.76,4
99,103.62,107.67,4
100,103.55,107.59,4
97,103.42,107.49,4
100,103.35,107.41,4
99,103.26,107.33,4
100,103.20,107.26,4
100,103.14,107.18,4
100,103.07,107.11,4
101,103.03,107.05,4
100,102.97,106.98,4
100,102.91,106.91,4
100,102.85,106.84,4
101,102.82,106.78,4
99,102.74,106.70,4
99,102.66,106.63,4
100,102.61,106.56,4
100,102.56,106.50,4
99,102.49,106.42,4
100,102.44,106.36,4
100,102.39,106.29,4
99,102.32,106.22,4
99,102.26,106.15,4
100,102.21,106.09,4
103,102.23,106.06,4
99,102.16,105.98,4
99,102.10,105.91,4
100,102.06,105.86,4
100,102.02,105.80,4
99,101.96,105.73,4
99,101.90,105.66,4
98,101.82,105.59,4
99,101.76,105.52,4
98,101.69,105.44,4
98,101.61,105.37,4
98,101.54,105.30,4
98,101.47,105.22,4
98,101.40,105.15,4
98,101.33,105.08,4
98,101.27,105.01,4
98,101.20,104.94,4
98,101.14,104.87,4
98,101.07,104.80,4
98,101.01,104.73,4
96,100.91,104.65,4
96,100.81,104.56,4
97,100.74,104.48,4
96,100.64,104.40,4
96,100.55,104.31,4
96,100.46,104.23,4
95,100.35,104.14,4
98,100.30,104.08,4
97,100.24,104.01,4
96,100.15,103.93,4
95,100.05,103.84,4
96,99.97,103.76,4
96,99.89,103.68,4
96,99.81,103.60,4
96,99.73,103.53,4
97,99.68,103.46,4
97,99.63,103.40,4
95,99.53,103.31,4
97,99.48,103.25,4
95,99.39,103.17,4
95,99.31,103.09,4
96,99.24,103.02,4
96,99.17,102.95,4
95,99.09,102.87,4
95,99.01,102.79,4
95,98.93,102.71,4
95,98.85,102.63,4
96,98.79,102.57,4
95,98.72,102.49,4
95,98.64,102.42,4
95,98.57,102.34,4
94,98.48,102.26,4
95,98.41,102.19,4
95,98.34,102.11,4
94,98.25,102.03,4
93,98.15,101.94,4
95,98.09,101.87,4
93,97.98,101.78,4
95,97.92,101.72,4
91,97.79,101.61,4
95,97.73,101.54,4
94,97.66,101.47,4
93,97.56,101.38,4
93,97.47,101.30,4
93,97.38,101.22,4
93,97.29,101.13,4
94,97.23,101.06,4
93,97.14,100.98,4
93,97.06,100.90,4
92,96.96,100.81,4
93,96.88,100.74,4
93,96.80,100.66,4
92,96.71,100.57,4
92,96.61,100.49,4
93,96.54,100.41,4
93,96.47,100.34,4
91,96.36,100.24,4
92,96.27,100.16,4
91,96.17,100.07,4
92,96.08,99.99,4
92,96.00,99.91,4
92,95.92,99.83,4
91,95.82,99.74,4
90,95.71,99.64,4
91,95.61,99.56,4
92,95.54,99.48,4
92,95.47,99.41,4
90,95.36,99.31,4
92,95.29,99.24,4
90,95.19,99.15,4
92,95.12,99.08,4
90,95.02,98.99,4
91,94.94,98.91,4
92,94.88,98.84,4
90,94.78,98.75,4
90,94.69,98.66,4
90,94.60,98.57,4
90,94.50,98.49,4
90,94.41,98.40,4
90,94.33,98.32,4
90,94.24,98.24,4
89,94.13,98.14,4
90,94.05,98.06,4
88,93.93,97.96,4
89,93.83,97.87,4
89,93.74,97.78,4
87,93.60,97.68,4
88,93.49,97.58,4
89,93.40,97.49,4
89,93.31,97.41,4
89,93.22,97.32,4
88,93.12,97.23,4
89,93.04,97.15,4
89,92.96,97.07,4
88,92.86,96.98,4
88,92.76,96.89,4
88,92.67,96.80,4
88,92.57,96.71,4
88,92.48,96.62,4
88,92.39,96.54,4
88,92.30,96.45,4
88,92.22,96.37,4
88,92.13,96.28,4
87,92.03,96.19,4
87,91.93,96.10,4
87,91.83,96.01,4
87,91.73,95.92,4
86,91.62,95.82,4
88,91.55,95.74,4
87,91.46,95.65,4
86,91.35,95.56,4
87,91.26,95.47,4
87,91.17,95.39,4
86,91.07,95.29,4
88,91.01,95.22,4
86,90.91,95.13,4
87,90.83,95.05,4
87,90.76,94.96,4
88,90.70,94.90,4
87,90.63,94.82,4
87,90.55,94.74,4
86,90.46,94.65,4
87,90.39,94.57,4
86,90.31,94.49,4
86,90.22,94.40,4
86,90.13,94.32,4
87,90.07,94.25,4
86,89.99,94.16,4
86,89.91,94.08,4
85,89.81,93.99,4
86,89.74,93.91,4
86,89.66,93.83,4
86,89.59,93.75,4
86,89.52,93.68,4
86,89.45,93.60,4
86,89.38,93.52,4
86,89.31,93.45,4
86,89.24,93.37,4
85,89.16,93.29,4
86,89.10,93.22,4
86,89.03,93.15,4
86,88.97,93.07,4
85,88.89,92.99,4
86,88.84,92.92,4
86,88.78,92.85,4
85,88.70,92.78,4
85,88.63,92.70,4
85,88.56,92.62,4
86,88.51,92.55,4
85,88.44,92.48,4
84,88.35,92.39,4
84,88.26,92.31,4
85,88.19,92.24,4
85,88.13,92.16,4
84,88.05,92.08,4
84,87.97,92.00,4
85,87.91,91.93,4
85,87.85,91.86,4
84,87.77,91.78,4
84,87.70,91.71,4
84,87.62,91.63,4
84,87.55,91.55,4
84,87.48,91.48,4
82,87.37,91.38,4
84,87.30,91.31,4
84,87.24,91.24,4
84,87.17,91.16,4
84,87.11,91.09,4
85,87.07,91.03,4
84,87.01,90.96,4
84,86.94,90.89,4
84,86.89,90.82,4
84,86.83,90.75,4
84,86.77,90.69,4
82,86.68,90.60,4
84,86.62,90.53,4
83,86.55,90.46,4
86,86.54,90.41,4
82,86.45,90.33,4
82,86.36,90.25,4
83,86.29,90.17,4
83,86.23,90.10,4
82,86.14,90.02,4
84,86.10,89.96,4
83,86.04,89.89,4
83,85.98,89.82,4
82,85.90,89.74,4
82,85.82,89.67,4
82,85.74,89.59,4
83,85.69,89.52,4
82,85.61,89.45,4
82,85.54,89.37,4
82,85.47,89.30,4
83,85.42,89.24,4
82,85.35,89.17,4
82,85.29,89.09,4
82,85.22,89.02,4
82,85.16,88.95,4
83,85.11,88.89,4
82,85.05,88.82,4
82,84.99,88.76,4
80,84.89,88.67,4
81,84.81,88.59,4
81,84.74,88.52,4
82,84.68,88.45,4
84,84.67,88.41,4
80,84.57,88.32,4
81,84.50,88.25,4
81,84.43,88.18,4
80,84.34,88.09,4
81,84.28,88.02,4
80,84.19,87.94,4
81,84.13,87.87,4
80,84.05,87.79,4
80,83.96,87.72,4
80,83.88,87.64,4
82,83.85,87.58,4
81,83.79,87.52,4
80,83.71,87.44,4
80,83.64,87.37,4
80,83.57,87.29,4
83,83.56,87.25,4
80,83.48,87.18,4
80,83.42,87.11,4
81,83.37,87.05,4
80,83.30,86.98,4
80,83.23,86.91,4
79,83.15,86.83,4
78,83.05,86.74,4
80,82.98,86.67,4
79,82.91,86.59,4
79,82.83,86.52,4
79,82.75,86.44,4
80,82.70,86.38,4
79,82.62,86.31,4
79,82.55,86.23,4
79,82.48,86.16,4
79,82.41,86.09,4
79,82.34,86.02,4
78,82.25,85.94,4
78,82.17,85.86,4
79,82.11,85.79,4
78,82.02,85.71,4
78,81.94,85.63,4
78,81.86,85.56,4
79,81.81,85.49,4
78,81.73,85.42,4
78,81.66,85.34,4
77,81.56,85.26,4
78,81.49,85.19,4
78,81.42,85.12,4
78,81.35,85.04,4
78,81.29,84.97,4
79,81.24,84.91,4
78,81.18,84.84,4
78,81.11,84.78,4
79,81.07,84.72,4
78,81.01,84.65,4
78,80.95,84.58,4
78,80.89,84.52,4
78,80.83,84.45,4
78,80.77,84.39,4
78,80.72,84.33,4
78,80.67,84.26,4
78,80.61,84.20,4
77,80.54,84.13,4
76,80.45,84.05,4
76,80.36,83.97,4
77,80.29,83.90,4
76,80.21,83.82,4
78,80.16,83.76,4
76,80.08,83.68,4
77,80.02,83.61,4
76,79.94,83.54,4
76,79.86,83.46,4
78,79.82,83.41,4
77,79.77,83.34,4
76,79.69,83.27,4
76,79.62,83.20,4
76,79.54,83.13,4
77,79.49,83.06,4
79,79.48,83.02,4
78,79.45,82.97,4
77,79.40,82.91,4
78,79.38,82.87,4
80,79.39,82.84,4
76,79.32,82.77,4
76,79.25,82.70,4
78,79.23,82.65,4
80,79.24,82.63,4
76,79.18,82.56,4
76,79.12,82.50,4
76,79.05,82.43,4
76,78.99,82.37,4
76,78.93,82.30,4
76,78.87,82.24,4
76,78.82,82.18,4
79,78.82,82.14,4
76,78.76,82.08,4
77,78.73,82.03,4
76,78.67,81.97,4
76,78.62,81.91,4
76,78.57,81.85,4
76,78.52,81.79,4
75,78.45,81.73,4
77,78.42,81.68,4
76,78.37,81.62,4
76,78.32,81.57,4
80,78.36,81.55,4
77,78.33,81.51,4
76,78.28,81.45,4
76,78.24,81.40,4
76,78.19,81.34,4
76,78.15,81.29,4
76,78.10,81.24,4
76,78.06,81.18,4
77,78.04,81.14,4
76,78.00,81.09,4
75,77.94,81.03,4
75,77.88,80.97,4
76,77.84,80.92,4
77,77.83,80.88,4
75,77.77,80.82,4
75,77.72,80.76,4
73,77.62,80.69,4
76,77.59,80.64,4
75,77.54,80.58,4
76,77.51,80.54,4
76,77.48,80.49,4
77,77.47,80.46,4
75,77.42,80.40,4
76,77.39,80.36,4
77,77.38,80.32,4
75,77.33,80.27,4
74,77.27,80.21,4
76,77.24,80.17,4
76,77.22,80.12,4
76,77.19,80.08,4
74,77.13,80.02,4
74,77.07,79.96,4
76,77.04,79.92,4
77,77.04,79.89,4
74,76.98,79.83,4
75,76.94,79.79,4
76,76.92,79.75,4
75,76.89,79.70,4
75,76.85,79.65,4
74,76.79,79.60,4
75,76.76,79.55,4
76,76.74,79.52,4
74,76.69,79.46,4
74,76.63,79.41,4
75,76.60,79.36,4
74,76.55,79.31,4
76,76.54,79.27,4
74,76.49,79.22,4
74,76.44,79.17,4
74,76.39,79.12,4
74,76.34,79.07,4
74,76.29,79.02,4
74,76.25,78.97,4
75,76.22,78.93,4
74,76.18,78.88,4
74,76.13,78.83,4
74,76.09,78.78,4
74,76.05,78.73,4
76,76.05,78.71,4
74,76.01,78.66,4
74,75.97,78.61,4
74,75.93,78.57,4
74,75.89,78.52,4
74,75.85,78.47,4
73,75.79,78.42,4
73,75.74,78.37,4
73,75.68,78.31,4
72,75.61,78.25,4
73,75.56,78.20,4
73,75.51,78.14,4
72,75.44,78.08,4
74,75.41,78.04,4
73,75.36,77.99,4
73,75.31,77.94,4
73,75.27,77.89,4
73,75.22,77.84,4
73,75.18,77.80,4
73,75.13,77.75,4
73,75.09,77.70,4
73,75.05,77.65,4
74,75.03,77.62,4
73,74.99,77.57,4
74,74.97,77.53,4
74,74.95,77.50,4
74,74.93,77.46,4
76,74.95,77.45,4
74,74.93,77.41,4
74,74.91,77.38,4
74,74.89,77.35,4
73,74.86,77.30,4
74,74.84,77.27,4
74,74.82,77.24,4
75,74.83,77.22,4
73,74.79,77.17,4
73,74.75,77.13,4
74,74.74,77.10,4
75,74.74,77.08,4
75,74.75,77.06,4
73,74.71,77.02,4
74,74.70,76.99,4
75,74.71,76.97,4
74,74.69,76.94,4
74,74.68,76.91,4
72,74.62,76.86,4
72,74.57,76.81,4
74,74.56,76.78,4
74,74.55,76.75,4
74,74.54,76.73,4
74,74.53,76.70,4
73,74.50,76.66,4
74,74.49,76.64,4
73,74.46,76.60,4
72,74.41,76.55,4
73,74.38,76.52,4
74,74.37,76.49,4
76,74.40,76.49,4
74,74.40,76.46,4
74,74.39,76.44,4
74,74.38,76.41,4
75,74.39,76.40,4
74,74.39,76.38,4
75,74.40,76.36,4
74,74.39,76.34,4
71,74.32,76.29,4
74,74.32,76.26,4
74,74.31,76.24,4
76,74.34,76.24,4
74,74.34,76.22,4
73,74.31,76.18,4
74,74.30,76.16,4
74,74.30,76.14,4
72,74.25,76.10,4
73,74.23,76.07,4
74,74.22,76.05,4
74,74.22,76.03,4
74,74.21,76.01,4
73,74.19,75.98,4
74,74.19,75.96,4
73,74.16,75.93,4
74,74.16,75.91,4
74,74.16,75.89,4
74,74.15,75.87,4
74,74.15,75.85,4
74,74.15,75.83,4
73,74.12,75.80,4
73,74.10,75.78,4
74,74.10,75.76,4
74,74.10,75.74,4
74,74.09,75.72,4
74,74.09,75.71,4
74,74.09,75.69,4
74,74.09,75.67,4
74,74.09,75.66,4
76,74.13,75.66,4
76,74.16,75.66,4
75,74.18,75.66,4
76,74.22,75.66,4
76,74.25,75.66,4
76,74.29,75.67,4
75,74.30,75.66,4
75,74.32,75.65,4
76,74.35,75.66,4
76,74.38,75.66,4
75,74.39,75.65,4
76,74.43,75.66,4
76,74.46,75.66,4
76,74.49,75.66,4
76,74.52,75.67,4
76,74.55,75.67,4
77,74.60,75.68,4
77,74.65,75.70,4
76,74.67,75.70,4
77,74.72,75.71,4
77,74.76,75.73,4
78,74.83,75.75,4
78,74.89,75.77,4
78,74.96,75.79,4
78,75.02,75.81,4
78,75.08,75.84,4
78,75.13,75.86,4
79,75.21,75.89,4
80,75.31,75.93,4
80,75.40,75.97,4
80,75.49,76.01,4
80,75.58,76.05,4
80,75.67,76.09,4
80,75.76,76.13,4
80,75.84,76.17,4
81,75.95,76.22,4
80,76.03,76.26,4
80,76.11,76.29,4
80,76.18,76.33,4
80,76.26,76.37,4
80,76.34,76.40,4
80,76.41,76.44,4
80,76.48,76.47,4
80,76.55,76.51,4
80,76.62,76.54,4
80,76.69,76.58,4
80,76.75,76.61,4
80,76.82,76.65,4
81,76.90,76.69,4
80,76.96,76.72,4
79,77.01,76.75,4
80,77.06,76.78,4
80,77.12,76.81,4
80,77.18,76.84,4
79,77.22,76.86,4
80,77.27,76.90,4
80,77.33,76.93,4
80,77.38,76.96,4
79,77.41,76.98,4
79,77.45,77.00,4
80,77.50,77.03,4
80,77.55,77.06,4
79,77.58,77.08,4
79,77.60,77.10,4
82,77.69,77.15,4
80,77.74,77.17,4
80,77.78,77.20,4
79,77.81,77.22,4
80,77.85,77.25,4
80,77.89,77.28,4
81,77.96,77.31,4
82,78.04,77.36,4
81,78.10,77.40,4
84,78.21,77.46,4
82,78.29,77.51,4
83,78.38,77.56,4
82,78.46,77.61,4
86,78.61,77.69,4
82,78.68,77.73,4
83,78.76,77.79,4
83,78.85,77.84,4
84,78.95,77.90,4
82,79.01,77.94,4
83,79.09,77.99,4
83,79.17,78.04,4
83,79.25,78.09,4
83,79.32,78.14,4
85,79.43,78.21,4
83,79.51,78.26,4
84,79.60,78.31,4
82,79.64,78.35,4
82,79.69,78.39,4
84,79.78,78.44,4
81,79.80,78.47,4
82,79.85,78.51,4
84,79.93,78.56,4
86,80.05,78.63,4
82,80.09,78.67,4
82,80.13,78.70,4
82,80.16,78.73,4
83,80.22,78.78,4
84,80.30,78.83,4
82,80.33,78.86,4
84,80.40,78.91,4
84,80.48,78.96,4
84,80.55,79.01,4
84,80.62,79.06,4
87,80.74,79.14,4
86,80.85,79.21,4
86,80.95,79.28,4
84,81.01,79.33,4
85,81.09,79.38,4
85,81.17,79.44,4
85,81.25,79.50,4
86,81.34,79.56,4
86,81.44,79.62,4
85,81.51,79.68,4
86,81.60,79.74,4
86,81.68,79.80,4
87,81.79,79.88,4
88,81.92,79.96,4
86,82.00,80.02,4
86,82.08,80.08,4
88,82.20,80.16,4
89,82.33,80.25,4
90,82.48,80.34,4
90,82.64,80.44,4
90,82.78,80.53,4
89,82.91,80.62,4
90,83.05,80.71,4
90,83.19,80.81,4
90,83.32,80.90,4
90,83.46,80.99,4
90,83.59,81.08,4
90,83.72,81.17,4
91,83.86,81.27,4
89,83.96,81.34,4
90,84.09,81.43,4
90,84.20,81.52,4
90,84.32,81.60,4
90,84.43,81.69,4
90,84.54,81.77,4
90,84.65,81.85,4
91,84.78,81.94,4
91,84.91,82.03,4
90,85.01,82.11,4
92,85.15,82.21,4
92,85.28,82.31,4
91,85.40,82.40,4
92,85.53,82.49,4
92,85.66,82.59,4
92,85.79,82.68,4
91,85.89,82.76,4
92,86.01,82.86,4
92,86.13,82.95,4
92,86.25,83.04,4
94,86.41,83.15,4
92,86.52,83.24,4
92,86.63,83.32,4
92,86.73,83.41,4
92,86.84,83.50,4
92,86.94,83.58,4
92,87.04,83.67,4
92,87.14,83.75,4
92,87.24,83.83,4
92,87.34,83.91,4
92,87.43,83.99,4
92,87.52,84.07,4
92,87.61,84.15,4
92,87.70,84.23,4
91,87.76,84.30,4
93,87.87,84.39,4
93,87.97,84.47,4
91,88.03,84.54,4
92,88.11,84.61,4
93,88.21,84.70,4
93,88.30,84.78,4
92,88.38,84.85,4
92,88.45,84.92,4
92,88.52,84.99,4
93,88.61,85.07,4
93,88.70,85.15,4
94,88.81,85.24,4
95,88.93,85.34,4
94,89.03,85.43,4
94,89.13,85.51,4
94,89.23,85.60,4
94,89.32,85.68,4
94,89.42,85.76,4
94,89.51,85.85,4
94,89.60,85.93,4
93,89.67,86.00,4
94,89.75,86.08,4
94,89.84,86.16,4
94,89.92,86.24,4
95,90.02,86.32,4
94,90.10,86.40,4
94,90.18,86.48,4
93,90.24,86.54,4
93,90.29,86.61,4
98,90.45,86.72,4
94,90.52,86.79,4
94,90.59,86.87,4
95,90.67,86.95,4
95,90.76,87.03,4
94,90.83,87.10,4
94,90.89,87.17,4
95,90.97,87.24,4
93,91.01,87.30,4
95,91.09,87.38,4
94,91.15,87.45,4
94,91.21,87.51,4
95,91.28,87.59,4
98,91.42,87.69,4
96,91.51,87.77,4
95,91.58,87.85,4
96,91.67,87.93,4
95,91.73,88.00,4
94,91.78,88.06,4
95,91.84,88.13,4
95,91.91,88.20,4
95,91.97,88.26,4
94,92.01,88.32,4
95,92.07,88.39,4
95,92.13,88.45,4
95,92.19,88.52,4
94,92.22,88.57,4
96,92.30,88.65,4
96,92.37,88.72,4
98,92.48,88.81,4
95,92.53,88.88,4
97,92.62,88.96,4
97,92.71,89.04,4
97,92.80,89.12,4
97,92.88,89.20,4
98,92.98,89.28,4
98,93.08,89.37,4
97,93.16,89.45,4
98,93.26,89.53,4
99,93.37,89.63,4
100,93.51,89.73,4
98,93.60,89.81,4
99,93.70,89.91,4
98,93.79,89.99,4
97,93.85,90.06,4
98,93.94,90.14,4
97,94.00,90.21,4
98,94.08,90.28,4
98,94.16,90.36,4
98,94.23,90.44,4
97,94.29,90.50,4
98,94.36,90.58,4
98,94.44,90.65,4
100,94.55,90.75,4
98,94.62,90.82,4
99,94.70,90.90,4
98,94.77,90.97,4
99,94.85,91.05,4
99,94.94,91.13,4
100,95.04,91.22,4
100,95.14,91.31,4
100,95.24,91.39,4
99,95.31,91.47,4
101,95.42,91.57,4
100,95.52,91.65,4
100,95.61,91.73,4
100,95.69,91.82,4
101,95.80,91.91,4
101,95.90,92.00,4
102,96.03,92.10,4
102,96.14,92.20,4
102,96.26,92.30,4
101,96.36,92.38,4
102,96.47,92.48,4
102,96.58,92.57,4
101,96.67,92.66,4
103,96.80,92.76,4
104,96.94,92.87,4
105,97.10,93.00,4
104,97.24,93.11,4
105,97.39,93.22,4
105,97.55,93.34,4
105,97.69,93.46,4
105,97.84,93.57,4
105,97.98,93.69,4
106,98.14,93.81,4
107,98.32,93.94,4
108,98.52,94.08,4
108,98.70,94.22,4
109,98.91,94.37,4
109,99.11,94.52,4
111,99.35,94.68,4
113,99.62,94.87,4
115,99.93,95.07,4
115,100.23,95.27,4
115,100.53,95.46,4
117,100.86,95.68,4
116,101.16,95.88,4
118,101.50,96.10,4
119,101.85,96.33,4
120,102.21,96.57,4
120,102.57,96.80,4
120,102.91,97.04,4
121,103.28,97.27,4
121,103.63,97.51,4
120,103.96,97.74,4
120,104.28,97.96,4
120,104.59,98.18,4
120,104.90,98.40,4
122,105.24,98.63,4
125,105.64,98.90,4
122,105.97,99.13,4
122,106.29,99.36,4
122,106.60,99.58,4
123,106.93,99.82,4
122,107.23,100.04,4
124,107.57,100.28,4
123,107.87,100.51,4
123,108.18,100.73,4
125,108.51,100.97,4
125,108.84,101.21,4
125,109.17,101.45,4
124,109.46,101.68,4
124,109.75,101.90,4
126,110.08,102.14,4
126,110.40,102.38,4
126,110.71,102.62,4
127,111.03,102.86,4
125,111.31,103.08,4
126,111.61,103.31,4
127,111.92,103.55,4
126,112.20,103.77,4
128,112.51,104.02,4
127,112.80,104.24,4
127,113.09,104.47,4
127,113.37,104.70,4
129,113.68,104.94,4
129,113.98,105.18,4
129,114.28,105.42,4
129,114.58,105.66,4
131,114.91,105.91,4
131,115.23,106.16,4
133,115.58,106.43,4
131,115.89,106.67,4
132,116.22,106.93,4
133,116.55,107.19,4
133,116.88,107.45,4
133,117.20,107.70,4
137,117.60,107.99,4
135,117.95,108.26,4
136,118.31,108.54,4
136,118.66,108.82,4
136,119.01,109.09,4
136,119.35,109.36,4
137,119.70,109.63,4
137,120.05,109.91,4
138,120.41,110.19,4
137,120.74,110.46,4
137,121.06,110.72,4
138,121.40,110.99,4
137,121.71,111.25,4
137,122.02,111.51,4
137,122.32,111.77,4
137,122.61,112.02,4
138,122.92,112.28,4
137,123.20,112.53,4
138,123.50,112.78,4
137,123.77,113.02,4
139,124.07,113.28,4
137,124.33,113.52,4
139,124.62,113.78,4
138,124.89,114.02,4
140,125.19,114.28,4
142,125.53,114.55,4
143,125.88,114.84,4
142,126.20,115.11,4
145,126.58,115.41,4
145,126.95,115.71,4
147,127.35,116.02,4
145,127.70,116.31,4
147,128.09,116.62,4
147,128.46,116.92,4
148,128.86,117.23,4
147,129.22,117.53,4
147,129.57,117.82,4
147,129.92,118.11,4
147,130.26,118.40,4
147,130.60,118.69,4
147,130.93,118.97,4
146,131.23,119.24,4
146,131.52,119.51,4
147,131.83,119.78,4
145,132.10,120.04,4
147,132.39,120.31,4
146,132.67,120.56,4
148,132.97,120.84,4
149,133.29,121.12,4
148,133.59,121.39,4
148,133.88,121.65,4
149,134.18,121.93,4
147,134.44,122.18,4
148,134.71,122.44,4
149,134.99,122.70,4
149,135.27,122.97,4
149,135.55,123.23,4
149,135.82,123.48,4
148,136.06,123.73,4
148,136.30,123.97,4
149,136.55,124.22,4
148,136.78,124.46,4
150,137.05,124.71,4
149,137.29,124.96,4
150,137.54,125.21,4
152,137.83,125.48,4
153,138.13,125.75,4
155,138.47,126.04,4
155,138.80,126.33,4
153,139.08,126.60,4
154,139.38,126.87,4
155,139.69,127.16,4
157,140.04,127.45,4
158,140.40,127.76,4
158,140.75,128.06,4
158,141.10,128.36,4
159,141.46,128.67,4
160,141.83,128.98,4
159,142.17,129.28,4
159,142.51,129.58,4
159,142.84,129.87,4
158,143.14,130.15,4
159,143.46,130.44,4
159,143.77,130.73,4
159,144.07,131.01,4
158,144.35,131.28,4
157,144.60,131.54,4
157,144.85,131.79,4
157,145.09,132.04,4
158,145.35,132.30,4
159,145.63,132.57,4
158,145.87,132.82,4
158,146.12,133.08,4
157,146.33,133.32,4
158,146.57,133.56,4
157,146.78,133.80,4
159,147.02,134.05,4
157,147.22,134.28,4
159,147.45,134.53,4
158,147.67,134.76,4
158,147.87,134.99,4
159,148.10,135.23,4
159,148.31,135.47,4
159,148.53,135.71,4
157,148.70,135.92,4
157,148.86,136.13,4
158,149.05,136.35,4
157,149.20,136.56,4
158,149.38,136.77,4
159,149.57,136.99,4
162,149.82,137.24,4
159,150.00,137.46,4
159,150.18,137.67,4
159,150.36,137.89,4
159,150.53,138.10,4
160,150.72,138.32,4
159,150.89,138.53,4
159,151.05,138.73,4
159,151.21,138.93,4
159,151.37,139.13,4
158,151.50,139.32,4
158,151.63,139.51,4
158,151.76,139.69,4
157,151.86,139.87,4
157,151.96,140.04,4
157,152.06,140.21,4
157,152.16,140.38,4
157,152.26,140.54,4
157,152.35,140.71,4
156,152.43,140.86,4
156,152.50,141.01,4
157,152.59,141.17,4
157,152.68,141.33,4
157,152.76,141.49,4
157,152.85,141.64,4
157,152.93,141.79,4
157,153.01,141.95,4
157,153.09,142.10,4
158,153.19,142.26,4
157,153.27,142.40,4
157,153.34,142.55,4
156,153.39,142.68,4
156,153.45,142.82,4
156,153.50,142.95,4
155,153.53,143.07,4
155,153.56,143.19,4
155,153.59,143.31,4
155,153.61,143.42,4
155,153.64,143.54,4
155,153.67,143.65,4
155,153.70,143.77,4
155,153.72,143.88,4
154,153.73,143.98,4
154,153.73,144.08,4
154,153.74,144.18,4
153,153.72,144.27,4
155,153.75,144.38,4
153,153.73,144.46,4
153,153.72,144.55,4
153,153.71,144.63,4
153,153.69,144.72,4
154,153.70,144.81,4
153,153.68,144.89,4
153,153.67,144.97,4
153,153.66,145.05,4
153,153.64,145.13,4
153,153.63,145.21,4
153,153.62,145.29,4
154,153.63,145.38,4
153,153.61,145.45,4
153,153.60,145.53,4
153,153.59,145.60,4
153,153.58,145.68,4
152,153.55,145.74,4
153,153.53,145.81,4
153,153.52,145.88,4
152,153.49,145.94,4
152,153.46,146.01,4
153,153.45,146.08,4
151,153.40,146.12,4
153,153.40,146.19,4
151,153.35,146.24,4
151,153.30,146.29,4
151,153.26,146.34,4
151,153.21,146.38,4
151,153.17,146.43,4
150,153.10,146.46,4
150,153.04,146.50,4
149,152.96,146.52,4
149,152.88,146.55,4
149,152.80,146.57,4
149,152.73,146.60,4
149,152.65,146.62,4
150,152.60,146.66,4
149,152.53,146.68,4
149,152.46,146.70,4
149,152.39,146.73,4
148,152.30,146.74,4
148,152.21,146.75,4
148,152.13,146.76,4
148,152.05,146.78,4
147,151.95,146.78,4
147,151.85,146.78,4
147,151.75,146.78,4
147,151.66,146.78,4
147,151.56,146.79,4
147,151.47,146.79,4
146,151.36,146.78,4
146,151.25,146.77,4
146,151.15,146.77,4
146,151.05,146.76,4
146,150.95,146.75,4
146,150.85,146.74,4
145,150.73,146.73,4
145,150.62,146.71,4
145,150.50,146.69,4
145,150.39,146.67,4
143,150.25,146.64,4
145,150.14,146.62,4
144,150.02,146.59,4
143,149.88,146.56,4
144,149.76,146.53,4
143,149.62,146.50,4
143,149.49,146.46,4
143,149.36,146.43,4
143,149.23,146.39,4
143,149.11,146.36,4
143,148.99,146.33,4
142,148.85,146.28,4
142,148.71,146.24,4
141,148.56,146.19,4
141,148.41,146.14,4
141,148.26,146.08,4
141,148.11,146.03,4
141,147.97,145.98,4
142,147.85,145.94,4
141,147.71,145.89,4
141,147.58,145.85,4
141,147.45,145.80,4
141,147.32,145.75,4
142,147.21,145.71,4
141,147.09,145.66,4
141,146.97,145.62,4
141,146.85,145.57,4
141,146.73,145.53,4
141,146.62,145.48,4
141,146.50,145.44,4
140,146.37,145.38,4
140,146.25,145.33,4
141,146.14,145.28,4
141,146.04,145.24,4
139,145.90,145.18,4
141,145.80,145.14,4
140,145.68,145.09,4
139,145.55,145.03,4
140,145.44,144.97,4
139,145.31,144.92,4
139,145.18,144.86,4
139,145.06,144.80,4
141,144.98,144.76,4
138,144.84,144.69,4
139,144.72,144.63,5
138,144.59,144.57,5
138,144.46,144.50,6
139,144.35,144.45,6
138,144.22,144.38,6
137,144.08,144.31,6
137,143.93,144.24,6
137,143.80,144.16,6
137,143.66,144.09,6
137,143.53,144.02,6
137,143.40,143.95,6
137,143.27,143.88,6
136,143.12,143.80,6
136,142.98,143.72,6
135,142.82,143.64,6
135,142.66,143.55,6
135,142.51,143.47,6
136,142.38,143.39,6
135,142.23,143.31,6
136,142.11,143.23,6
135,141.97,143.15,6
135,141.83,143.07,6
134,141.67,142.98,6
133,141.50,142.88,6
134,141.35,142.79,6
133,141.18,142.69,6
133,141.02,142.60,6
133,140.86,142.50,6
133,140.70,142.41,6
133,140.55,142.31,6
133,140.39,142.22,6
133,140.25,142.13,6
132,140.08,142.02,6
132,139.92,141.92,6
132,139.76,141.83,6
132,139.61,141.73,6
131,139.43,141.62,6
131,139.27,141.51,6
132,139.12,141.42,6
131,138.96,141.31,6
132,138.82,141.22,6
131,138.66,141.12,6
130,138.49,141.01,6
131,138.34,140.91,6
131,138.19,140.81,6
130,138.03,140.70,6
131,137.89,140.60,6
129,137.71,140.49,6
130,137.56,140.38,6
129,137.38,140.27,6
129,137.22,140.16,6
130,137.07,140.05,6
130,136.93,139.95,6
132,136.83,139.87,6
129,136.68,139.77,6
129,136.52,139.66,6
128,136.35,139.54,6
129,136.21,139.44,6
128,136.04,139.32,6
127,135.86,139.20,6
127,135.68,139.08,6
127,135.51,138.96,6
127,135.34,138.84,6
127,135.17,138.72,6
127,135.01,138.60,6
127,134.85,138.48,6
125,134.65,138.35,6
127,134.50,138.24,6
127,134.35,138.12,6
126,134.18,138.00,6
126,134.02,137.88,6
125,133.84,137.75,6
125,133.66,137.63,6
125,133.49,137.50,6
125,133.32,137.37,6
125,133.15,137.25,6
125,132.99,137.13,6
125,132.83,137.01,6
125,132.67,136.89,6
125,132.52,136.77,6
125,132.37,136.65,6
124,132.20,136.52,6
124,132.04,136.40,6
124,131.88,136.28,6
123,131.70,136.14,6
124,131.54,136.02,6
123,131.37,135.89,6
123,131.21,135.76,6
123,131.04,135.63,6
123,130.88,135.51,6
123,130.72,135.38,6
123,130.57,135.26,6
122,130.40,135.13,6
122,130.23,135.00,6
122,130.07,134.87,6
121,129.88,134.73,6
121,129.71,134.59,6
121,129.53,134.45,6
121,129.36,134.32,6
121,129.19,134.19,6
121,129.03,134.05,6
120,128.85,133.91,6
120,128.67,133.77,6
121,128.52,133.65,6
120,128.35,133.51,6
120,128.18,133.37,6
120,128.02,133.24,6
119,127.84,133.10,6
119,127.66,132.96,6
119,127.49,132.82,6
119,127.32,132.68,6
119,127.15,132.54,6
119,126.99,132.41,6
119,126.83,132.27,6
119,126.67,132.14,6
119,126.52,132.01,6
119,126.37,131.88,6
118,126.20,131.74,6
119,126.06,131.61,6
118,125.90,131.48,6
118,125.74,131.34,6
118,125.58,131.21,6
118,125.43,131.08,6
117,125.26,130.94,6
118,125.12,130.81,6
117,124.96,130.67,6
117,124.80,130.53,6
117,124.64,130.40,6
117,124.49,130.26,6
117,124.34,130.13,6
117,124.19,130.00,6
117,124.05,129.87,6
117,123.91,129.74,6
117,123.77,129.61,6
117,123.63,129.49,6
117,123.50,129.36,6
117,123.37,129.24,6
117,123.24,129.12,6
117,123.12,128.99,6
117,123.00,128.87,6
117,122.88,128.76,6
118,122.78,128.65,6
117,122.66,128.53,6
117,122.55,128.42,6
117,122.44,128.30,6
117,122.33,128.19,6
117,122.22,128.08,6
117,122.12,127.97,6
117,122.02,127.86,6
116,121.90,127.74,6
117,121.80,127.63,6
116,121.68,127.51,6
116,121.57,127.40,6
115,121.44,127.28,6
116,121.33,127.16,6
116,121.22,127.05,6
115,121.10,126.93,6
116,121.00,126.82,6
115,120.88,126.70,6
116,120.78,126.60,6
116,120.68,126.49,6
116,120.59,126.39,6
115,120.48,126.27,6
113,120.33,126.14,6
115,120.22,126.03,6
115,120.12,125.92,6
114,119.99,125.80,6
116,119.91,125.70,6
114,119.80,125.58,6
113,119.66,125.46,6
114,119.55,125.34,6
114,119.44,125.23,6
113,119.31,125.11,6
114,119.20,125.00,6
113,119.08,124.88,6
114,118.98,124.77,6
114,118.88,124.66,6
113,118.76,124.54,6
113,118.64,124.43,6
113,118.53,124.31,6
113,118.42,124.20,6
113,118.31,124.09,6
113,118.21,123.98,6
113,118.10,123.87,6
113,118.00,123.76,6
113,117.90,123.65,6
111,117.76,123.52,6
113,117.67,123.42,6
113,117.57,123.32,6
113,117.48,123.21,6
113,117.39,123.11,6
112,117.28,123.00,6
112,117.18,122.89,6
112,117.07,122.78,6
111,116.95,122.66,6
111,116.83,122.55,6
112,116.74,122.44,6
111,116.62,122.33,6
111,116.51,122.21,6
111,116.40,122.10,6
111,116.29,121.99,6
111,116.19,121.88,6
113,116.12,121.79,6
111,116.02,121.68,6
110,115.90,121.57,6
111,115.80,121.46,6
110,115.69,121.35,6
111,115.59,121.24,6
109,115.46,121.12,6
109,115.33,121.00,6
109,115.20,120.88,6
109,115.08,120.76,6
109,114.96,120.64,6
109,114.84,120.53,6
110,114.74,120.42,6
109,114.63,120.31,6
109,114.52,120.19,6
109,114.40,120.08,6
109,114.30,119.97,6
109,114.19,119.86,6
109,114.09,119.75,6
108,113.97,119.63,6
108,113.85,119.52,6
108,113.73,119.40,6
109,113.63,119.30,6
107,113.50,119.18,6
109,113.41,119.07,6
109,113.32,118.97,6
108,113.22,118.86,6
109,113.13,118.77,6
110,113.07,118.68,6
109,112.99,118.58,6
109,112.91,118.48,6
108,112.81,118.38,6
109,112.73,118.29,6
109,112.66,118.19,6
108,112.57,118.09,6
108,112.48,117.99,6
108,112.39,117.89,6
108,112.30,117.79,6
107,112.19,117.68,6
110,112.15,117.61,6
107,112.05,117.50,6
108,111.96,117.41,6
108,111.89,117.31,6
108,111.81,117.22,6
107,111.71,117.12,6
108,111.64,117.03,6
105,111.50,116.91,6
107,111.41,116.81,6
107,111.33,116.71,6
106,111.22,116.60,6
107,111.14,116.50,6
106,111.03,116.40,6
105,110.91,116.29,6
106,110.81,116.18,6
107,110.74,116.09,6
106,110.64,115.99,6
105,110.53,115.88,6
105,110.42,115.77,6
105,110.31,115.66,6
105,110.20,115.56,6
105,110.10,115.45,6
105,110.00,115.35,6
105,109.90,115.24,6
104,109.78,115.13,6
105,109.68,115.03,6
104,109.57,114.92,6
103,109.44,114.80,6
104,109.33,114.69,6
104,109.22,114.59,6
103,109.10,114.47,6
103,108.98,114.35,6
105,108.90,114.26,6
104,108.80,114.16,6
104,108.70,114.06,6
104,108.61,113.96,6
103,108.50,113.85,6
103,108.39,113.74,6
104,108.30,113.64,6
103,108.19,113.53,6
104,108.11,113.44,6
103,108.01,113.34,6
103,107.91,113.23,6
103,107.81,113.13,6
102,107.69,113.02,6
102,107.58,112.91,6
102,107.47,112.80,6
101,107.34,112.68,6
101,107.21,112.56,6
101,107.09,112.45,6
102,106.99,112.34,6
101,106.87,112.23,6
100,106.73,112.11,6
103,106.65,112.02,6
101,106.54,111.91,6
101,106.43,111.80,6
101,106.32,111.69,6
102,106.24,111.59,6
101,106.13,111.49,6
101,106.03,111.38,6
101,105.93,111.28,6
101,105.83,111.18,6
101,105.73,111.07,6
101,105.64,110.97,6
101,105.55,110.87,6
99,105.41,110.75,6
99,105.29,110.64,6
100,105.18,110.53,6
100,105.08,110.43,6
100,104.98,110.32,6
100,104.88,110.22,6
101,104.80,110.13,6
99,104.68,110.01,6
99,104.57,109.90,6
99,104.46,109.80,6
98,104.33,109.68,6
99,104.22,109.57,6
99,104.12,109.46,6
98,103.99,109.35,6
98,103.87,109.24,6
98,103.76,109.12,6
98,103.64,109.01,6
98,103.53,108.90,6
98,103.42,108.79,6
98,103.31,108.69,6
98,103.20,108.58,6
97,103.08,108.46,6
97,102.96,108.35,6
98,102.86,108.25,6
98,102.76,108.14,6
98,102.67,108.04,6
98,102.57,107.94,6
98,102.48,107.84,6
98,102.39,107.74,6
98,102.30,107.65,6
98,102.22,107.55,6
97,102.11,107.44,6
98,102.03,107.35,6
98,101.95,107.26,6
97,101.85,107.15,6
98,101.78,107.06,6
97,101.68,106.96,6
97,101.59,106.86,6
98,101.51,106.77,6
97,101.42,106.68,6
96,101.32,106.57,6
96,101.21,106.46,6
97,101.13,106.37,6
97,101.04,106.27,6
96,100.94,106.17,6
96,100.84,106.07,6
96,100.75,105.97,6
98,100.69,105.89,6
96,100.60,105.79,6
95,100.49,105.68,6
96,100.40,105.59,6
95,100.29,105.48,6
94,100.16,105.37,6
96,100.08,105.27,6
95,99.98,105.17,6
96,99.90,105.08,6
95,99.80,104.98,6
96,99.72,104.89,6
95,99.63,104.79,6
95,99.54,104.69,6
95,99.45,104.59,6
96,99.38,104.51,6
96,99.31,104.42,6
95,99.22,104.33,6
95,99.14,104.23,6
95,99.06,104.14,6
94,98.95,104.04,6
95,98.88,103.95,6
94,98.78,103.85,6
94,98.68,103.75,6
94,98.59,103.65,6
93,98.48,103.55,6
93,98.37,103.44,6
95,98.30,103.36,6
93,98.19,103.25,6
94,98.11,103.16,6
94,98.03,103.07,6
91,97.89,102.95,6
93,97.79,102.85,6
93,97.69,102.75,6
93,97.60,102.65,6
93,97.51,102.56,6
93,97.42,102.46,6
94,97.35,102.38,6
93,97.26,102.28,6
92,97.16,102.18,6
92,97.05,102.08,6
92,96.95,101.98,6
93,96.87,101.89,6
92,96.78,101.79,6
92,96.68,101.69,6
93,96.61,101.61,6
93,96.54,101.52,6
91,96.42,101.41,6
92,96.34,101.32,6
92,96.25,101.23,6
92,96.16,101.13,6
92,96.08,101.04,6
93,96.02,100.96,6
91,95.92,100.86,6
92,95.84,100.77,6
92,95.76,100.69,6
91,95.67,100.59,6
92,95.60,100.50,6
91,95.50,100.41,6
92,95.43,100.32,6
91,95.34,100.23,6
92,95.28,100.15,6
91,95.19,100.06,6
91,95.11,99.97,6
91,95.03,99.88,6
92,94.97,99.80,6
90,94.87,99.70,6
90,94.77,99.60,6
91,94.69,99.52,6
90,94.60,99.42,6
90,94.51,99.33,6
89,94.40,99.22,6
89,94.29,99.12,6
90,94.20,99.03,6
90,94.12,98.94,6
92,94.08,98.87,6
91,94.02,98.79,6
90,93.94,98.70,6
88,93.82,98.60,6
90,93.74,98.51,6
88,93.63,98.41,6
88,93.51,98.30,6
90,93.44,98.22,6
90,93.37,98.14,6
88,93.27,98.04,6
88,93.16,97.94,6
90,93.10,97.86,6
89,93.02,97.77,6
88,92.92,97.67,6
89,92.84,97.58,6
90,92.78,97.51,6
89,92.71,97.42,6
88,92.61,97.33,6
88,92.52,97.24,6
88,92.43,97.14,6
88,92.34,97.05,6
88,92.25,96.96,6
88,92.17,96.87,6
87,92.06,96.77,6
89,92.00,96.69,6
88,91.92,96.61,6
88,91.84,96.52,6
87,91.75,96.43,6
89,91.69,96.35,6
88,91.62,96.27,6
87,91.53,96.18,6
87,91.44,96.08,6
87,91.35,95.99,6
88,91.28,95.91,6
87,91.19,95.82,6
86,91.09,95.73,6
87,91.01,95.64,6
90,90.99,95.58,6
87,90.91,95.50,6
87,90.83,95.41,6
87,90.75,95.33,6
88,90.70,95.25,6
86,90.61,95.16,6
86,90.51,95.07,6
86,90.42,94.98,6
86,90.33,94.89,6
86,90.25,94.80,6
86,90.16,94.71,6
86,90.08,94.63,6
87,90.02,94.55,6
86,89.94,94.46,6
86,89.86,94.38,6
86,89.78,94.30,6
85,89.69,94.20,6
86,89.61,94.12,6
86,89.54,94.04,6
85,89.45,93.95,6
87,89.40,93.88,6
86,89.33,93.80,6
86,89.27,93.72,6
85,89.18,93.64,6
85,89.10,93.55,6
84,88.99,93.45,6
84,88.89,93.36,6
86,88.84,93.29,6
85,88.76,93.20,6
85,88.69,93.12,6
85,88.61,93.04,6
86,88.56,92.97,6
85,88.49,92.89,6
86,88.44,92.82,6
84,88.35,92.73,6
84,88.26,92.64,6
84,88.18,92.56,6
84,88.09,92.47,6
84,88.01,92.39,6
84,87.93,92.30,6
85,87.87,92.23,6
84,87.80,92.15,6
84,87.72,92.07,6
84,87.65,91.99,6
84,87.57,91.91,6
84,87.50,91.83,6
84,87.43,91.75,6
84,87.36,91.67,6
82,87.25,91.58,6
84,87.19,91.50,6
84,87.13,91.42,6
83,87.04,91.34,6
82,86.94,91.25,6
82,86.84,91.15,6
82,86.75,91.06,6
84,86.69,90.99,6
82,86.60,90.90,6
83,86.53,90.82,6
82,86.44,90.73,6
86,86.43,90.69,6
84,86.38,90.62,6
82,86.29,90.53,6
82,86.21,90.45,6
82,86.12,90.36,6
84,86.08,90.30,6
82,86.00,90.22,6
82,85.92,90.14,6
82,85.84,90.05,6
84,85.80,89.99,6
81,85.71,89.90,6
81,85.61,89.81,6
81,85.52,89.73,6
81,85.43,89.64,6
82,85.36,89.56,6
82,85.29,89.49,6
80,85.19,89.39,6
81,85.10,89.31,6
81,85.02,89.23,6
82,84.96,89.15,6
82,84.90,89.08,6
81,84.82,89.00,6
80,84.73,88.91,6
80,84.63,88.82,6
80,84.54,88.73,6
81,84.47,88.66,6
81,84.40,88.58,6
80,84.31,88.49,6
81,84.25,88.42,6
81,84.18,88.34,6
80,84.10,88.26,6
80,84.02,88.18,6
81,83.96,88.11,6
81,83.90,88.04,6
80,83.82,87.96,6
80,83.74,87.88,6
80,83.67,87.80,6
80,83.59,87.72,6
80,83.52,87.64,6
80,83.45,87.57,6
80,83.38,87.49,6
82,83.35,87.44,6
80,83.29,87.36,6
80,83.22,87.29,6
81,83.18,87.22,6
80,83.11,87.15,6
80,83.05,87.08,6
80,82.99,87.01,6
81,82.95,86.95,6
80,82.89,86.88,6
80,82.83,86.81,6
80,82.78,86.74,6
80,82.72,86.68,6
82,82.71,86.63,6
80,82.65,86.56,6
80,82.60,86.50,6
79,82.53,86.42,6
80,82.48,86.36,6
80,82.43,86.29,6
79,82.36,86.22,6
79,82.29,86.15,6
81,82.27,86.10,6
80,82.22,86.04,6
78,82.14,85.96,6
80,82.09,85.90,6
79,82.03,85.83,6
79,81.97,85.76,6
79,81.91,85.69,6
80,81.87,85.64,6
79,81.82,85.57,6
80,81.78,85.51,6
78,81.70,85.44,6
79,81.65,85.37,6
78,81.58,85.30,6
81,81.57,85.26,6
78,81.49,85.18,6
79,81.44,85.12,6
80,81.42,85.07,6
77,81.33,84.99,6
78,81.26,84.92,6
79,81.22,84.86,6
78,81.15,84.79,6
78,81.09,84.72,6
78,81.03,84.66,6
79,80.99,84.60,6
78,80.93,84.53,6
78,80.87,84.47,6
78,80.81,84.40,6
79,80.77,84.35,6
79,80.74,84.30,6
78,80.68,84.23,6
78,80.63,84.17,6
78,80.58,84.11,6
77,80.51,84.04,6
78,80.46,83.98,6
78,80.41,83.92,6
80,80.40,83.88,6
79,80.37,83.83,6
78,80.32,83.77,6
78,80.28,83.72,6
78,80.23,83.66,6
77,80.17,83.59,6
77,80.10,83.53,6
77,80.04,83.46,6
78,80.00,83.41,6
77,79.94,83.34,6
78,79.90,83.29,6
78,79.86,83.24,6
78,79.83,83.18,6
77,79.77,83.12,6
77,79.71,83.06,6
76,79.64,82.99,6
77,79.59,82.93,6
78,79.56,82.88,6
78,79.52,82.83,6
78,79.49,82.78,6
76,79.42,82.72,6
77,79.38,82.66,6
76,79.31,82.59,6
77,79.26,82.54,6
76,79.20,82.47,6
77,79.15,82.42,6
77,79.11,82.36,6
76,79.05,82.30,6
78,79.03,82.25,6
77,78.99,82.20,6
78,78.97,82.16,6
76,78.91,82.10,6
77,78.87,82.05,6
78,78.85,82.01,6
76,78.79,81.95,6
75,78.72,81.88,6
76,78.66,81.82,6
76,78.61,81.76,6
76,78.56,81.70,6
76,78.51,81.65,6
77,78.48,81.60,6
77,78.45,81.55,6
76,78.40,81.50,6
76,78.35,81.44,6
77,78.32,81.40,6
76,78.28,81.34,6
76,78.23,81.29,6
76,78.19,81.24,6
76,78.14,81.19,6
77,78.12,81.14,6
76,78.08,81.09,6
77,78.06,81.05,6
76,78.02,81.00,6
76,77.98,80.95,6
78,77.98,80.92,6
78,77.98,80.89,6
77,77.96,80.85,6
78,77.96,80.82,6
78,77.96,80.80,6
76,77.92,80.75,6
77,77.90,80.71,6
76,77.86,80.66,6
75,77.81,80.61,6
76,77.77,80.56,6
77,77.75,80.53,6
77,77.74,80.49,6
76,77.70,80.45,6
77,77.69,80.41,6
76,77.66,80.37,6
76,77.62,80.32,6
76,77.59,80.28,6
76,77.56,80.24,6
76,77.53,80.19,6
76,77.50,80.15,6
77,77.49,80.12,6
76,77.46,80.08,6
76,77.43,80.04,6
76,77.40,80.00,6
75,77.35,79.95,6
76,77.32,79.91,6
78,77.34,79.89,6
76,77.31,79.85,6
76,77.29,79.81,6
75,77.24,79.76,6
76,77.21,79.73,6
76,77.19,79.69,6
76,77.17,79.65,6
76,77.14,79.62,6
74,77.08,79.56,6
77,77.08,79.53,6
76,77.06,79.50,6
75,77.02,79.45,6
76,77.00,79.42,6
76,76.98,79.39,6
76,76.96,79.35,6
75,76.92,79.31,6
77,76.92,79.29,6
76,76.90,79.25,6
76,76.88,79.22,6
74,76.82,79.17,6
76,76.81,79.14,6
76,76.79,79.10,6
76,76.78,79.07,6
74,76.72,79.02,6
77,76.73,79.00,6
78,76.75,78.99,6
76,76.74,78.96,6
76,76.72,78.93,6
77,76.73,78.91,6
76,76.71,78.88,6
76,76.70,78.86,6
76,76.68,78.83,6
76,76.67,78.80,6
76,76.66,78.77,6
76,76.64,78.74,6
76,76.63,78.72,6
76,76.62,78.69,6
76,76.61,78.66,6
76,76.59,78.64,6
76,76.58,78.61,6
76,76.57,78.58,6
76,76.56,78.56,6
76,76.55,78.53,6
78,76.58,78.53,6
76,76.57,78.50,6
76,76.55,78.48,6
76,76.54,78.45,6
76,76.53,78.43,6
76,76.52,78.40,6
76,76.51,78.38,6
76,76.50,78.35,6
76,76.49,78.33,6
75,76.46,78.30,6
76,76.45,78.27,6
76,76.44,78.25,6
76,76.43,78.23,6
75,76.41,78.20,6
76,76.40,78.18,6
77,76.41,78.16,6
76,76.40,78.14,6
77,76.41,78.13,6
76,76.40,78.11,6
80,76.48,78.13,6
77,76.49,78.12,6
78,76.52,78.12,6
79,76.57,78.12,6
77,76.58,78.11,6
77,76.58,78.10,6
78,76.61,78.10,6
78,76.64,78.10,6
81,76.73,78.13,6
78,76.75,78.13,6
78,76.78,78.13,6
79,76.82,78.14,6
79,76.87,78.14,6
79,76.91,78.15,6
79,76.95,78.16,6
79,76.99,78.17,6
77,76.99,78.16,6
79,77.03,78.17,6
79,77.07,78.17,6
80,77.13,78.19,6
78,77.15,78.19,6
78,77.16,78.19,6
80,77.22,78.21,6
79,77.26,78.21,6
78,77.27,78.21,6
78,77.29,78.21,6
77,77.28,78.20,6
78,77.29,78.20,6
78,77.31,78.19,6
78,77.32,78.19,6
79,77.36,78.20,6
79,77.39,78.21,6
78,77.40,78.21,6
78,77.41,78.20,6
78,77.42,78.20,6
81,77.50,78.23,6
77,77.49,78.22,6
78,77.50,78.22,6
77,77.49,78.20,6
77,77.48,78.19,6
78,77.49,78.19,6
76,77.46,78.17,6
76,77.43,78.15,6
78,77.44,78.14,6
78,77.45,78.14,6
76,77.42,78.12,6
77,77.41,78.11,6
77,77.41,78.10,6
78,77.42,78.10,6
76,77.39,78.08,6
78,77.40,78.08,6
78,77.41,78.08,6
76,77.39,78.06,6
76,77.36,78.03,6
77,77.35,78.02,6
77,77.34,78.01,6
78,77.36,78.01,6
78,77.37,78.01,6
78,77.38,78.01,6
77,77.37,78.00,6
78,77.39,78.00,6
78,77.40,78.00,6
80,77.45,78.02,6
78,77.46,78.02,6
78,77.47,78.02,6
78,77.48,78.02,6
78,77.49,78.02,6
78,77.50,78.02,6
78,77.51,78.02,6
78,77.52,78.02,6
79,77.55,78.03,6
78,77.56,78.03,6
78,77.57,78.03,6
78,77.58,78.03,6
77,77.57,78.02,6
78,77.58,78.02,6
78,77.58,78.02,6
78,77.59,78.02,6
79,77.62,78.03,6
80,77.67,78.05,6
79,77.70,78.06,6
79,77.72,78.07,6
79,77.75,78.08,6
81,77.81,78.11,6
79,77.84,78.12,6
79,77.86,78.12,6
79,77.88,78.13,6
80,77.92,78.15,6
79,77.95,78.16,6
79,77.97,78.17,6
79,77.99,78.18,6
79,78.01,78.19,6
79,78.03,78.19,6
79,78.05,78.20,6
80,78.09,78.22,6
80,78.12,78.24,6
80,78.16,78.25,6
80,78.20,78.27,6
81,78.25,78.30,6
77,78.23,78.29,6
80,78.27,78.30,6
79,78.28,78.31,6
80,78.31,78.33,6
80,78.35,78.34,6
80,78.38,78.36,6
80,78.41,78.38,6
81,78.47,78.40,6
81,78.52,78.43,6
81,78.57,78.46,6
80,78.59,78.47,6
81,78.64,78.50,6
80,78.67,78.51,6
80,78.70,78.53,6
80,78.72,78.54,6
81,78.77,78.57,6
82,78.83,78.60,6
80,78.86,78.61,6
80,78.88,78.63,6
80,78.90,78.64,6
80,78.92,78.65,6
80,78.94,78.67,6
80,78.97,78.68,6
82,79.03,78.71,6
81,79.07,78.74,6
80,79.08,78.75,6
80,79.10,78.76,6
81,79.14,78.79,6
81,79.18,78.81,6
82,79.23,78.84,6
82,79.29,78.87,6
81,79.32,78.89,6
81,79.36,78.91,6
80,79.37,78.92,6
82,79.42,78.95,6
81,79.45,78.98,6
81,79.49,79.00,6
82,79.54,79.03,6
82,79.58,79.06,6
82,79.63,79.08,6
84,79.72,79.13,6
82,79.77,79.16,6
84,79.85,79.21,6
83,79.91,79.25,6
82,79.96,79.28,6
83,80.02,79.31,6
82,80.06,79.34,6
85,80.15,79.40,6
83,80.21,79.43,6
82,80.25,79.46,6
86,80.36,79.52,6
84,80.44,79.57,6
84,80.51,79.61,6
84,80.58,79.66,6
84,80.65,79.70,6
83,80.69,79.73,6
84,80.76,79.78,6
86,80.86,79.84,6
84,80.93,79.88,6
85,81.01,79.93,6
84,81.07,79.97,6
85,81.15,80.02,6
84,81.20,80.06,6
85,81.28,80.11,6
85,81.35,80.16,6
85,81.43,80.21,6
85,81.50,80.26,6
86,81.59,80.31,6
86,81.68,80.37,6
85,81.74,80.42,6
85,81.81,80.46,6
86,81.89,80.52,6
88,82.01,80.59,6
86,82.09,80.65,6
85,82.15,80.69,6
86,82.23,80.74,6
86,82.30,80.80,6
87,82.40,80.86,6
85,82.45,80.90,6
85,82.50,80.94,6
85,82.55,80.98,6
85,82.60,81.02,6
85,82.65,81.06,6
86,82.71,81.11,6
85,82.76,81.15,6
86,82.83,81.20,6
85,82.87,81.24,6
85,82.91,81.27,6
85,82.95,81.31,6
85,82.99,81.35,6
84,83.01,81.37,6
85,83.05,81.41,6
85,83.09,81.45,6
86,83.15,81.49,6
86,83.21,81.54,6
86,83.26,81.58,6
87,83.34,81.64,6
86,83.39,81.68,6
86,83.44,81.72,6
88,83.54,81.79,6
88,83.62,81.85,6
88,83.71,81.91,6
88,83.80,81.97,6
88,83.88,82.03,6
88,83.96,82.09,6
88,84.04,82.15,6
89,84.14,82.22,6
89,84.24,82.29,6
89,84.34,82.35,6
90,84.45,82.43,6
90,84.56,82.51,6
89,84.65,82.57,6
90,84.76,82.64,6
90,84.86,82.72,6
90,84.96,82.79,6
90,85.06,82.86,6
90,85.16,82.93,6
90,85.26,83.00,6
90,85.36,83.07,6
91,85.47,83.15,6
90,85.56,83.22,6
90,85.65,83.29,6
90,85.73,83.36,6
91,85.84,83.43,6
90,85.92,83.50,6
90,86.00,83.56,6
90,86.08,83.63,6
92,86.20,83.71,6
90,86.28,83.78,6
90,86.35,83.84,6
90,86.43,83.90,6
93,86.56,83.99,6
91,86.65,84.06,6
90,86.71,84.12,6
90,86.78,84.18,6
91,86.86,84.25,6
90,86.93,84.30,6
92,87.03,84.38,6
90,87.09,84.44,6
91,87.17,84.50,6
90,87.22,84.56,6
90,87.28,84.61,6
90,87.33,84.67,6
91,87.41,84.73,6
90,87.46,84.78,6
92,87.55,84.85,6
92,87.64,84.93,6
91,87.70,84.99,6
93,87.81,85.07,6
92,87.89,85.14,6
94,88.02,85.22,6
95,88.16,85.32,6
97,88.33,85.44,6
98,88.53,85.57,6
97,88.70,85.68,6
96,88.84,85.78,6
99,89.05,85.91,6
98,89.22,86.04,6
98,89.40,86.16,6
98,89.57,86.27,6
98,89.74,86.39,6
98,89.91,86.51,6
98,90.07,86.62,6
98,90.23,86.74,6
97,90.36,86.84,6
98,90.51,86.95,6
98,90.66,87.06,6
100,90.85,87.19,6
98,90.99,87.30,6
99,91.15,87.42,6
98,91.29,87.52,6
98,91.42,87.63,6
98,91.56,87.73,6
98,91.69,87.83,6
101,91.87,87.96,6
99,92.01,88.07,6
100,92.17,88.19,6
100,92.33,88.31,6
100,92.48,88.43,6
101,92.65,88.55,6
101,92.82,88.68,6
100,92.96,88.79,6
101,93.13,88.91,6
100,93.26,89.02,6
101,93.42,89.14,6
102,93.59,89.27,6
101,93.74,89.39,6
101,93.88,89.51,6
100,94.01,89.61,6
102,94.16,89.74,6
101,94.30,89.85,6
101,94.44,89.96,6
101,94.57,90.07,6
102,94.72,90.19,6
102,94.86,90.31,6
102,95.00,90.42,6
102,95.14,90.54,6
103,95.30,90.66,6
101,95.42,90.77,6
103,95.57,90.89,6
105,95.76,91.03,6
103,95.90,91.15,6
104,96.06,91.28,6
104,96.22,91.41,6
104,96.38,91.53,6
104,96.53,91.66,6
103,96.66,91.77,6
103,96.79,91.88,6
103,96.91,91.99,6
105,97.07,92.12,6
104,97.21,92.24,6
104,97.35,92.36,6
104,97.48,92.48,6
105,97.63,92.60,6
105,97.78,92.73,6
107,97.96,92.87,6
108,98.16,93.02,6
108,98.36,93.17,6
109,98.57,93.33,6
110,98.80,93.50,6
113,99.08,93.69,6
113,99.36,93.88,6
111,99.60,94.05,6
112,99.84,94.23,6
112,100.09,94.41,6
112,100.32,94.59,6
112,100.56,94.76,6
112,100.79,94.93,6
111,100.99,95.09,6
111,101.19,95.25,6
112,101.41,95.42,6
111,101.60,95.58,6
114,101.85,95.76,6
112,102.05,95.92,6
112,102.25,96.08,6
113,102.46,96.25,6
112,102.66,96.41,6
113,102.86,96.58,6
116,103.12,96.77,6
114,103.34,96.94,6
113,103.54,97.10,6
114,103.74,97.27,6
113,103.93,97.43,6
113,104.11,97.59,6
113,104.29,97.74,6
111,104.42,97.87,6
114,104.61,98.03,6
116,104.84,98.21,6
114,105.03,98.37,6
114,105.21,98.53,6
114,105.38,98.68,6
116,105.59,98.86,6
117,105.82,99.04,6
116,106.03,99.21,6
117,106.24,99.38,6
119,106.50,99.58,6
118,106.73,99.76,6
119,106.98,99.96,6
118,107.20,100.14,6
119,107.43,100.33,6
118,107.64,100.50,6
119,107.87,100.69,6
119,108.09,100.87,6
120,108.33,101.06,6
121,108.58,101.26,6
125,108.91,101.50,6
121,109.15,101.69,6
123,109.43,101.91,6
125,109.74,102.14,6
125,110.05,102.37,6
126,110.37,102.60,6
126,110.68,102.84,6
128,111.03,103.09,6
129,111.39,103.35,6
129,111.74,103.60,6
129,112.08,103.86,6
132,112.48,104.14,6
132,112.87,104.42,6
131,113.23,104.68,6
132,113.61,104.96,6
131,113.96,105.22,6
132,114.32,105.49,6
131,114.65,105.74,6
132,115.00,106.00,6
131,115.32,106.25,6
132,115.65,106.51,6
132,115.98,106.77,6
131,116.28,107.01,6
132,116.59,107.26,6
133,116.92,107.52,6
133,117.24,107.77,6
135,117.60,108.04,6
133,117.91,108.29,6
135,118.25,108.56,6
135,118.58,108.82,6
136,118.93,109.10,6
136,119.27,109.36,6
136,119.61,109.63,6
136,119.94,109.89,6
137,120.28,110.17,6
138,120.63,110.44,6
137,120.96,110.71,6
138,121.30,110.98,6
138,121.63,111.25,6
138,121.96,111.52,6
139,122.30,111.79,6
139,122.64,112.07,6
139,122.96,112.34,6
139,123.28,112.60,6
139,123.60,112.87,6
139,123.91,113.13,6
138,124.19,113.38,6
139,124.48,113.63,6
139,124.77,113.89,6
139,125.06,114.14,6
137,125.30,114.37,6
140,125.59,114.62,6
140,125.88,114.88,6
139,126.14,115.12,6
141,126.44,115.38,6
141,126.73,115.63,6
142,127.04,115.90,6
143,127.36,116.17,6
143,127.67,116.44,6
143,127.98,116.70,6
145,128.32,116.98,6
146,128.67,117.27,6
146,129.02,117.56,6
145,129.34,117.84,6
145,129.65,118.11,6
147,130.00,118.40,6
148,130.36,118.69,6
148,130.71,118.99,6
147,131.03,119.27,6
148,131.37,119.55,6
147,131.69,119.83,6
148,132.01,120.11,6
147,132.31,120.38,6
148,132.63,120.65,6
149,132.95,120.94,6
149,133.27,121.22,6
149,133.59,121.50,6
150,133.92,121.78,6
150,134.24,122.06,6
152,134.59,122.36,6
152,134.94,122.66,6
153,135.30,122.96,6
153,135.66,123.26,6
153,136.00,123.56,6
153,136.34,123.86,6
154,136.70,124.16,6
154,137.04,124.46,6
153,137.36,124.74,6
156,137.74,125.05,6
157,138.12,125.37,6
157,138.50,125.69,6
157,138.87,126.00,6
160,139.29,126.34,6
160,139.71,126.68,6
164,140.19,127.05,6
161,140.61,127.39,6
161,141.02,127.73,6
161,141.41,128.06,6
162,141.83,128.40,6
163,142.25,128.75,6
163,142.66,129.09,6
164,143.09,129.44,6
165,143.53,129.79,6
164,143.94,130.13,6
165,144.36,130.48,6
164,144.75,130.82,6
164,145.14,131.15,6
165,145.54,131.49,6
164,145.90,131.81,6
164,146.27,132.14,6
163,146.60,132.44,6
163,146.93,132.75,6
163,147.25,133.05,6
164,147.59,133.36,6
163,147.89,133.66,6
163,148.20,133.95,6
163,148.49,134.24,6
163,148.78,134.53,6
163,149.07,134.81,6
163,149.35,135.10,6
164,149.64,135.39,6
163,149.91,135.66,6
165,150.21,135.96,6
165,150.50,136.25,6
164,150.77,136.52,6
166,151.08,136.82,6
166,151.38,137.11,6
166,151.67,137.40,6
165,151.94,137.67,6
165,152.20,137.95,6
167,152.49,138.24,6
169,152.82,138.55,6
169,153.15,138.85,6
169,153.46,139.15,6
170,153.79,139.46,6
171,154.14,139.78,6
173,154.52,140.11,6
172,154.87,140.43,6
173,155.23,140.75,6
175,155.62,141.10,6
175,156.01,141.43,6
175,156.39,141.77,6
175,156.76,142.10,6
175,157.13,142.43,6
175,157.49,142.76,6
176,157.86,143.09,6
176,158.22,143.42,6
175,158.55,143.73,6
175,158.88,144.05,6
176,159.23,144.37,6
175,159.54,144.67,6
176,159.87,144.99,6
175,160.17,145.29,6
176,160.49,145.59,6
175,160.78,145.89,6
175,161.06,146.18,6
175,161.34,146.47,6
175,161.62,146.75,6
175,161.88,147.03,6
177,162.19,147.33,6
175,162.44,147.61,6
175,162.69,147.88,6
177,162.98,148.18,6
177,163.26,148.46,6
175,163.49,148.73,6
176,163.74,149.00,6
177,164.01,149.28,6
177,164.27,149.56,6
178,164.54,149.84,6
177,164.79,150.12,6
177,165.04,150.38,6
177,165.28,150.65,6
176,165.49,150.90,6
177,165.72,151.16,6
177,165.95,151.42,6
177,166.17,151.68,6
177,166.38,151.93,6
177,166.60,152.18,6
177,166.80,152.43,6
177,167.01,152.68,6
178,167.23,152.93,6
179,167.46,153.19,6
177,167.65,153.43,6
179,167.88,153.68,6
177,168.06,153.92,6
177,168.24,154.15,6
177,168.42,154.38,6
177,168.59,154.60,6
176,168.74,154.82,6
177,168.90,155.04,6
176,169.04,155.25,6
177,169.20,155.47,6
176,169.34,155.67,6
177,169.49,155.88,6
176,169.62,156.09,6
176,169.75,156.29,6
175,169.86,156.47,6
176,169.98,156.67,6
175,170.08,156.85,6
176,170.20,157.04,6
175,170.29,157.22,6
175,170.39,157.40,6
175,170.48,157.58,6
175,170.57,157.75,6
175,170.66,157.92,6
175,170.75,158.09,6
175,170.83,158.26,6
174,170.89,158.42,6
174,170.96,158.58,6
173,171.00,158.72,6
173,171.04,158.86,6
173,171.08,159.00,6
173,171.12,159.14,6
173,171.15,159.28,6
173,171.19,159.42,6
172,171.21,159.55,6
171,171.20,159.66,6
171,171.20,159.77,6
172,171.21,159.90,6
169,171.17,159.99,6
172,171.19,160.11,6
172,171.20,160.23,6
171,171.20,160.33,6
172,171.21,160.45,6
172,171.23,160.57,6
172,171.25,160.68,6
172,171.26,160.79,6
172,171.28,160.91,6
172,171.29,161.02,6
171,171.28,161.12,6
171,171.28,161.21,6
172,171.29,161.32,6
171,171.29,161.42,6
170,171.26,161.51,6
171,171.26,161.60,6
169,171.21,161.67,6
169,171.17,161.75,6
169,171.12,161.82,6
169,171.08,161.89,6
168,171.02,161.95,6
169,170.98,162.02,6
169,170.94,162.09,6
169,170.90,162.16,6
168,170.84,162.22,6
167,170.77,162.27,6
167,170.69,162.32,6
168,170.64,162.37,6
167,170.56,162.42,6
167,170.49,162.46,6
167,170.42,162.51,6
167,170.35,162.55,6
167,170.29,162.60,6
166,170.20,162.63,6
166,170.12,162.67,6
165,170.02,162.69,6
165,169.91,162.71,6
165,169.82,162.74,6
165,169.72,162.76,6
164,169.61,162.77,6
161,169.43,162.75,6
165,169.35,162.78,6
164,169.24,162.79,6
163,169.11,162.79,6
164,169.01,162.80,6
163,168.89,162.80,6
163,168.77,162.81,6
162,168.64,162.80,6
161,168.48,162.78,6
161,168.34,162.76,6
162,168.21,162.76,6
161,168.06,162.74,6
162,167.94,162.73,6
161,167.80,162.71,6
161,167.67,162.70,6
161,167.53,162.68,6
160,167.38,162.65,6
160,167.24,162.63,6
160,167.09,162.60,6
159,166.93,162.56,6
159,166.77,162.53,6
160,166.64,162.50,6
159,166.48,162.47,6
159,166.33,162.43,6
159,166.19,162.40,6
158,166.02,162.35,6
158,165.86,162.31,6
159,165.73,162.28,6
157,165.55,162.22,6
157,165.38,162.17,6
157,165.21,162.12,6
157,165.05,162.07,6
157,164.89,162.02,6
156,164.71,161.96,6
156,164.54,161.90,6
156,164.36,161.84,6
156,164.20,161.78,6
155,164.01,161.71,6
155,163.83,161.65,6
157,163.70,161.60,6
156,163.54,161.54,6
155,163.37,161.48,6
154,163.18,161.40,6
154,163.00,161.33,6
155,162.84,161.27,6
153,162.64,161.18,6
153,162.45,161.10,6
153,162.26,161.02,6
153,162.08,160.94,6
153,161.89,160.86,6
152,161.70,160.77,6
151,161.48,160.68,6
152,161.29,160.59,6
151,161.09,160.49,6
151,160.89,160.40,6
151,160.69,160.30,6
151,160.49,160.21,6
151,160.30,160.12,6
151,160.12,160.03,7
151,159.94,159.94,7
150,159.74,159.84,8
151,159.56,159.75,8
150,159.37,159.65,8
149,159.16,159.55,8
150,158.98,159.45,8
149,158.78,159.35,8
150,158.61,159.25,8
149,158.41,159.15,8
149,158.23,159.05,8
148,158.02,158.94,8
148,157.82,158.83,8
147,157.60,158.71,8
148,157.41,158.60,8
147,157.20,158.49,8
148,157.02,158.38,8
147,156.82,158.27,8
148,156.64,158.17,8
148,156.47,158.06,8
148,156.30,157.96,8
148,156.13,157.86,8
147,155.95,157.75,8
147,155.77,157.65,8
146,155.58,157.53,8
147,155.41,157.43,8
146,155.22,157.31,8
145,155.01,157.19,8
145,154.81,157.07,8
145,154.62,156.95,8
145,154.42,156.83,8
145,154.24,156.71,8
144,154.03,156.58,8
144,153.83,156.46,8
145,153.65,156.34,8
145,153.48,156.23,8
143,153.27,156.09,8
143,153.07,155.96,8
143,152.86,155.83,8
143,152.67,155.71,8
143,152.47,155.58,8
144,152.30,155.46,8
143,152.12,155.34,8
143,151.94,155.22,8
143,151.76,155.09,8
143,151.58,154.97,8
143,151.41,154.85,8
143,151.24,154.73,8
143,151.08,154.62,8
144,150.94,154.51,8
143,150.78,154.40,8
143,150.62,154.28,8
142,150.45,154.16,8
143,150.30,154.05,8
143,150.15,153.94,8
143,150.01,153.83,8
142,149.85,153.71,8
142,149.69,153.59,8
143,149.56,153.49,8
143,149.43,153.38,8
141,149.26,153.26,8
141,149.10,153.13,8
141,148.93,153.01,8
141,148.77,152.89,8
142,148.64,152.78,8
140,148.47,152.66,8
140,148.30,152.53,8
140,148.13,152.40,8
139,147.95,152.27,8
140,147.79,152.15,8
140,147.63,152.03,8
140,147.48,151.91,8
140,147.33,151.79,8
139,147.16,151.66,8
139,147.00,151.53,8
139,146.84,151.41,8
138,146.66,151.27,8
138,146.49,151.14,8
137,146.30,151.00,8
137,146.12,150.86,8
137,145.93,150.72,8
137,145.75,150.58,8
137,145.58,150.45,8
137,145.41,150.31,8
137,145.24,150.18,8
136,145.05,150.04,8
136,144.87,149.90,8
137,144.72,149.77,8
137,144.56,149.64,8
136,144.39,149.50,8
137,144.24,149.38,8
135,144.06,149.24,8
136,143.90,149.10,8
137,143.76,148.98,8
137,143.62,148.86,8
137,143.49,148.74,8
135,143.32,148.61,8
135,143.16,148.47,8
136,143.01,148.35,8
135,142.85,148.21,8
135,142.69,148.08,8
135,142.54,147.95,8
135,142.39,147.82,8
135,142.24,147.69,8
135,142.10,147.56,8
135,141.96,147.44,8
134,141.80,147.30,8
135,141.66,147.18,8
134,141.51,147.05,8
133,141.34,146.91,8
133,141.17,146.77,8
133,141.01,146.63,8
134,140.87,146.51,8
133,140.71,146.37,8
133,140.56,146.24,8
134,140.42,146.11,8
133,140.28,145.98,8
133,140.13,145.85,8
133,139.99,145.73,8
133,139.85,145.60,8
132,139.69,145.46,8
132,139.54,145.33,8
132,139.39,145.19,8
131,139.22,145.05,8
132,139.07,144.92,8
131,138.91,144.78,8
131,138.75,144.64,8
131,138.60,144.51,8
132,138.47,144.38,8
131,138.32,144.25,8
134,138.23,144.15,8
130,138.07,144.01,8
131,137.93,143.88,8
129,137.75,143.73,8
129,137.57,143.58,8
129,137.40,143.43,8
130,137.25,143.30,8
129,137.09,143.16,8
129,136.93,143.01,8
129,136.77,142.87,8
128,136.59,142.73,8
129,136.44,142.59,8
129,136.29,142.45,8
129,136.15,142.32,8
128,135.98,142.17,8
128,135.82,142.03,8
128,135.67,141.89,8
127,135.49,141.74,8
127,135.32,141.60,8
127,135.16,141.45,8
127,134.99,141.31,8
127,134.83,141.16,8
127,134.68,141.02,8
127,134.52,140.88,8
126,134.35,140.73,8
127,134.21,140.59,8
125,134.02,140.44,8
126,133.86,140.29,8
126,133.70,140.15,8
125,133.53,140.00,8
125,133.36,139.85,8
125,133.19,139.70,8
125,133.03,139.55,8
125,132.87,139.41,8
125,132.71,139.26,8
125,132.56,139.12,8
125,132.41,138.98,8
125,132.26,138.84,8
125,132.11,138.70,8
127,132.01,138.59,8
125,131.87,138.45,8
124,131.71,138.31,8
124,131.56,138.16,8
124,131.41,138.02,8
123,131.24,137.87,8
123,131.07,137.72,8
123,130.91,137.57,8
123,130.75,137.43,8
123,130.60,137.28,8
122,130.43,137.13,8
122,130.26,136.98,8
121,130.07,136.82,8
122,129.91,136.67,8
122,129.75,136.53,8
122,129.60,136.38,8
123,129.47,136.25,8
121,129.30,136.09,8
123,129.17,135.96,8
121,129.01,135.81,8
121,128.85,135.67,8
121,128.69,135.52,8
121,128.54,135.37,8
119,128.35,135.21,8
121,128.20,135.07,8
121,128.06,134.93,8
120,127.89,134.78,8
120,127.74,134.63,8
119,127.56,134.47,8
119,127.39,134.32,8
119,127.22,134.17,8
119,127.06,134.01,8
119,126.90,133.86,8
119,126.74,133.72,8
119,126.58,133.57,8
117,126.39,133.40,8
119,126.24,133.26,8
118,126.08,133.11,8
119,125.94,132.96,8
118,125.78,132.82,8
118,125.62,132.67,8
119,125.49,132.53,8
117,125.32,132.38,8
117,125.16,132.22,8
117,124.99,132.07,8
117,124.83,131.92,8
117,124.68,131.77,8
117,124.52,131.62,8
117,124.37,131.48,8
117,124.22,131.33,8
