Teste de posicionamento 3(EMG tendao-inervacao (Vermelho A, Verde C) + Ref no pulso) - 16/04/2024 - teste2 - 5 contrações
long frequencia = 1000;                 //frequência de aquisição do sinal, neste caso, 1000 sinais por segundo
float fator1 = 0.02, fator2 = 0.01;
float incerteza = 0.13;
float pico_basal = 130; // Mínimo para ser considerado um pico de contração
int filtro_horizontal=200000; //intervalo de 200ms valores não pode ter mais de 1 contração

Biceps_D,mediaMovel_1,mediaMovel_2,Contracao
73,1.46,0.73,0
72,2.87,1.44,0
72,4.25,2.15,0
73,5.63,2.86,0
72,6.96,3.55,0
73,8.28,4.24,0
74,9.59,4.94,0
72,10.84,5.61,0
73,12.08,6.28,0
72,13.28,6.94,0
73,14.48,7.60,0
73,15.65,8.26,0
73,16.79,8.90,0
72,17.90,9.53,0
72,18.98,10.16,0
72,20.04,10.78,0
72,21.08,11.39,0
74,22.14,12.02,0
72,23.13,12.62,0
72,24.11,13.21,0
72,25.07,13.80,0
72,26.01,14.38,0
72,26.93,14.96,0
73,27.85,15.54,0
72,28.73,16.10,0
74,29.64,16.68,0
72,30.48,17.23,0
73,31.34,17.79,0
73,32.17,18.34,0
74,33.01,18.90,0
74,33.83,19.45,0
73,34.61,19.99,0
74,35.40,20.53,0
73,36.15,21.05,0
73,36.89,21.57,0
74,37.63,22.09,0
74,38.36,22.61,0
74,39.07,23.13,0
74,39.77,23.64,0
73,40.43,24.13,0
73,41.08,24.62,0
74,41.74,25.11,0
74,42.39,25.60,0
73,43.00,26.08,0
76,43.66,26.57,0
73,44.25,27.04,0
74,44.84,27.51,0
73,45.40,27.96,0
73,45.96,28.41,0
73,46.50,28.86,0
73,47.03,29.30,0
73,47.55,29.74,0
73,48.06,30.17,0
72,48.53,30.59,0
73,49.02,31.01,0
74,49.52,31.44,0
73,49.99,31.86,0
73,50.45,32.27,0
74,50.92,32.69,0
72,51.35,33.08,0
75,51.82,33.50,0
74,52.26,33.90,0
74,52.70,34.31,0
74,53.12,34.70,0
74,53.54,35.10,0
74,53.95,35.48,0
74,54.35,35.87,0
74,54.74,36.25,0
74,55.13,36.63,0
74,55.51,37.00,0
74,55.88,37.37,0
73,56.22,37.73,0
73,56.55,38.08,0
73,56.88,38.43,0
72,57.19,38.77,0
73,57.50,39.11,0
73,57.81,39.45,0
73,58.12,39.78,0
72,58.39,40.11,0
74,58.71,40.44,0
73,58.99,40.77,0
72,59.25,41.08,0
74,59.55,41.41,0
73,59.82,41.73,0
74,60.10,42.05,0
74,60.38,42.37,0
74,60.65,42.69,0
73,60.90,42.99,0
73,61.14,43.29,0
74,61.40,43.60,0
74,61.65,43.90,0
74,61.89,44.20,0
73,62.12,44.49,0
74,62.35,44.78,0
73,62.57,45.07,0
73,62.78,45.35,0
73,62.98,45.62,0
73,63.18,45.90,0
72,63.36,46.16,0
73,63.55,46.43,0
73,63.74,46.69,0
74,63.94,46.96,0
73,64.13,47.22,0
73,64.30,47.48,0
72,64.46,47.73,0
72,64.61,47.97,0
72,64.76,48.21,0
73,64.92,48.46,0
72,65.06,48.69,0
72,65.20,48.93,0
72,65.34,49.16,0
73,65.49,49.40,0
72,65.62,49.62,0
73,65.77,49.86,0
72,65.89,50.08,0
73,66.03,50.31,0
72,66.15,50.52,0
72,66.27,50.74,0
73,66.41,50.96,0
72,66.52,51.17,0
72,66.63,51.38,0
73,66.75,51.60,0
72,66.86,51.80,0
72,66.96,52.00,0
73,67.08,52.21,0
72,67.18,52.41,0
72,67.28,52.61,0
73,67.39,52.81,0
72,67.48,53.00,0
72,67.57,53.19,0
72,67.66,53.38,0
74,67.79,53.59,0
74,67.91,53.79,0
72,68.00,53.97,0
72,68.08,54.15,0
72,68.15,54.33,0
72,68.23,54.51,0
72,68.31,54.68,0
72,68.38,54.86,0
73,68.47,55.04,0
73,68.56,55.22,0
72,68.63,55.38,0
72,68.70,55.55,0
73,68.79,55.73,0
72,68.85,55.89,0
71,68.89,56.04,0
72,68.96,56.20,0
73,69.04,56.37,0
72,69.10,56.52,0
72,69.15,56.68,0
72,69.21,56.83,0
72,69.27,56.98,0
72,69.32,57.13,0
72,69.37,57.28,0
70,69.39,57.41,0
71,69.42,57.54,0
72,69.47,57.69,0
72,69.52,57.83,0
70,69.53,57.95,0
71,69.56,58.08,0
71,69.59,58.21,0
71,69.62,58.34,0
70,69.62,58.46,0
72,69.67,58.59,0
72,69.72,58.73,0
71,69.74,58.85,0
70,69.75,58.96,0
71,69.77,59.08,0
71,69.80,59.20,0
70,69.80,59.31,0
72,69.85,59.44,0
72,69.89,59.56,0
71,69.91,59.68,0
71,69.93,59.79,0
71,69.96,59.90,0
72,70.00,60.02,0
71,70.02,60.13,0
70,70.02,60.23,0
72,70.06,60.35,0
71,70.07,60.46,0
70,70.07,60.55,0
74,70.15,60.69,0
72,70.19,60.80,0
71,70.20,60.90,0
71,70.22,61.00,0
70,70.22,61.09,0
70,70.21,61.18,0
71,70.23,61.28,0
70,70.22,61.37,0
69,70.20,61.44,0
71,70.21,61.54,0
70,70.21,61.62,0
72,70.25,61.73,0
72,70.28,61.83,0
70,70.28,61.91,0
71,70.29,62.00,0
71,70.30,62.09,0
69,70.28,62.16,0
70,70.27,62.24,0
71,70.29,62.33,0
70,70.28,62.40,0
70,70.28,62.48,0
70,70.27,62.55,0
71,70.29,62.64,0
71,70.30,62.72,0
70,70.29,62.80,0
70,70.29,62.87,0
71,70.30,62.95,0
70,70.30,63.02,0
72,70.33,63.11,0
70,70.32,63.18,0
70,70.32,63.25,0
71,70.33,63.32,0
69,70.30,63.38,0
70,70.30,63.45,0
71,70.31,63.52,0
70,70.31,63.59,0
71,70.32,63.66,0
70,70.31,63.72,0
70,70.31,63.79,0
72,70.34,63.87,0
70,70.33,63.93,0
70,70.33,63.99,0
70,70.32,64.05,0
70,70.31,64.11,0
70,70.31,64.17,0
70,70.30,64.23,0
71,70.32,64.30,0
71,70.33,64.36,0
70,70.32,64.42,0
70,70.32,64.48,0
71,70.33,64.54,0
70,70.32,64.59,0
70,70.32,64.65,0
70,70.31,64.70,0
71,70.32,64.77,0
70,70.32,64.82,0
70,70.31,64.87,0
70,70.31,64.92,0
70,70.30,64.97,0
69,70.27,65.01,0
70,70.27,65.06,0
70,70.26,65.11,0
70,70.26,65.16,0
70,70.25,65.21,0
70,70.25,65.26,0
70,70.24,65.30,0
70,70.24,65.35,0
70,70.23,65.40,0
70,70.23,65.44,0
70,70.22,65.49,0
71,70.24,65.54,0
72,70.27,65.61,0
70,70.27,65.65,0
70,70.26,65.70,0
71,70.28,65.75,0
72,70.31,65.81,0
70,70.31,65.85,0
71,70.32,65.90,0
71,70.33,65.96,0
70,70.33,66.00,0
72,70.36,66.06,0
70,70.35,66.10,0
72,70.39,66.15,0
72,70.42,66.21,0
71,70.43,66.26,0
72,70.46,66.32,0
72,70.49,66.38,0
71,70.50,66.42,0
71,70.51,66.47,0
71,70.52,66.51,0
71,70.53,66.56,0
71,70.54,66.60,0
72,70.57,66.66,0
70,70.56,66.69,0
72,70.59,66.74,0
70,70.58,66.78,0
70,70.56,66.81,0
70,70.55,66.84,0
72,70.58,66.89,0
71,70.59,66.93,0
70,70.58,66.96,0
71,70.59,67.00,0
71,70.60,67.04,0
73,70.64,67.10,0
72,70.67,67.15,0
70,70.66,67.18,0
70,70.64,67.21,0
70,70.63,67.24,0
70,70.62,67.26,0
70,70.61,67.29,0
70,70.59,67.32,0
69,70.56,67.33,0
70,70.55,67.36,0
70,70.54,67.39,0
70,70.53,67.41,0
72,70.56,67.46,0
69,70.53,67.48,0
69,70.50,67.49,0
69,70.47,67.51,0
69,70.44,67.52,0
69,70.41,67.54,0
69,70.38,67.55,0
69,70.35,67.56,0
69,70.33,67.58,0
69,70.30,67.59,0
68,70.25,67.60,0
69,70.23,67.61,0
69,70.20,67.63,0
69,70.18,67.64,0
68,70.14,67.64,0
69,70.11,67.66,0
67,70.05,67.65,0
69,70.03,67.66,0
68,69.99,67.67,0
68,69.95,67.67,0
69,69.93,67.68,0
68,69.89,67.69,0
68,69.85,67.69,0
69,69.84,67.70,0
69,69.82,67.72,0
68,69.78,67.72,0
68,69.75,67.72,0
69,69.73,67.73,0
67,69.68,67.73,0
68,69.65,67.73,0
68,69.61,67.73,0
69,69.60,67.74,0
69,69.59,67.76,0
68,69.56,67.76,0
68,69.53,67.76,0
68,69.49,67.76,0
70,69.50,67.79,0
68,69.47,67.79,0
68,69.45,67.79,0
69,69.44,67.80,0
69,69.43,67.82,0
68,69.40,67.82,0
70,69.41,67.84,0
69,69.40,67.85,0
68,69.37,67.85,0
68,69.35,67.85,0
69,69.34,67.86,0
69,69.33,67.88,0
68,69.31,67.88,0
70,69.32,67.90,0
68,69.29,67.90,0
68,69.27,67.90,0
68,69.24,67.90,0
68,69.22,67.90,0
68,69.19,67.90,0
68,69.17,67.90,0
68,69.15,67.91,0
68,69.12,67.91,0
68,69.10,67.91,0
68,69.08,67.91,0
68,69.06,67.91,0
68,69.04,67.91,0
68,69.02,67.91,0
67,68.98,67.90,0
67,68.94,67.89,0
68,68.92,67.89,0
67,68.88,67.89,0
67,68.84,67.88,0
67,68.80,67.87,0
67,68.77,67.86,0
67,68.73,67.85,0
67,68.70,67.84,0
68,68.68,67.84,0
68,68.67,67.84,0
67,68.64,67.84,0
67,68.60,67.83,0
68,68.59,67.83,0
66,68.54,67.81,0
67,68.51,67.80,0
67,68.48,67.80,0
67,68.45,67.79,0
66,68.40,67.77,0
66,68.35,67.75,0
67,68.33,67.74,0
66,68.28,67.73,0
66,68.23,67.71,0
66,68.19,67.69,0
66,68.15,67.68,0
68,68.14,67.68,0
66,68.10,67.66,0
66,68.06,67.65,0
65,68.00,67.62,0
65,67.94,67.59,0
66,67.90,67.58,0
66,67.86,67.56,0
66,67.82,67.55,0
65,67.77,67.52,0
66,67.73,67.50,0
66,67.70,67.49,0
66,67.66,67.47,0
66,67.63,67.46,0
66,67.60,67.45,0
66,67.56,67.43,0
66,67.53,67.42,0
66,67.50,67.40,0
66,67.47,67.39,0
66,67.44,67.37,0
66,67.41,67.36,0
66,67.39,67.35,0
66,67.36,67.33,0
66,67.33,67.32,0
65,67.28,67.30,0
67,67.28,67.29,0
66,67.25,67.28,0
66,67.23,67.27,0
69,67.26,67.29,0
66,67.24,67.27,0
66,67.21,67.26,0
66,67.19,67.25,0
65,67.15,67.23,0
65,67.10,67.20,0
66,67.08,67.19,0
65,67.04,67.17,0
63,66.96,67.13,0
65,66.92,67.11,0
66,66.90,67.10,0
66,66.88,67.08,0
65,66.84,67.06,0
64,66.79,67.03,0
64,66.73,67.00,0
66,66.72,66.99,0
65,66.68,66.97,0
66,66.67,66.96,0
65,66.64,66.94,0
64,66.58,66.91,0
66,66.57,66.90,0
64,66.52,66.88,0
64,66.47,66.85,0
66,66.46,66.84,0
65,66.43,66.82,0
65,66.40,66.80,0
64,66.35,66.77,0
66,66.35,66.77,0
65,66.32,66.75,0
66,66.31,66.74,0
66,66.31,66.73,0
66,66.30,66.73,0
65,66.28,66.71,0
65,66.25,66.69,0
64,66.21,66.66,0
64,66.16,66.64,0
65,66.14,66.62,0
65,66.12,66.61,0
65,66.09,66.59,0
64,66.05,66.56,0
65,66.03,66.55,0
64,65.99,66.52,0
65,65.97,66.51,0
65,65.95,66.49,0
64,65.91,66.47,0
67,65.93,66.47,0
64,65.89,66.45,0
64,65.86,66.42,0
65,65.84,66.41,0
65,65.82,66.40,0
64,65.79,66.37,0
64,65.75,66.35,0
64,65.72,66.32,0
65,65.70,66.31,0
64,65.67,66.29,0
64,65.63,66.26,0
64,65.60,66.24,0
64,65.57,66.22,0
64,65.54,66.20,0
64,65.51,66.18,0
66,65.52,66.17,0
64,65.49,66.15,0
64,65.46,66.13,0
64,65.43,66.11,0
64,65.40,66.09,0
65,65.39,66.08,0
64,65.36,66.06,0
64,65.34,66.04,0
66,65.35,66.04,0
66,65.36,66.04,0
64,65.33,66.01,0
64,65.31,65.99,0
65,65.30,65.98,0
64,65.28,65.96,0
64,65.25,65.95,0
64,65.23,65.93,0
64,65.20,65.91,0
65,65.20,65.90,0
64,65.17,65.88,0
64,65.15,65.86,0
64,65.13,65.84,0
64,65.10,65.82,0
64,65.08,65.80,0
64,65.06,65.79,0
64,65.04,65.77,0
64,65.02,65.75,0
66,65.04,65.75,0
66,65.06,65.76,0
65,65.06,65.75,0
64,65.04,65.73,0
64,65.01,65.71,0
64,64.99,65.70,0
65,64.99,65.69,0
64,64.97,65.67,0
66,64.99,65.68,0
64,64.97,65.66,0
65,64.98,65.65,0
64,64.96,65.64,0
64,64.94,65.62,0
64,64.92,65.60,0
65,64.92,65.60,0
64,64.90,65.58,0
65,64.90,65.58,0
64,64.89,65.56,0
65,64.89,65.55,0
66,64.91,65.56,0
65,64.91,65.55,0
65,64.91,65.55,0
66,64.94,65.55,0
66,64.96,65.56,0
64,64.94,65.54,0
64,64.92,65.53,0
64,64.90,65.51,0
65,64.90,65.51,0
65,64.90,65.50,0
66,64.93,65.51,0
64,64.91,65.49,0
65,64.91,65.49,0
64,64.89,65.47,0
64,64.87,65.46,0
64,64.86,65.44,0
64,64.84,65.43,0
64,64.82,65.41,0
63,64.79,65.39,0
64,64.77,65.37,0
63,64.73,65.35,0
64,64.72,65.34,0
64,64.71,65.32,0
65,64.71,65.32,0
64,64.70,65.31,0
64,64.68,65.29,0
64,64.67,65.28,0
64,64.66,65.27,0
64,64.64,65.26,0
63,64.61,65.23,0
64,64.60,65.22,0
64,64.59,65.21,0
63,64.55,65.19,0
64,64.54,65.17,0
64,64.53,65.16,0
65,64.54,65.16,0
64,64.53,65.15,0
64,64.52,65.14,0
64,64.51,65.13,0
66,64.54,65.14,0
64,64.53,65.12,0
64,64.52,65.11,0
64,64.51,65.10,0
64,64.50,65.09,0
64,64.49,65.08,0
64,64.48,65.07,0
64,64.47,65.06,0
64,64.46,65.05,0
64,64.45,65.04,0
62,64.40,65.01,0
62,64.35,64.98,0
63,64.33,64.96,0
63,64.30,64.94,0
62,64.25,64.91,0
62,64.21,64.88,0
64,64.20,64.87,0
63,64.18,64.85,0
62,64.14,64.82,0
62,64.09,64.79,0
62,64.05,64.77,0
63,64.03,64.75,0
62,63.99,64.72,0
62,63.95,64.69,0
62,63.91,64.67,0
62,63.87,64.64,0
62,63.84,64.61,0
62,63.80,64.59,0
63,63.78,64.57,0
62,63.75,64.55,0
62,63.71,64.52,0
64,63.72,64.52,0
63,63.70,64.50,0
62,63.67,64.48,0
64,63.68,64.47,0
62,63.64,64.45,0
62,63.61,64.42,0
62,63.58,64.40,0
62,63.55,64.37,0
61,63.50,64.34,0
62,63.47,64.32,0
62,63.44,64.29,0
62,63.41,64.27,0
61,63.36,64.24,0
62,63.33,64.22,0
62,63.31,64.19,0
62,63.28,64.17,0
62,63.25,64.15,0
61,63.21,64.12,0
62,63.18,64.10,0
63,63.18,64.09,0
62,63.16,64.07,0
63,63.15,64.05,0
64,63.17,64.05,0
62,63.15,64.03,0
61,63.10,64.00,0
62,63.08,63.98,0
61,63.04,63.95,0
62,63.02,63.93,0
61,62.98,63.90,0
62,62.96,63.89,0
61,62.92,63.86,0
61,62.88,63.83,0
62,62.86,63.81,0
61,62.83,63.78,0
61,62.79,63.75,0
62,62.78,63.74,0
60,62.72,63.70,0
61,62.69,63.67,0
63,62.69,63.67,0
59,62.62,63.62,0
60,62.57,63.58,0
62,62.55,63.57,0
61,62.52,63.54,0
61,62.49,63.52,0
61,62.46,63.49,0
61,62.43,63.47,0
62,62.42,63.45,0
61,62.40,63.43,0
60,62.35,63.39,0
61,62.32,63.37,0
61,62.29,63.34,0
60,62.25,63.31,0
60,62.20,63.28,0
61,62.18,63.26,0
62,62.18,63.24,0
61,62.15,63.22,0
60,62.11,63.19,0
61,62.09,63.17,0
62,62.09,63.15,0
60,62.04,63.12,0
60,62.00,63.09,0
61,61.98,63.07,0
62,61.98,63.06,0
60,61.94,63.03,0
62,61.94,63.02,0
61,61.93,63.00,0
62,61.93,62.99,0
60,61.89,62.96,0
60,61.85,62.93,0
61,61.83,62.91,0
61,61.82,62.89,0
58,61.74,62.84,0
60,61.71,62.81,0
60,61.67,62.79,0
60,61.64,62.76,0
60,61.61,62.73,0
60,61.57,62.70,0
59,61.52,62.67,0
59,61.47,62.63,0
57,61.38,62.57,0
60,61.35,62.55,0
60,61.33,62.52,0
59,61.28,62.49,0
60,61.26,62.46,0
60,61.23,62.44,0
59,61.19,62.40,0
60,61.16,62.38,0
60,61.14,62.35,0
58,61.08,62.31,0
59,61.03,62.28,0
58,60.97,62.24,0
58,60.91,62.19,0
59,60.88,62.16,0
59,60.84,62.13,0
59,60.80,62.10,0
58,60.75,62.06,0
59,60.71,62.03,0
59,60.68,62.00,0
59,60.64,61.97,0
58,60.59,61.93,0
58,60.54,61.89,0
60,60.53,61.87,0
58,60.48,61.83,0
60,60.47,61.81,0
58,60.42,61.77,0
61,60.43,61.77,0
59,60.40,61.74,0
59,60.37,61.71,0
58,60.33,61.67,0
58,60.28,61.64,0
60,60.27,61.62,0
58,60.23,61.58,0
58,60.18,61.55,0
59,60.16,61.52,0
57,60.10,61.48,0
58,60.05,61.44,0
58,60.01,61.41,0
58,59.97,61.37,0
58,59.93,61.34,0
58,59.90,61.31,0
58,59.86,61.27,0
58,59.82,61.24,0
58,59.78,61.21,0
58,59.75,61.18,0
58,59.71,61.15,0
58,59.68,61.11,0
58,59.65,61.08,0
58,59.61,61.05,0
58,59.58,61.02,0
58,59.55,60.99,0
57,59.50,60.95,0
58,59.47,60.92,0
59,59.46,60.90,0
59,59.45,60.88,0
58,59.42,60.85,0
58,59.39,60.83,0
58,59.36,60.80,0
58,59.34,60.77,0
58,59.31,60.74,0
58,59.28,60.71,0
56,59.22,60.67,0
58,59.19,60.64,0
58,59.17,60.61,0
58,59.15,60.59,0
58,59.12,60.56,0
58,59.10,60.54,0
58,59.08,60.51,0
58,59.06,60.49,0
58,59.04,60.46,0
58,59.02,60.44,0
58,59.00,60.41,0
56,58.94,60.37,0
58,58.92,60.34,0
57,58.88,60.31,0
57,58.84,60.28,0
57,58.80,60.25,0
58,58.79,60.22,0
57,58.75,60.19,0
57,58.72,60.16,0
58,58.70,60.14,0
58,58.69,60.12,0
58,58.67,60.09,0
57,58.64,60.06,0
58,58.63,60.04,0
58,58.62,60.02,0
58,58.60,60.00,0
58,58.59,59.98,0
57,58.56,59.95,0
57,58.53,59.92,0
57,58.50,59.89,0
58,58.49,59.87,0
58,58.48,59.86,0
58,58.47,59.84,0
58,58.46,59.82,0
58,58.45,59.80,0
60,58.48,59.80,0
57,58.45,59.77,0
57,58.42,59.75,0
60,58.45,59.75,0
57,58.43,59.72,0
58,58.42,59.71,0
57,58.39,59.68,0
57,58.36,59.65,0
57,58.33,59.62,0
57,58.31,59.60,0
57,58.28,59.57,0
57,58.25,59.55,0
58,58.25,59.53,0
57,58.22,59.51,0
58,58.22,59.49,0
57,58.20,59.47,0
57,58.17,59.44,0
56,58.13,59.41,0
57,58.11,59.38,0
55,58.04,59.34,0
58,58.04,59.33,0
56,58.00,59.29,0
56,57.96,59.26,0
57,57.94,59.24,0
57,57.92,59.21,0
58,57.93,59.20,0
57,57.91,59.18,0
57,57.89,59.16,0
57,57.87,59.14,0
56,57.83,59.11,0
56,57.80,59.07,0
58,57.80,59.06,0
57,57.78,59.04,0
56,57.75,59.01,0
56,57.71,58.98,0
57,57.70,58.96,0
56,57.67,58.93,0
56,57.63,58.90,0
57,57.62,58.88,0
57,57.61,58.87,0
59,57.64,58.87,0
56,57.60,58.84,0
57,57.59,58.82,0
57,57.58,58.80,0
56,57.55,58.77,0
58,57.56,58.77,0
58,57.57,58.76,0
58,57.57,58.75,0
56,57.54,58.72,0
57,57.53,58.71,0
57,57.52,58.69,0
56,57.49,58.66,0
56,57.46,58.64,0
56,57.43,58.61,0
57,57.42,58.59,0
57,57.41,58.58,0
58,57.43,58.57,0
56,57.40,58.55,0
57,57.39,58.53,0
56,57.36,58.51,0
56,57.33,58.48,0
58,57.35,58.48,0
57,57.34,58.46,0
56,57.31,58.44,0
56,57.29,58.41,0
56,57.26,58.39,0
57,57.26,58.37,0
56,57.23,58.35,0
57,57.23,58.34,0
56,57.20,58.31,0
56,57.18,58.29,0
55,57.13,58.26,0
56,57.11,58.23,0
56,57.09,58.21,0
56,57.07,58.19,0
57,57.07,58.18,0
56,57.05,58.16,0
56,57.02,58.13,0
55,56.98,58.10,0
56,56.96,58.08,0
56,56.95,58.06,0
55,56.91,58.03,0
55,56.87,58.00,0
55,56.83,57.97,0
55,56.79,57.94,0
55,56.76,57.91,0
55,56.72,57.88,0
55,56.69,57.85,0
56,56.67,57.83,0
54,56.62,57.80,0
55,56.59,57.77,0
56,56.58,57.75,0
54,56.53,57.71,0
55,56.50,57.69,0
55,56.47,57.66,0
56,56.46,57.64,0
54,56.41,57.61,0
55,56.38,57.58,0
55,56.35,57.55,0
55,56.32,57.53,0
55,56.30,57.50,0
54,56.25,57.47,0
55,56.23,57.44,0
55,56.20,57.42,0
55,56.18,57.40,0
56,56.17,57.38,0
54,56.13,57.35,0
55,56.11,57.32,0
54,56.07,57.29,0
54,56.02,57.26,0
55,56.00,57.24,0
55,55.98,57.21,0
55,55.96,57.19,0
54,55.93,57.16,0
56,55.93,57.15,0
56,55.93,57.14,0
56,55.93,57.12,0
54,55.89,57.09,0
59,55.95,57.11,0
55,55.93,57.09,0
54,55.90,57.06,0
54,55.86,57.03,0
55,55.84,57.01,0
54,55.80,56.98,0
54,55.77,56.95,0
53,55.71,56.91,0
55,55.70,56.89,0
54,55.66,56.86,0
54,55.63,56.83,0
54,55.60,56.81,0
55,55.59,56.79,0
54,55.55,56.76,0
54,55.52,56.73,0
53,55.47,56.69,0
53,55.42,56.66,0
54,55.39,56.63,0
54,55.37,56.60,0
54,55.34,56.58,0
53,55.29,56.54,0
54,55.27,56.52,0
54,55.24,56.49,0
54,55.22,56.47,0
54,55.19,56.44,0
54,55.17,56.42,0
54,55.15,56.39,0
54,55.12,56.37,0
54,55.10,56.35,0
54,55.08,56.32,0
54,55.06,56.30,0
54,55.04,56.28,0
54,55.01,56.25,0
57,55.05,56.26,0
54,55.03,56.24,0
54,55.01,56.22,0
54,54.99,56.19,0
54,54.97,56.17,0
54,54.95,56.15,0
54,54.93,56.13,0
55,54.94,56.12,0
54,54.92,56.10,0
53,54.88,56.07,0
54,54.86,56.04,0
54,54.84,56.02,0
54,54.83,56.00,0
55,54.83,55.99,0
54,54.81,55.97,0
54,54.80,55.95,0
53,54.76,55.92,0
54,54.75,55.91,0
54,54.73,55.89,0
53,54.70,55.86,0
53,54.66,55.83,0
54,54.65,55.81,0
53,54.62,55.78,0
52,54.56,55.74,0
54,54.55,55.73,0
54,54.54,55.71,0
53,54.51,55.68,0
54,54.50,55.67,0
53,54.47,55.64,0
54,54.46,55.62,0
54,54.45,55.61,0
53,54.42,55.58,0
53,54.39,55.56,0
53,54.37,55.53,0
54,54.36,55.51,0
53,54.33,55.49,0
54,54.33,55.47,0
54,54.32,55.46,0
54,54.31,55.44,0
52,54.27,55.41,0
54,54.26,55.40,0
52,54.22,55.36,0
53,54.19,55.34,0
53,54.17,55.32,0
53,54.14,55.29,0
52,54.10,55.26,0
52,54.06,55.23,0
53,54.04,55.20,0
53,54.02,55.18,0
52,53.98,55.15,0
52,53.94,55.12,0
54,53.94,55.11,0
53,53.92,55.09,0
52,53.88,55.06,0
52,53.84,55.03,0
54,53.85,55.02,0
53,53.83,54.99,0
53,53.81,54.97,0
52,53.78,54.95,0
53,53.76,54.93,0
52,53.73,54.90,0
53,53.71,54.88,0
54,53.72,54.87,0
53,53.70,54.85,0
52,53.67,54.82,0
52,53.64,54.79,0
52,53.60,54.77,0
53,53.59,54.75,0
52,53.56,54.72,0
52,53.53,54.69,0
52,53.50,54.67,0
53,53.49,54.65,0
52,53.46,54.62,0
52,53.43,54.60,0
52,53.40,54.57,0
53,53.39,54.56,0
52,53.36,54.53,0
52,53.34,54.50,0
53,53.33,54.49,0
54,53.34,54.48,0
53,53.34,54.47,0
52,53.31,54.44,0
56,53.36,54.46,0
52,53.34,54.44,0
53,53.33,54.42,0
52,53.30,54.40,0
54,53.32,54.39,0
53,53.31,54.38,0
53,53.30,54.37,0
54,53.32,54.36,0
53,53.31,54.35,0
54,53.33,54.34,0
53,53.32,54.33,0
52,53.29,54.31,0
53,53.29,54.29,0
52,53.26,54.27,0
53,53.26,54.26,0
53,53.25,54.25,0
51,53.21,54.21,0
52,53.18,54.19,0
53,53.18,54.18,0
53,53.17,54.17,0
53,53.17,54.16,0
53,53.17,54.15,0
53,53.16,54.13,0
53,53.16,54.12,0
53,53.16,54.11,0
52,53.13,54.09,0
54,53.15,54.09,0
52,53.13,54.07,0
52,53.11,54.05,0
52,53.08,54.03,0
53,53.08,54.02,0
52,53.06,54.00,0
53,53.06,53.99,0
52,53.04,53.97,0
53,53.04,53.96,0
53,53.04,53.95,0
52,53.02,53.93,0
53,53.02,53.92,0
52,53.00,53.90,0
52,52.98,53.88,0
52,52.96,53.86,0
53,52.96,53.85,0
51,52.92,53.82,0
52,52.90,53.81,0
52,52.88,53.79,0
52,52.86,53.77,0
52,52.85,53.75,0
53,52.85,53.75,0
54,52.87,53.75,0
53,52.88,53.74,0
53,52.88,53.73,0
54,52.90,53.74,0
53,52.90,53.73,0
54,52.92,53.73,0
54,52.95,53.73,0
54,52.97,53.74,0
54,52.99,53.74,0
53,52.99,53.73,0
54,53.01,53.73,0
54,53.03,53.74,0
52,53.01,53.72,0
54,53.03,53.72,0
52,53.01,53.71,0
54,53.03,53.71,0
53,53.03,53.70,0
53,53.03,53.69,0
53,53.02,53.69,0
53,53.02,53.68,0
53,53.02,53.67,0
53,53.02,53.67,0
52,53.00,53.65,0
52,52.98,53.63,0
52,52.96,53.62,0
53,52.96,53.61,0
54,52.98,53.61,0
54,53.01,53.62,0
53,53.00,53.61,0
53,53.00,53.61,0
53,53.00,53.60,0
54,53.02,53.60,0
52,53.00,53.59,0
52,52.98,53.57,0
52,52.96,53.56,0
52,52.95,53.54,0
52,52.93,53.53,0
53,52.93,53.52,0
52,52.91,53.51,0
53,52.91,53.50,0
52,52.89,53.49,0
54,52.91,53.49,0
53,52.92,53.49,0
52,52.90,53.47,0
53,52.90,53.47,0
54,52.92,53.47,0
53,52.92,53.47,0
54,52.95,53.47,0
52,52.93,53.46,0
53,52.93,53.45,0
54,52.95,53.46,0
54,52.97,53.46,0
53,52.97,53.46,0
53,52.97,53.45,0
54,52.99,53.46,0
54,53.01,53.47,0
54,53.03,53.47,0
54,53.05,53.48,0
56,53.11,53.50,0
52,53.09,53.49,0
54,53.11,53.49,0
54,53.12,53.50,0
54,53.14,53.50,0
55,53.18,53.52,0
54,53.20,53.52,0
54,53.21,53.53,0
55,53.25,53.54,0
56,53.30,53.57,0
54,53.32,53.57,0
55,53.35,53.58,0
55,53.38,53.60,0
56,53.44,53.62,0
54,53.45,53.63,0
56,53.50,53.65,0
56,53.55,53.67,0
58,53.64,53.72,0
56,53.68,53.74,0
56,53.73,53.76,0
55,53.76,53.77,0
54,53.76,53.78,0
54,53.77,53.78,0
55,53.79,53.79,0
55,53.81,53.80,0
55,53.84,53.81,0
54,53.84,53.82,0
55,53.86,53.83,0
55,53.89,53.84,0
56,53.93,53.86,0
56,53.97,53.88,0
56,54.01,53.90,0
56,54.05,53.93,0
53,54.03,53.92,0
56,54.07,53.94,0
57,54.13,53.97,0
56,54.17,53.99,0
57,54.22,54.02,0
56,54.26,54.04,0
57,54.31,54.07,0
56,54.35,54.09,0
56,54.38,54.11,0
56,54.41,54.12,0
56,54.44,54.14,0
58,54.51,54.18,0
57,54.56,54.21,0
58,54.63,54.25,0
59,54.72,54.30,0
58,54.79,54.33,0
58,54.85,54.37,0
58,54.91,54.41,0
58,54.98,54.44,0
60,55.08,54.50,0
60,55.17,54.55,0
59,55.25,54.60,0
60,55.35,54.65,0
60,55.44,54.70,0
59,55.51,54.75,0
59,55.58,54.79,0
60,55.67,54.84,0
59,55.73,54.88,0
60,55.82,54.93,0
59,55.88,54.98,0
60,55.97,55.03,0
60,56.05,55.08,0
60,56.13,55.12,0
60,56.20,55.17,0
59,56.26,55.21,0
60,56.33,55.26,0
60,56.41,55.31,0
60,56.48,55.35,0
60,56.55,55.40,0
61,56.64,55.46,0
60,56.71,55.50,0
60,56.77,55.55,0
60,56.84,55.59,0
60,56.90,55.64,0
60,56.96,55.68,0
60,57.02,55.72,0
61,57.10,55.77,0
60,57.16,55.82,0
60,57.22,55.86,0
60,57.27,55.90,0
60,57.33,55.94,0
60,57.38,55.98,0
60,57.43,56.02,0
60,57.48,56.06,0
60,57.53,56.10,0
61,57.60,56.15,0
60,57.65,56.19,0
60,57.70,56.23,0
60,57.74,56.26,0
60,57.79,56.30,0
60,57.83,56.34,0
61,57.90,56.39,0
62,57.98,56.44,0
62,58.06,56.50,0
60,58.10,56.53,0
62,58.18,56.59,0
62,58.25,56.64,0
62,58.33,56.69,0
62,58.40,56.75,0
64,58.51,56.82,0
62,58.58,56.87,0
62,58.65,56.92,0
62,58.72,56.97,0
62,58.78,57.02,0
63,58.87,57.08,0
62,58.93,57.13,0
62,58.99,57.18,0
62,59.05,57.23,0
62,59.11,57.28,0
63,59.19,57.34,0
62,59.25,57.38,0
62,59.30,57.43,0
63,59.37,57.48,0
67,59.53,57.58,0
63,59.60,57.63,0
62,59.64,57.68,0
64,59.73,57.74,0
63,59.80,57.79,0
64,59.88,57.85,0
64,59.96,57.92,0
63,60.02,57.97,0
63,60.08,58.02,0
64,60.16,58.08,0
63,60.22,58.13,0
62,60.25,58.17,0
63,60.31,58.21,0
64,60.38,58.27,0
63,60.44,58.32,0
64,60.51,58.38,0
66,60.62,58.45,0
63,60.66,58.50,0
62,60.69,58.53,0
64,60.76,58.59,0
62,60.78,58.62,0
64,60.85,58.67,0
63,60.89,58.72,0
63,60.93,58.76,0
63,60.97,58.80,0
63,61.01,58.85,0
62,61.03,58.88,0
64,61.09,58.93,0
63,61.13,58.97,0
64,61.19,59.02,0
64,61.24,59.07,0
63,61.28,59.11,0
64,61.33,59.16,0
64,61.39,59.21,0
64,61.44,59.25,0
64,61.49,59.30,0
65,61.56,59.36,0
64,61.61,59.40,0
64,61.66,59.45,0
65,61.72,59.51,0
64,61.77,59.55,0
64,61.81,59.60,0
64,61.86,59.64,0
64,61.90,59.68,0
64,61.94,59.73,0
64,61.98,59.77,0
64,62.02,59.81,0
64,62.06,59.85,0
64,62.10,59.89,0
64,62.14,59.94,0
64,62.18,59.98,0
64,62.21,60.02,0
63,62.23,60.05,0
64,62.27,60.09,0
64,62.30,60.12,0
64,62.33,60.16,0
64,62.37,60.20,0
64,62.40,60.24,0
64,62.43,60.28,0
64,62.46,60.31,0
64,62.49,60.35,0
64,62.52,60.39,0
64,62.55,60.42,0
64,62.58,60.46,0
65,62.63,60.51,0
64,62.66,60.54,0
64,62.69,60.57,0
64,62.71,60.61,0
66,62.78,60.66,0
64,62.80,60.70,0
65,62.85,60.74,0
65,62.89,60.78,0
65,62.93,60.82,0
66,62.99,60.88,0
66,63.05,60.93,0
65,63.09,60.97,0
64,63.11,61.00,0
66,63.17,61.05,0
66,63.22,61.10,0
66,63.28,61.15,0
66,63.33,61.20,0
66,63.39,61.24,0
64,63.40,61.27,0
66,63.45,61.32,0
65,63.48,61.36,0
67,63.55,61.41,0
66,63.60,61.46,0
66,63.65,61.50,0
69,63.76,61.58,0
66,63.80,61.62,0
65,63.83,61.66,0
66,63.87,61.70,0
66,63.91,61.74,0
65,63.93,61.77,0
66,63.97,61.82,0
65,64.00,61.85,0
67,64.06,61.90,0
66,64.09,61.94,0
66,64.13,61.98,0
65,64.15,62.01,0
66,64.19,62.05,0
67,64.24,62.10,0
66,64.28,62.14,0
67,64.33,62.19,0
68,64.41,62.25,0
66,64.44,62.28,0
65,64.45,62.31,0
66,64.48,62.35,0
67,64.53,62.40,0
66,64.56,62.43,0
66,64.59,62.47,0
66,64.62,62.50,0
67,64.66,62.55,0
66,64.69,62.58,0
67,64.74,62.63,0
66,64.76,62.66,0
66,64.79,62.69,0
67,64.83,62.74,0
66,64.86,62.77,0
66,64.88,62.80,0
68,64.94,62.85,0
66,64.96,62.88,0
66,64.98,62.92,0
67,65.02,62.96,0
65,65.02,62.98,0
66,65.04,63.01,0
66,65.06,63.04,0
68,65.12,63.09,0
68,65.18,63.14,0
68,65.23,63.18,0
68,65.29,63.23,0
70,65.38,63.30,0
69,65.46,63.36,0
68,65.51,63.40,0
68,65.56,63.45,0
68,65.61,63.50,0
68,65.65,63.54,0
68,65.70,63.59,0
68,65.75,63.63,0
68,65.79,63.67,0
67,65.82,63.71,0
68,65.86,63.75,0
68,65.90,63.79,0
69,65.96,63.84,0
68,66.00,63.89,0
68,66.04,63.93,0
70,66.12,63.99,0
67,66.14,64.02,0
68,66.18,64.06,0
68,66.21,64.10,0
68,66.25,64.14,0
69,66.31,64.18,0
70,66.38,64.24,0
68,66.41,64.28,0
70,66.48,64.34,0
69,66.53,64.38,0
70,66.60,64.44,0
70,66.67,64.50,0
70,66.74,64.55,0
70,66.80,64.61,0
70,66.87,64.66,0
70,66.93,64.71,0
70,66.99,64.77,0
71,67.07,64.83,0
70,67.13,64.88,0
70,67.19,64.93,0
70,67.24,64.98,0
71,67.32,65.04,0
71,67.39,65.10,0
72,67.48,65.17,0
72,67.57,65.24,0
72,67.66,65.31,0
74,67.79,65.39,0
72,67.87,65.46,0
72,67.96,65.52,0
72,68.04,65.59,0
74,68.16,65.67,0
72,68.23,65.74,0
72,68.31,65.80,0
72,68.38,65.86,0
72,68.46,65.92,0
72,68.53,65.98,0
73,68.62,66.05,0
73,68.70,66.12,0
75,68.83,66.21,0
73,68.91,66.28,0
73,68.99,66.35,0
73,69.07,66.41,0
73,69.15,66.48,0
74,69.25,66.55,0
74,69.34,66.63,0
74,69.44,66.70,0
74,69.53,66.78,0
74,69.62,66.85,0
74,69.71,66.92,0
73,69.77,66.98,0
74,69.86,67.05,0
74,69.94,67.12,0
74,70.02,67.19,0
75,70.12,67.27,0
74,70.20,67.33,0
74,70.27,67.40,0
74,70.35,67.47,0
75,70.44,67.54,0
75,70.53,67.62,0
76,70.64,67.70,0
76,70.75,67.78,0
76,70.85,67.87,0
77,70.98,67.96,0
75,71.06,68.03,0
75,71.14,68.10,0
76,71.23,68.18,0
77,71.35,68.26,0
76,71.44,68.34,0
76,71.53,68.42,0
77,71.64,68.50,0
77,71.75,68.59,0
76,71.83,68.66,0
78,71.96,68.76,0
79,72.10,68.86,0
79,72.24,68.96,0
79,72.37,69.06,0
80,72.52,69.17,0
82,72.71,69.30,0
83,72.92,69.44,0
82,73.10,69.56,0
82,73.28,69.69,0
83,73.47,69.82,0
83,73.66,69.95,0
83,73.85,70.08,0
84,74.05,70.22,0
84,74.25,70.36,0
82,74.41,70.47,0
82,74.56,70.59,0
82,74.71,70.70,0
83,74.87,70.83,0
84,75.06,70.96,0
84,75.24,71.09,0
86,75.45,71.24,0
85,75.64,71.38,0
86,75.85,71.52,0
86,76.05,71.67,0
86,76.25,71.81,0
88,76.49,71.97,0
88,76.72,72.13,0
88,76.94,72.29,0
91,77.22,72.48,0
90,77.48,72.65,0
89,77.71,72.82,0
90,77.96,72.99,0
89,78.18,73.15,0
89,78.39,73.31,0
92,78.66,73.49,0
90,78.89,73.66,0
94,79.19,73.86,0
91,79.43,74.03,0
92,79.68,74.21,0
93,79.95,74.40,0
92,80.19,74.58,0
93,80.44,74.76,0
95,80.74,74.96,0
92,80.96,75.13,0
91,81.16,75.29,0
93,81.40,75.47,0
92,81.61,75.64,0
93,81.84,75.81,0
92,82.04,75.97,0
92,82.24,76.13,0
93,82.46,76.30,0
93,82.67,76.47,0
90,82.81,76.60,0
92,83.00,76.76,0
93,83.20,76.92,0
94,83.41,77.09,0
93,83.61,77.25,0
94,83.81,77.42,0
93,84.00,77.57,0
94,84.20,77.74,0
94,84.39,77.90,0
95,84.61,78.07,0
94,84.79,78.23,0
94,84.98,78.39,0
94,85.16,78.54,0
95,85.35,78.71,0
95,85.55,78.87,0
94,85.72,79.02,0
94,85.88,79.17,0
96,86.08,79.34,0
98,86.32,79.53,0
99,86.58,79.72,0
98,86.80,79.90,0
100,87.07,80.10,0
99,87.31,80.29,0
101,87.58,80.50,0
102,87.87,80.72,0
104,88.19,80.95,0
105,88.53,81.19,0
103,88.82,81.41,0
103,89.10,81.62,0
104,89.40,81.85,0
104,89.69,82.07,0
106,90.02,82.31,0
108,90.38,82.56,0
107,90.71,82.81,0
105,91.00,83.03,0
107,91.32,83.27,0
108,91.65,83.52,0
109,92.00,83.77,0
111,92.38,84.05,0
112,92.77,84.32,0
112,93.15,84.60,0
111,93.51,84.87,0
112,93.88,85.14,0
112,94.24,85.41,0
112,94.60,85.67,0
112,94.95,85.93,0
113,95.31,86.21,0
115,95.70,86.49,0
115,96.09,86.78,0
115,96.46,87.06,0
115,96.84,87.34,0
115,97.20,87.62,0
115,97.56,87.89,0
116,97.92,88.17,0
116,98.29,88.45,0
116,98.64,88.73,0
117,99.01,89.01,0
117,99.37,89.29,0
117,99.72,89.57,0
120,100.13,89.87,0
118,100.48,90.15,0
118,100.83,90.43,0
119,101.20,90.72,0
120,101.57,91.01,0
120,101.94,91.30,0
120,102.30,91.58,0
121,102.68,91.88,0
122,103.06,92.18,0
123,103.46,92.49,0
122,103.83,92.78,0
126,104.28,93.12,0
126,104.71,93.44,0
129,105.20,93.80,0
128,105.65,94.14,0
128,106.10,94.48,0
128,106.54,94.82,0
129,106.99,95.16,0
130,107.45,95.51,0
132,107.94,95.87,0
132,108.42,96.23,0
133,108.91,96.60,0
133,109.39,96.96,0
133,109.86,97.32,0
134,110.35,97.69,0
136,110.86,98.07,0
134,111.32,98.43,0
135,111.80,98.80,0
135,112.26,99.16,0
135,112.72,99.52,0
136,113.18,99.88,0
136,113.64,100.25,0
135,114.06,100.59,0
138,114.54,100.97,0
140,115.05,101.36,0
137,115.49,101.71,0
137,115.92,102.07,0
138,116.36,102.43,0
140,116.84,102.80,0
141,117.32,103.18,0
140,117.77,103.55,0
140,118.22,103.92,0
141,118.67,104.29,0
141,119.12,104.65,0
142,119.58,105.03,0
142,120.03,105.40,0
141,120.45,105.75,0
142,120.88,106.12,0
141,121.28,106.46,0
141,121.67,106.81,0
140,122.04,107.14,0
141,122.42,107.48,0
141,122.79,107.82,0
141,123.15,108.15,0
141,123.51,108.48,0
141,123.86,108.80,0
141,124.20,109.12,0
141,124.54,109.44,0
142,124.89,109.77,0
140,125.19,110.07,0
141,125.51,110.38,0
141,125.82,110.69,0
141,126.12,110.99,0
141,126.42,111.29,0
143,126.75,111.61,0
143,127.08,111.92,0
143,127.39,112.23,0
145,127.75,112.56,0
143,128.05,112.86,0
143,128.35,113.16,0
143,128.64,113.46,0
143,128.93,113.76,0
143,129.21,114.05,0
143,129.49,114.34,0
142,129.74,114.62,0
141,129.96,114.88,0
141,130.18,115.14,0
142,130.42,115.41,0
143,130.67,115.69,0
142,130.90,115.95,0
141,131.10,116.20,0
142,131.32,116.46,0
141,131.51,116.70,0
141,131.70,116.95,0
141,131.89,117.19,0
141,132.07,117.42,0
142,132.27,117.67,0
141,132.44,117.90,0
142,132.63,118.14,0
141,132.80,118.37,0
141,132.97,118.60,0
141,133.13,118.82,0
142,133.30,119.06,0
141,133.46,119.27,0
141,133.61,119.49,0
141,133.76,119.71,0
141,133.90,119.92,0
140,134.02,120.12,0
141,134.16,120.33,0
140,134.28,120.53,0
140,134.39,120.72,0
141,134.53,120.92,0
140,134.64,121.11,0
140,134.74,121.30,0
139,134.83,121.48,0
139,134.91,121.66,0
139,134.99,121.83,0
140,135.09,122.01,0
139,135.17,122.18,0
140,135.27,122.36,0
139,135.34,122.53,0
140,135.44,122.70,0
139,135.51,122.86,0
139,135.58,123.02,0
138,135.63,123.17,0
138,135.67,123.32,0
139,135.74,123.48,0
139,135.80,123.63,0
139,135.87,123.79,0
138,135.91,123.93,0
138,135.95,124.07,0
138,135.99,124.21,0
137,136.01,124.34,0
137,136.03,124.46,0
139,136.09,124.61,0
137,136.11,124.73,0
138,136.15,124.87,0
137,136.17,124.99,0
137,136.18,125.11,0
137,136.20,125.23,0
137,136.22,125.34,0
136,136.21,125.45,0
137,136.23,125.57,0
136,136.22,125.67,0
137,136.24,125.78,0
136,136.23,125.89,0
137,136.25,126.00,0
136,136.24,126.10,0
135,136.22,126.19,0
136,136.21,126.28,0
135,136.19,126.37,0
136,136.19,126.47,0
136,136.18,126.56,0
135,136.16,126.65,0
135,136.14,126.73,0
135,136.11,126.81,0
135,136.09,126.90,0
135,136.07,126.98,0
133,136.01,127.04,0
134,135.97,127.11,0
133,135.91,127.17,0
133,135.85,127.22,0
133,135.79,127.28,0
135,135.78,127.36,0
133,135.72,127.42,0
133,135.67,127.47,0
133,135.61,127.53,0
132,135.54,127.57,0
133,135.49,127.63,0
132,135.42,127.67,0
133,135.37,127.72,0
131,135.28,127.76,0
132,135.22,127.80,0
131,135.13,127.83,0
131,135.05,127.86,0
131,134.97,127.89,0
131,134.89,127.92,0
131,134.81,127.96,0
130,134.72,127.98,0
130,134.62,128.00,0
131,134.55,128.03,0
131,134.48,128.06,0
129,134.37,128.06,0
129,134.26,128.07,0
130,134.18,128.09,0
129,134.07,128.10,0
129,133.97,128.11,0
129,133.87,128.12,0
129,133.78,128.13,0
129,133.68,128.14,0
129,133.59,128.15,0
129,133.49,128.16,0
128,133.38,128.15,0
132,133.36,128.19,0
129,133.27,128.20,0
129,133.18,128.21,0
128,133.08,128.21,0
129,133.00,128.21,0
129,132.92,128.22,0
128,132.82,128.22,0
127,132.70,128.21,0
127,132.59,128.20,0
127,132.48,128.18,0
127,132.37,128.17,0
127,132.26,128.16,0
127,132.16,128.15,0
128,132.07,128.15,0
127,131.97,128.14,0
127,131.87,128.12,0
124,131.71,128.08,0
126,131.60,128.06,0
126,131.49,128.04,0
125,131.36,128.01,0
126,131.25,127.99,0
125,131.13,127.96,0
126,131.02,127.94,0
125,130.90,127.91,0
125,130.79,127.88,0
125,130.67,127.85,0
124,130.54,127.82,0
125,130.43,127.79,0
125,130.32,127.76,0
124,130.19,127.72,0
124,130.07,127.68,0
124,129.95,127.65,0
124,129.83,127.61,0
124,129.71,127.58,0
125,129.62,127.55,0
123,129.48,127.50,0
124,129.37,127.47,0
123,129.25,127.42,0
124,129.14,127.39,0
123,129.02,127.35,0
123,128.90,127.30,0
123,128.78,127.26,0
125,128.70,127.24,0
123,128.59,127.19,0
123,128.48,127.15,0
123,128.37,127.11,0
123,128.26,127.07,0
123,128.16,127.03,0
124,128.07,127.00,0
122,127.95,126.95,0
122,127.83,126.90,0
121,127.70,126.84,0
121,127.56,126.78,0
121,127.43,126.72,0
121,127.30,126.67,0
123,127.22,126.63,0
121,127.09,126.57,0
122,126.99,126.53,0
121,126.87,126.47,0
121,126.75,126.42,0
120,126.62,126.35,0
120,126.49,126.29,0
120,126.36,126.23,0
119,126.21,126.16,0
119,126.06,126.08,0
120,125.94,126.02,0
119,125.80,125.95,0
119,125.67,125.88,0
119,125.54,125.81,0
119,125.40,125.75,0
119,125.28,125.68,0
118,125.13,125.60,0
119,125.01,125.54,0
118,124.87,125.46,0
117,124.71,125.38,0
117,124.56,125.29,0
117,124.41,125.21,0
117,124.26,125.13,0
118,124.13,125.06,0
117,123.99,124.98,0
118,123.87,124.91,0
117,123.73,124.83,0
118,123.62,124.76,0
117,123.49,124.68,0
117,123.36,124.60,0
116,123.21,124.52,0
116,123.06,124.43,0
115,122.90,124.34,0
116,122.76,124.26,0
116,122.63,124.17,0
115,122.48,124.08,0
116,122.35,124.00,0
116,122.22,123.92,0
115,122.08,123.83,0
115,121.93,123.74,0
116,121.82,123.67,0
115,121.68,123.58,0
115,121.55,123.49,0
115,121.42,123.41,0
114,121.27,123.31,0
114,121.12,123.22,0
113,120.96,123.12,0
114,120.82,123.03,0
113,120.66,122.93,0
113,120.51,122.83,0
113,120.36,122.73,0
113,120.21,122.63,0
113,120.07,122.54,0
113,119.93,122.44,0
113,119.79,122.35,0
111,119.61,122.23,0
113,119.48,122.14,0
112,119.33,122.04,0
112,119.18,121.94,0
113,119.06,121.85,0
112,118.92,121.75,0
112,118.78,121.65,0
111,118.63,121.55,0
111,118.47,121.44,0
111,118.32,121.34,0
111,118.18,121.23,0
111,118.03,121.13,0
111,117.89,121.03,0
111,117.76,120.93,0
110,117.60,120.82,0
111,117.47,120.72,0
111,117.34,120.62,0
111,117.21,120.53,0
110,117.07,120.42,0
109,116.91,120.31,0
110,116.77,120.21,0
110,116.63,120.10,0
109,116.48,119.99,0
111,116.37,119.90,0
110,116.24,119.80,0
110,116.12,119.71,0
109,115.98,119.60,0
110,115.86,119.50,0
109,115.72,119.40,0
109,115.58,119.29,0
109,115.45,119.19,0
109,115.32,119.09,0
109,115.20,118.99,0
109,115.07,118.89,0
109,114.95,118.79,0
108,114.81,118.68,0
109,114.70,118.58,0
107,114.54,118.47,0
108,114.41,118.36,0
108,114.28,118.26,0
108,114.16,118.16,0
108,114.04,118.06,0
107,113.89,117.95,0
107,113.76,117.84,0
107,113.62,117.73,0
107,113.49,117.62,0
107,113.36,117.51,0
105,113.19,117.39,0
107,113.07,117.29,0
106,112.93,117.17,0
106,112.79,117.06,0
106,112.65,116.95,0
106,112.52,116.84,0
105,112.37,116.72,0
105,112.22,116.60,0
103,112.04,116.47,0
105,111.90,116.35,0
106,111.78,116.25,0
105,111.64,116.14,0
105,111.51,116.03,0
105,111.38,115.92,0
105,111.25,115.81,0
105,111.13,115.70,0
105,111.00,115.59,0
105,110.88,115.49,0
105,110.77,115.38,0
104,110.63,115.27,0
104,110.50,115.15,0
105,110.39,115.05,0
103,110.24,114.93,0
104,110.12,114.82,0
104,109.99,114.72,0
105,109.89,114.62,0
103,109.76,114.50,0
104,109.64,114.40,0
104,109.53,114.29,0
104,109.42,114.19,0
103,109.29,114.08,0
104,109.18,113.98,0
103,109.06,113.87,0
103,108.94,113.76,0
103,108.82,113.65,0
104,108.72,113.55,0
103,108.61,113.45,0
103,108.50,113.34,0
103,108.39,113.24,0
103,108.28,113.14,0
103,108.17,113.04,0
102,108.05,112.93,0
103,107.95,112.83,0
103,107.85,112.73,0
103,107.75,112.63,0
101,107.62,112.52,0
100,107.47,112.39,0
102,107.36,112.29,0
101,107.23,112.17,0
101,107.10,112.06,0
101,106.98,111.95,0
101,106.86,111.84,0
100,106.73,111.72,0
101,106.61,111.62,0
101,106.50,111.51,0
101,106.39,111.41,0
101,106.28,111.30,0
101,106.18,111.20,0
102,106.09,111.11,0
100,105.97,111.00,0
100,105.85,110.89,0
100,105.73,110.78,0
100,105.62,110.67,0
100,105.51,110.56,0
99,105.38,110.45,0
100,105.27,110.34,0
100,105.16,110.24,0
99,105.04,110.13,0
99,104.92,110.01,0
99,104.80,109.90,0
99,104.69,109.80,0
99,104.57,109.69,0
99,104.46,109.58,0
98,104.33,109.46,0
98,104.20,109.35,0
100,104.12,109.26,0
99,104.02,109.15,0
98,103.90,109.04,0
98,103.78,108.93,0
98,103.66,108.82,0
99,103.57,108.72,0
98,103.46,108.62,0
98,103.35,108.51,0
98,103.24,108.41,0
98,103.14,108.30,0
98,103.04,108.20,0
98,102.93,108.10,0
98,102.84,108.00,0
97,102.72,107.89,0
97,102.60,107.78,0
98,102.51,107.68,0
98,102.42,107.58,0
96,102.29,107.47,0
98,102.21,107.37,0
98,102.12,107.28,0
97,102.02,107.18,0
97,101.92,107.07,0
97,101.82,106.97,0
98,101.75,106.88,0
97,101.65,106.78,0
96,101.54,106.68,0
97,101.45,106.58,0
95,101.32,106.46,0
98,101.25,106.38,0
97,101.17,106.29,0
97,101.08,106.19,0
96,100.98,106.09,0
98,100.92,106.01,0
96,100.82,105.91,0
97,100.75,105.82,0
97,100.67,105.73,0
99,100.64,105.67,0
96,100.55,105.57,0
96,100.46,105.47,0
96,100.37,105.38,0
95,100.26,105.27,0
96,100.17,105.18,0
95,100.07,105.08,0
96,99.99,104.99,0
96,99.91,104.90,0
95,99.81,104.80,0
95,99.71,104.70,0
95,99.62,104.61,0
95,99.53,104.51,0
95,99.44,104.41,0
96,99.37,104.33,0
95,99.28,104.24,0
95,99.20,104.14,0
94,99.09,104.04,0
94,98.99,103.94,0
94,98.89,103.84,0
94,98.79,103.74,0
94,98.70,103.65,0
94,98.60,103.55,0
93,98.49,103.45,0
95,98.42,103.36,0
94,98.33,103.27,0
94,98.25,103.17,0
93,98.14,103.07,0
93,98.04,102.97,0
94,97.96,102.88,0
91,97.82,102.76,0
93,97.72,102.67,0
93,97.63,102.57,0
93,97.53,102.47,0
93,97.44,102.38,0
93,97.36,102.28,0
93,97.27,102.19,0
93,97.18,102.10,0
93,97.10,102.01,0
92,97.00,101.91,0
93,96.92,101.82,0
93,96.84,101.73,0
92,96.74,101.63,0
92,96.65,101.54,0
92,96.55,101.44,0
91,96.44,101.34,0
92,96.35,101.24,0
92,96.27,101.15,0
91,96.16,101.05,0
91,96.06,100.95,0
92,95.98,100.86,0
92,95.90,100.77,0
91,95.80,100.67,0
91,95.70,100.58,0
91,95.61,100.48,0
91,95.52,100.39,0
91,95.43,100.29,0
92,95.36,100.21,0
91,95.27,100.12,0
91,95.19,100.03,0
90,95.08,99.93,0
90,94.98,99.83,0
90,94.88,99.73,0
90,94.78,99.63,0
89,94.67,99.53,0
91,94.59,99.44,0
90,94.50,99.35,0
90,94.41,99.25,0
89,94.30,99.15,0
90,94.22,99.06,0
89,94.11,98.96,0
89,94.01,98.86,0
90,93.93,98.77,0
89,93.83,98.67,0
88,93.72,98.57,0
88,93.60,98.46,0
89,93.51,98.37,0
89,93.42,98.27,0
88,93.31,98.17,0
88,93.20,98.07,0
88,93.10,97.97,0
88,93.00,97.87,0
88,92.90,97.77,0
88,92.80,97.67,0
87,92.68,97.56,0
88,92.59,97.47,0
87,92.48,97.36,0
88,92.39,97.27,0
87,92.28,97.17,0
88,92.20,97.08,0
90,92.15,97.00,0
86,92.03,96.89,0
87,91.93,96.80,0
86,91.81,96.69,0
86,91.69,96.58,0
86,91.58,96.48,0
87,91.49,96.38,0
86,91.38,96.28,0
87,91.29,96.18,0
86,91.19,96.08,0
87,91.10,95.99,0
88,91.04,95.91,0
86,90.94,95.81,0
86,90.84,95.71,0
86,90.74,95.62,0
86,90.65,95.52,0
86,90.56,95.43,0
86,90.46,95.33,0
86,90.38,95.24,0
86,90.29,95.15,0
87,90.22,95.06,0
86,90.14,94.97,0
86,90.05,94.88,0
86,89.97,94.79,0
86,89.89,94.71,0
85,89.80,94.61,0
86,89.72,94.52,0
85,89.63,94.43,0
86,89.55,94.34,0
85,89.46,94.25,0
85,89.37,94.16,0
85,89.29,94.07,0
84,89.18,93.97,0
85,89.10,93.88,0
86,89.03,93.80,0
85,88.95,93.71,0
86,88.89,93.63,0
85,88.82,93.55,0
85,88.74,93.46,0
84,88.65,93.37,0
88,88.63,93.31,0
83,88.52,93.21,0
84,88.43,93.12,0
84,88.34,93.03,0
85,88.27,92.95,0
84,88.19,92.86,0
85,88.12,92.78,0
84,88.04,92.69,0
86,88.00,92.62,0
83,87.90,92.53,0
84,87.82,92.44,0
84,87.75,92.36,0
84,87.67,92.27,0
82,87.56,92.17,0
84,87.49,92.09,0
84,87.42,92.01,0
84,87.35,91.93,0
82,87.24,91.83,0
84,87.18,91.75,0
84,87.11,91.67,0
84,87.05,91.60,0
82,86.95,91.50,0
84,86.89,91.43,0
84,86.83,91.35,0
81,86.72,91.25,0
82,86.62,91.16,0
82,86.53,91.06,0
82,86.44,90.97,0
82,86.35,90.88,0
82,86.26,90.79,0
82,86.18,90.71,0
82,86.10,90.62,0
82,86.01,90.53,0
82,85.93,90.45,0
82,85.85,90.36,0
82,85.78,90.28,0
82,85.70,90.20,0
82,85.63,90.11,0
81,85.54,90.02,0
82,85.46,89.94,0
82,85.40,89.86,0
81,85.31,89.78,0
81,85.22,89.69,0
81,85.14,89.60,0
80,85.03,89.50,0
80,84.93,89.41,0
81,84.85,89.33,0
82,84.80,89.25,0
81,84.72,89.17,0
80,84.63,89.08,0
81,84.55,89.00,0
81,84.48,88.92,0
80,84.39,88.83,0
80,84.31,88.74,0
81,84.24,88.66,0
82,84.20,88.60,0
83,84.17,88.54,0
81,84.11,88.46,0
81,84.05,88.39,0
81,83.98,88.32,0
80,83.90,88.23,0
81,83.85,88.16,0
80,83.77,88.08,0
82,83.73,88.02,0
82,83.70,87.96,0
81,83.65,87.89,0
81,83.59,87.82,0
81,83.54,87.75,0
80,83.47,87.67,0
80,83.40,87.60,0
80,83.33,87.52,0
80,83.27,87.45,0
80,83.20,87.37,0
79,83.12,87.29,0
80,83.05,87.21,0
80,82.99,87.14,0
80,82.93,87.07,0
79,82.85,86.99,0
80,82.80,86.92,0
82,82.78,86.87,0
80,82.73,86.80,0
80,82.67,86.73,0
79,82.60,86.66,0
80,82.55,86.59,0
79,82.48,86.51,0
78,82.39,86.43,0
80,82.34,86.37,0
79,82.27,86.29,0
79,82.21,86.22,0
79,82.14,86.15,0
78,82.06,86.07,0
79,82.00,85.99,0
78,81.92,85.91,0
79,81.86,85.85,0
78,81.78,85.77,0
79,81.73,85.70,0
78,81.65,85.62,0
78,81.58,85.55,0
78,81.51,85.47,0
78,81.44,85.40,0
78,81.37,85.32,0
78,81.30,85.25,0
78,81.24,85.18,0
78,81.17,85.10,0
78,81.11,85.03,0
78,81.04,84.96,0
78,80.98,84.89,0
78,80.92,84.82,0
78,80.87,84.76,0
78,80.81,84.69,0
78,80.75,84.62,0
78,80.70,84.56,0
78,80.64,84.49,0
76,80.55,84.41,0
77,80.48,84.33,0
77,80.41,84.26,0
76,80.32,84.18,0
76,80.24,84.09,0
77,80.17,84.02,0
76,80.09,83.94,0
76,80.01,83.86,0
77,79.95,83.79,0
77,79.89,83.73,0
81,79.91,83.70,0
76,79.83,83.62,0
76,79.75,83.55,0
77,79.70,83.48,0
76,79.62,83.41,0
76,79.55,83.33,0
76,79.48,83.26,0
77,79.43,83.20,0
76,79.36,83.12,0
76,79.30,83.05,0
76,79.23,82.98,0
76,79.17,82.91,0
76,79.10,82.84,0
77,79.06,82.78,0
76,79.00,82.72,0
75,78.92,82.64,0
74,78.82,82.55,0
76,78.76,82.49,0
76,78.71,82.42,0
75,78.63,82.35,0
75,78.56,82.28,0
76,78.51,82.21,0
76,78.46,82.15,0
76,78.41,82.09,0
74,78.32,82.01,0
76,78.28,81.95,0
75,78.21,81.88,0
76,78.17,81.82,0
75,78.10,81.75,0
76,78.06,81.69,0
75,78.00,81.63,0
75,77.94,81.56,0
76,77.90,81.51,0
76,77.86,81.45,0
75,77.81,81.39,0
75,77.75,81.32,0
76,77.71,81.27,0
76,77.68,81.22,0
76,77.65,81.16,0
74,77.57,81.09,0
76,77.54,81.04,0
75,77.49,80.98,0
75,77.44,80.92,0
75,77.39,80.86,0
75,77.35,80.80,0
75,77.30,80.74,0
74,77.23,80.68,0
75,77.19,80.62,0
75,77.14,80.56,0
74,77.08,80.50,0
74,77.02,80.43,0
76,77.00,80.39,0
74,76.94,80.33,0
74,76.88,80.26,0
74,76.82,80.20,0
74,76.77,80.14,0
74,76.71,80.08,0
74,76.66,80.02,0
74,76.60,79.96,0
73,76.53,79.89,0
74,76.48,79.83,0
74,76.43,79.77,0
74,76.38,79.71,0
74,76.33,79.65,0
74,76.29,79.60,0
74,76.24,79.54,0
74,76.20,79.49,0
74,76.15,79.43,0
75,76.13,79.39,0
74,76.09,79.33,0
74,76.05,79.28,0
73,75.99,79.22,0
74,75.95,79.16,0
74,75.91,79.11,0
74,75.87,79.06,0
73,75.81,79.00,0
73,75.76,78.94,0
72,75.68,78.87,0
74,75.65,78.82,0
74,75.61,78.77,0
74,75.58,78.73,0
73,75.53,78.67,0
74,75.50,78.62,0
74,75.47,78.58,0
74,75.44,78.53,0
72,75.37,78.47,0
73,75.32,78.41,0
73,75.28,78.36,0
73,75.23,78.30,0
74,75.21,78.26,0
72,75.14,78.20,0
73,75.10,78.15,0
72,75.04,78.08,0
72,74.98,78.02,0
72,74.92,77.96,0
72,74.86,77.90,0
72,74.80,77.84,0
73,74.77,77.80,0
72,74.71,77.74,0
72,74.66,77.68,0
71,74.58,77.61,0
72,74.53,77.56,0
72,74.48,77.50,0
71,74.41,77.44,0
74,74.40,77.40,0
72,74.36,77.35,0
71,74.29,77.29,0
70,74.20,77.21,0
71,74.14,77.15,0
70,74.06,77.08,0
71,73.99,77.02,0
71,73.93,76.96,0
70,73.86,76.89,0
70,73.78,76.82,0
71,73.72,76.76,0
73,73.71,76.72,0
69,73.61,76.65,0
70,73.54,76.58,0
70,73.47,76.51,0
70,73.40,76.45,0
71,73.35,76.39,0
70,73.29,76.33,0
70,73.22,76.27,0
73,73.22,76.23,0
70,73.15,76.17,0
70,73.09,76.11,0
70,73.03,76.05,0
70,72.97,75.99,0
70,72.91,75.93,0
70,72.85,75.87,0
70,72.79,75.81,0
69,72.72,75.74,0
69,72.64,75.68,0
70,72.59,75.62,0
70,72.54,75.56,0
70,72.49,75.51,0
70,72.44,75.45,0
70,72.39,75.40,0
70,72.34,75.34,0
69,72.27,75.28,0
70,72.23,75.23,0
70,72.18,75.17,0
70,72.14,75.12,0
70,72.10,75.07,0
70,72.06,75.02,0
70,72.01,74.97,0
70,71.97,74.92,0
69,71.91,74.86,0
69,71.86,74.80,0
68,71.78,74.74,0
68,71.70,74.67,0
69,71.65,74.61,0
69,71.60,74.56,0
68,71.52,74.49,0
68,71.45,74.42,0
69,71.40,74.37,0
69,71.36,74.32,0
68,71.29,74.25,0
69,71.24,74.20,0
69,71.20,74.15,0
69,71.16,74.10,0
70,71.13,74.06,0
70,71.11,74.02,0
69,71.07,73.97,0
68,71.01,73.91,0
68,70.95,73.85,0
70,70.93,73.81,0
69,70.89,73.76,0
69,70.85,73.71,0
68,70.79,73.66,0
68,70.74,73.60,0
69,70.70,73.55,0
68,70.65,73.50,0
68,70.60,73.44,0
68,70.54,73.39,0
69,70.51,73.34,0
68,70.46,73.29,0
69,70.43,73.25,0
68,70.38,73.20,0
67,70.32,73.13,0
68,70.27,73.08,0
69,70.25,73.04,0
69,70.22,73.00,0
69,70.20,72.96,0
68,70.15,72.91,0
70,70.15,72.88,0
70,70.15,72.85,0
70,70.14,72.83,0
71,70.16,72.81,0
72,70.20,72.80,0
72,70.23,72.79,0
72,70.27,72.78,0
72,70.30,72.78,0
72,70.34,72.77,0
72,70.37,72.76,0
72,70.40,72.75,0
72,70.43,72.74,0
72,70.47,72.74,0
72,70.50,72.73,0
73,70.55,72.73,0
73,70.60,72.74,0
72,70.62,72.73,0
71,70.63,72.71,0
72,70.66,72.70,0
72,70.69,72.70,0
72,70.71,72.69,0
70,70.70,72.66,0
71,70.70,72.65,0
73,70.75,72.65,0
72,70.77,72.64,0
71,70.78,72.63,0
71,70.78,72.61,0
72,70.81,72.60,0
71,70.81,72.59,0
71,70.82,72.57,0
72,70.84,72.57,0
71,70.84,72.55,0
71,70.85,72.54,0
70,70.83,72.51,0
72,70.85,72.50,0
71,70.86,72.49,0
71,70.86,72.47,0
72,70.88,72.47,0
72,70.90,72.47,0
71,70.91,72.45,0
71,70.91,72.44,0
70,70.89,72.41,0
71,70.89,72.40,0
71,70.89,72.38,0
71,70.90,72.37,0
72,70.92,72.37,0
72,70.94,72.36,0
72,70.96,72.36,0
72,70.98,72.36,0
70,70.96,72.33,0
72,70.98,72.33,0
71,70.98,72.32,0
70,70.96,72.29,0
70,70.94,72.27,0
71,70.94,72.26,0
72,70.97,72.25,0
72,70.99,72.25,0
70,70.97,72.23,0
71,70.97,72.22,0
70,70.95,72.19,0
73,70.99,72.20,0
70,70.97,72.18,0
72,70.99,72.18,0
71,70.99,72.17,0
72,71.01,72.17,0
72,71.03,72.16,0
72,71.05,72.16,0
72,71.07,72.16,0
72,71.09,72.16,0
72,71.11,72.16,0
72,71.12,72.16,0
71,71.12,72.14,0
72,71.14,72.14,0
72,71.16,72.14,0
72,71.17,72.14,0
73,71.21,72.15,0
72,71.23,72.15,0
71,71.22,72.14,0
71,71.22,72.12,0
73,71.25,72.13,0
72,71.27,72.13,0
72,71.28,72.13,0
71,71.28,72.12,0
71,71.27,72.11,0
72,71.28,72.11,0
71,71.28,72.10,0
73,71.31,72.10,0
71,71.31,72.09,0
71,71.30,72.08,0
70,71.28,72.06,0
71,71.27,72.05,0
72,71.28,72.05,0
71,71.28,72.04,0
70,71.25,72.02,0
70,71.23,72.00,0
74,71.28,72.02,0
70,71.26,72.00,0
70,71.23,71.98,0
72,71.25,71.98,0
71,71.24,71.97,0
70,71.22,71.95,0
70,71.19,71.93,0
70,71.17,71.91,0
70,71.15,71.89,0
71,71.14,71.88,0
70,71.12,71.86,0
70,71.10,71.85,0
70,71.08,71.83,0
70,71.05,71.81,0
70,71.03,71.79,0
70,71.01,71.77,0
70,70.99,71.76,0
69,70.95,71.73,0
70,70.93,71.71,0
70,70.92,71.69,0
70,70.90,71.68,0
70,70.88,71.66,0
68,70.82,71.62,0
69,70.78,71.60,0
69,70.75,71.57,0
70,70.73,71.56,0
68,70.68,71.52,0
70,70.67,71.50,0
69,70.63,71.48,0
69,70.60,71.45,0
70,70.59,71.44,0
70,70.58,71.43,0
70,70.56,71.41,0
69,70.53,71.39,0
69,70.50,71.36,0
70,70.49,71.35,0
70,70.48,71.34,0
70,70.47,71.32,0
71,70.48,71.32,0
71,70.49,71.32,0
70,70.48,71.30,0
70,70.47,71.29,0
70,70.47,71.28,0
70,70.46,71.26,0
70,70.45,71.25,0
70,70.44,71.24,0
70,70.43,71.23,0
69,70.40,71.20,0
68,70.35,71.17,0
69,70.33,71.15,0
69,70.30,71.13,0
69,70.27,71.11,0
69,70.25,71.09,0
69,70.22,71.07,0
69,70.20,71.05,0
70,70.19,71.04,0
70,70.19,71.02,0
70,70.19,71.01,0
69,70.16,70.99,0
70,70.16,70.98,0
73,70.22,71.00,0
70,70.21,70.99,0
70,70.21,70.98,0
70,70.20,70.97,0
70,70.20,70.96,0
73,70.26,70.99,0
70,70.25,70.98,0
70,70.25,70.97,0
70,70.24,70.96,0
70,70.24,70.95,0
70,70.23,70.94,0
70,70.23,70.93,0
70,70.22,70.92,0
72,70.26,70.93,0
69,70.23,70.91,0
70,70.23,70.90,0
71,70.24,70.90,0
70,70.24,70.89,0
70,70.23,70.88,0
70,70.23,70.87,0
70,70.22,70.87,0
67,70.16,70.83,0
70,70.16,70.82,0
71,70.17,70.82,0
70,70.17,70.81,0
70,70.17,70.80,0
70,70.16,70.80,0
71,70.18,70.80,0
71,70.20,70.80,0
67,70.13,70.76,0
70,70.13,70.76,0
72,70.17,70.77,0
72,70.20,70.78,0
70,70.20,70.77,0
70,70.20,70.76,0
72,70.23,70.78,0
72,70.27,70.79,0
72,70.30,70.80,0
72,70.34,70.81,0
73,70.39,70.83,0
72,70.42,70.85,0
72,70.45,70.86,0
73,70.50,70.88,0
73,70.55,70.90,0
74,70.62,70.93,0
74,70.69,70.96,0
74,70.76,70.99,0
74,70.82,71.02,0
74,70.88,71.05,0
74,70.95,71.08,0
74,71.01,71.11,0
74,71.07,71.14,0
74,71.13,71.17,0
74,71.18,71.20,0
74,71.24,71.23,0
74,71.30,71.25,0
78,71.43,71.32,0
76,71.52,71.37,0
76,71.61,71.41,0
75,71.68,71.45,0
74,71.73,71.47,0
74,71.77,71.50,0
74,71.82,71.53,0
76,71.90,71.57,0
75,71.96,71.60,0
76,72.04,71.65,0
76,72.12,71.69,0
77,72.22,71.74,0
76,72.29,71.79,0
78,72.41,71.85,0
78,72.52,71.91,0
78,72.63,71.97,0
83,72.84,72.08,0
77,72.92,72.13,0
78,73.02,72.19,0
78,73.12,72.25,0
78,73.22,72.31,0
79,73.33,72.37,0
78,73.43,72.43,0
79,73.54,72.49,0
79,73.65,72.56,0
79,73.76,72.62,0
79,73.86,72.69,0
79,73.96,72.75,0
80,74.08,72.82,0
80,74.20,72.90,0
80,74.32,72.97,0
80,74.43,73.04,0
82,74.58,73.13,0
80,74.69,73.19,0
81,74.82,73.27,0
81,74.94,73.35,0
84,75.12,73.46,0
81,75.24,73.53,0
81,75.36,73.61,0
82,75.49,73.69,0
82,75.62,73.77,0
82,75.75,73.86,0
82,75.87,73.94,0
80,75.95,74.00,0
81,76.05,74.07,0
82,76.17,74.15,0
82,76.29,74.23,0
81,76.38,74.29,0
82,76.50,74.37,0
82,76.61,74.45,0
82,76.71,74.52,0
83,76.84,74.61,0
81,76.92,74.67,0
82,77.03,74.74,0
82,77.12,74.82,0
83,77.24,74.90,0
83,77.36,74.98,0
83,77.47,75.06,0
82,77.56,75.13,0
83,77.67,75.21,0
83,77.78,75.29,0
82,77.86,75.35,0
82,77.94,75.42,0
84,78.06,75.51,0
84,78.18,75.59,0
83,78.28,75.66,0
82,78.35,75.73,0
83,78.45,75.80,0
84,78.56,75.88,0
83,78.65,75.95,0
84,78.75,76.03,0
83,78.84,76.10,0
84,78.94,76.18,0
84,79.04,76.26,0
84,79.14,76.34,0
85,79.26,76.43,0
83,79.33,76.49,0
84,79.43,76.57,0
85,79.54,76.65,0
85,79.65,76.73,0
83,79.72,76.80,0
84,79.80,76.87,0
85,79.90,76.95,0
85,80.01,77.03,0
84,80.09,77.10,0
86,80.20,77.19,0
84,80.28,77.26,0
84,80.36,77.32,0
83,80.41,77.38,0
86,80.52,77.47,0
84,80.59,77.53,0
84,80.66,77.60,0
84,80.72,77.66,0
85,80.81,77.73,0
86,80.91,77.82,0
85,81.00,77.89,0
86,81.10,77.97,0
86,81.19,78.05,0
86,81.29,78.13,0
86,81.38,78.21,0
88,81.52,78.31,0
87,81.63,78.39,0
86,81.71,78.47,0
88,81.84,78.57,0
88,81.96,78.66,0
86,82.04,78.73,0
87,82.14,78.82,0
88,82.26,78.91,0
88,82.37,79.00,0
88,82.49,79.09,0
90,82.64,79.20,0
89,82.76,79.30,0
89,82.89,79.39,0
92,83.07,79.52,0
90,83.21,79.62,0
91,83.37,79.74,0
94,83.58,79.88,0
92,83.75,80.00,0
92,83.91,80.12,0
93,84.09,80.25,0
96,84.33,80.41,0
94,84.53,80.54,0
94,84.71,80.68,0
97,84.96,80.84,0
97,85.20,81.00,0
95,85.40,81.14,0
98,85.65,81.31,0
99,85.92,81.49,0
101,86.22,81.68,0
100,86.49,81.87,0
100,86.76,82.05,0
101,87.05,82.24,0
101,87.33,82.42,0
101,87.60,82.61,0
103,87.91,82.81,0
102,88.19,83.01,0
103,88.49,83.21,0
104,88.80,83.41,0
103,89.08,83.61,0
104,89.38,83.81,0
104,89.67,84.02,0
105,89.98,84.23,0
105,90.28,84.43,0
105,90.57,84.64,0
106,90.88,84.85,0
106,91.18,85.06,0
105,91.46,85.26,0
106,91.75,85.47,0
107,92.06,85.69,0
107,92.36,85.90,0
107,92.65,86.11,0
107,92.94,86.32,0
106,93.20,86.52,0
107,93.47,86.72,0
106,93.72,86.91,0
106,93.97,87.10,0
107,94.23,87.30,0
107,94.48,87.50,0
107,94.74,87.70,0
107,94.98,87.89,0
107,95.22,88.08,0
107,95.46,88.27,0
107,95.69,88.46,0
107,95.91,88.64,0
107,96.14,88.83,0
107,96.35,89.01,0
107,96.57,89.19,0
109,96.81,89.38,0
112,97.12,89.61,0
110,97.38,89.82,0
109,97.61,90.01,0
109,97.84,90.20,0
111,98.10,90.40,0
111,98.36,90.61,0
113,98.65,90.83,0
112,98.92,91.05,0
112,99.18,91.26,0
114,99.48,91.48,0
113,99.75,91.70,0
113,100.01,91.91,0
113,100.27,92.12,0
113,100.53,92.33,0
114,100.79,92.55,0
114,101.06,92.76,0
115,101.34,92.98,0
116,101.63,93.21,0
115,101.90,93.43,0
116,102.18,93.66,0
117,102.48,93.89,0
117,102.77,94.12,0
118,103.07,94.36,0
117,103.35,94.59,0
119,103.66,94.83,0
116,103.91,95.04,0
118,104.19,95.27,0
118,104.47,95.50,0
118,104.74,95.73,0
120,105.04,95.97,0
120,105.34,96.21,0
120,105.64,96.45,0
120,105.92,96.68,0
120,106.20,96.92,0
120,106.48,97.15,0
120,106.75,97.37,0
124,107.10,97.64,0
120,107.35,97.86,0
121,107.63,98.10,0
120,107.87,98.31,0
122,108.16,98.55,0
123,108.45,98.80,0
124,108.76,99.05,0
124,109.07,99.30,0
123,109.35,99.53,0
126,109.68,99.80,0
124,109.97,100.04,0
125,110.27,100.29,0
124,110.54,100.53,0
125,110.83,100.77,0
125,111.12,101.02,0
125,111.39,101.26,0
126,111.69,101.50,0
127,111.99,101.76,0
127,112.29,102.01,0
126,112.57,102.25,0
126,112.83,102.49,0
127,113.12,102.73,0
127,113.40,102.98,0
127,113.67,103.22,0
128,113.95,103.46,0
128,114.24,103.71,0
128,114.51,103.95,0
129,114.80,104.20,0
131,115.12,104.47,0
129,115.40,104.72,0
130,115.69,104.97,0
131,116.00,105.23,0
131,116.30,105.49,0
131,116.59,105.74,0
131,116.88,105.99,0
131,117.16,106.24,0
131,117.44,106.49,0
132,117.73,106.75,0
133,118.04,107.01,0
133,118.34,107.27,0
133,118.63,107.53,0
133,118.92,107.78,0
134,119.22,108.04,0
134,119.51,108.30,0
133,119.78,108.55,0
135,120.09,108.81,0
135,120.39,109.08,0
135,120.68,109.34,0
137,121.01,109.61,0
137,121.33,109.89,0
137,121.64,110.16,0
138,121.97,110.44,0
137,122.27,110.70,0
139,122.60,110.98,0
139,122.93,111.26,0
139,123.25,111.54,0
138,123.55,111.81,0
139,123.86,112.08,0
140,124.18,112.36,0
140,124.49,112.63,0
140,124.80,112.91,0
139,125.09,113.17,0
142,125.43,113.46,0
142,125.76,113.74,0
143,126.10,114.03,0
143,126.44,114.32,0
143,126.77,114.61,0
143,127.10,114.90,0
143,127.41,115.18,0
144,127.75,115.46,0
144,128.07,115.75,0
144,128.39,116.03,0
145,128.72,116.32,0
145,129.05,116.61,0
145,129.37,116.89,0
144,129.66,117.16,0
145,129.97,117.44,0
145,130.27,117.72,0
146,130.58,118.00,0
146,130.89,118.28,0
147,131.21,118.57,0
149,131.57,118.87,0
149,131.92,119.17,0
149,132.26,119.47,0
150,132.61,119.78,0
149,132.94,120.07,0
151,133.30,120.38,0
152,133.68,120.69,0
153,134.06,121.02,0
154,134.46,121.35,0
154,134.85,121.67,0
156,135.28,122.02,0
155,135.67,122.35,0
155,136.06,122.67,0
156,136.46,123.01,0
157,136.87,123.35,0
157,137.27,123.68,0
158,137.68,124.03,0
162,138.17,124.41,0
161,138.63,124.77,0
162,139.09,125.14,0
161,139.53,125.50,0
161,139.96,125.86,0
163,140.42,126.23,0
166,140.93,126.63,0
165,141.41,127.01,0
166,141.91,127.40,0
165,142.37,127.78,0
167,142.86,128.17,0
168,143.36,128.57,0
168,143.86,128.96,0
168,144.34,129.35,0
167,144.79,129.73,0
168,145.26,130.11,0
165,145.65,130.46,0
168,146.10,130.84,0
168,146.54,131.21,0
168,146.97,131.57,0
169,147.41,131.95,0
170,147.86,132.33,0
170,148.30,132.71,0
170,148.74,133.08,0
170,149.16,133.45,0
171,149.60,133.82,0
171,150.03,134.20,0
172,150.46,134.57,0
171,150.88,134.94,0
172,151.30,135.31,0
173,151.73,135.69,0
173,152.16,136.06,0
173,152.57,136.43,0
175,153.02,136.81,0
177,153.50,137.22,0
175,153.93,137.59,0
175,154.35,137.97,0
176,154.79,138.35,0
175,155.19,138.71,0
175,155.59,139.08,0
177,156.02,139.46,0
177,156.44,139.83,0
177,156.85,140.20,0
177,157.25,140.57,0
177,157.64,140.94,0
177,158.03,141.30,0
176,158.39,141.64,0
176,158.74,141.99,0
177,159.11,142.34,0
176,159.45,142.67,0
176,159.78,143.01,0
176,160.10,143.34,0
176,160.42,143.66,0
176,160.73,143.99,0
176,161.04,144.31,0
178,161.38,144.64,0
175,161.65,144.95,0
177,161.96,145.27,0
176,162.24,145.58,0
175,162.49,145.87,0
177,162.78,146.18,0
179,163.11,146.51,0
179,163.42,146.83,0
179,163.74,147.16,0
178,164.02,147.46,0
180,164.34,147.79,0
178,164.61,148.09,0
179,164.90,148.40,0
177,165.14,148.69,0
178,165.40,148.98,0
177,165.63,149.26,0
177,165.86,149.54,0
177,166.08,149.81,0
177,166.30,150.08,0
177,166.51,150.35,0
177,166.72,150.62,0
178,166.95,150.89,0
177,167.15,151.15,0
177,167.35,151.41,0
177,167.54,151.67,0
179,167.77,151.94,0
177,167.95,152.19,0
177,168.14,152.44,0
177,168.31,152.69,0
177,168.49,152.93,0
177,168.66,153.17,0
176,168.80,153.40,0
176,168.95,153.62,0
177,169.11,153.86,0
176,169.25,154.08,0
176,169.38,154.30,0
175,169.49,154.51,0
176,169.62,154.72,0
177,169.77,154.94,0
177,169.92,155.16,0
177,170.06,155.38,0
176,170.18,155.59,0
176,170.29,155.79,0
176,170.41,156.00,0
176,170.52,156.20,0
177,170.65,156.40,0
177,170.78,156.61,0
176,170.88,156.80,0
176,170.98,157.00,0
175,171.06,157.18,0
176,171.16,157.36,0
175,171.24,157.54,0
175,171.31,157.71,0
175,171.39,157.89,0
174,171.44,158.05,0
174,171.49,158.21,0
173,171.52,158.36,0
173,171.55,158.50,0
173,171.58,158.65,0
173,171.61,158.79,0
173,171.64,158.93,0
172,171.64,159.06,0
172,171.65,159.19,0
173,171.68,159.33,0
172,171.68,159.46,0
172,171.69,159.58,0
172,171.70,159.71,0
173,171.72,159.84,0
171,171.71,159.95,0
172,171.71,160.07,0
171,171.70,160.18,0
172,171.71,160.30,0
169,171.65,160.39,0
169,171.60,160.47,0
169,171.55,160.56,0
169,171.50,160.64,0
169,171.45,160.73,0
169,171.40,160.81,0
168,171.33,160.88,0
169,171.28,160.96,0
169,171.24,161.04,0
168,171.17,161.11,0
169,171.13,161.19,0
168,171.07,161.26,0
168,171.00,161.33,0
168,170.94,161.39,0
167,170.87,161.45,0
167,170.79,161.50,0
168,170.73,161.57,0
167,170.66,161.62,0
168,170.60,161.69,0
168,170.55,161.75,0
167,170.48,161.80,0
166,170.39,161.85,0
166,170.30,161.89,0
165,170.20,161.92,0
165,170.09,161.95,0
165,169.99,161.98,0
165,169.89,162.01,0
165,169.79,162.04,0
165,169.70,162.07,0
164,169.58,162.09,0
164,169.47,162.11,0
164,169.36,162.13,0
163,169.24,162.13,0
164,169.13,162.15,0
163,169.01,162.16,0
162,168.87,162.16,0
163,168.75,162.17,0
162,168.62,162.17,0
161,168.46,162.16,0
161,168.31,162.14,0
161,168.17,162.13,0
161,168.03,162.12,0
161,167.88,162.11,0
161,167.75,162.10,0
161,167.61,162.09,0
160,167.46,162.07,0
160,167.31,162.05,0
159,167.14,162.02,0
160,167.00,162.00,0
159,166.84,161.97,0
160,166.70,161.95,0
159,166.55,161.92,0
159,166.40,161.89,0
159,166.25,161.86,0
159,166.11,161.83,0
158,165.94,161.79,0
159,165.81,161.76,0
157,165.63,161.72,0
158,165.48,161.68,0
157,165.31,161.63,0
157,165.14,161.59,0
157,164.98,161.54,0
157,164.82,161.49,0
157,164.66,161.45,0
156,164.49,161.40,0
157,164.34,161.35,0
157,164.19,161.31,0
156,164.03,161.25,0
156,163.87,161.20,0
156,163.71,161.15,0
155,163.54,161.09,0
156,163.39,161.04,0
154,163.20,160.97,0
154,163.01,160.90,0
153,162.81,160.82,0
153,162.62,160.74,0
153,162.43,160.66,0
155,162.28,160.61,0
153,162.09,160.53,0
153,161.91,160.46,0
153,161.73,160.38,0
152,161.54,160.30,0
153,161.37,160.22,0
152,161.18,160.14,0
152,160.99,160.06,0
152,160.82,159.98,0
151,160.62,159.89,0
151,160.43,159.80,0
151,160.24,159.71,0
151,160.05,159.63,0
151,159.87,159.54,0
149,159.65,159.43,0
150,159.46,159.34,1
150,159.27,159.25,1
151,159.11,159.16,2
151,158.94,159.08,2
149,158.75,158.98,2
149,158.55,158.88,2
149,158.36,158.78,2
149,158.17,158.68,2
149,157.99,158.59,2
148,157.79,158.48,2
148,157.59,158.38,2
148,157.40,158.27,2
147,157.19,158.16,2
149,157.03,158.07,2
148,156.85,157.97,2
147,156.65,157.86,2
148,156.48,157.76,2
147,156.29,157.65,2
147,156.10,157.55,2
148,155.94,157.45,2
146,155.74,157.34,2
145,155.53,157.21,2
145,155.32,157.09,2
145,155.11,156.97,2
145,154.91,156.85,2
145,154.71,156.73,2
145,154.52,156.61,2
145,154.33,156.50,2
144,154.12,156.37,2
144,153.92,156.25,2
144,153.72,156.13,2
143,153.50,156.00,2
143,153.29,155.87,2
143,153.09,155.74,2
143,152.89,155.61,2
143,152.69,155.48,2
144,152.52,155.37,2
143,152.33,155.25,2
143,152.14,155.12,2
143,151.96,155.00,2
142,151.76,154.87,2
141,151.54,154.73,2
142,151.35,154.61,2
141,151.14,154.47,2
141,150.94,154.33,2
143,150.78,154.22,2
141,150.59,154.09,2
141,150.39,153.96,2
141,150.21,153.83,2
141,150.02,153.70,2
141,149.84,153.57,2
141,149.67,153.45,2
140,149.47,153.31,2
140,149.28,153.18,2
139,149.08,153.04,2
140,148.90,152.91,2
140,148.72,152.78,2
139,148.52,152.64,2
139,148.33,152.50,2
139,148.15,152.37,2
139,147.96,152.24,2
139,147.78,152.10,2
140,147.63,151.98,2
139,147.46,151.85,2
138,147.27,151.71,2
137,147.06,151.57,2
138,146.88,151.43,2
138,146.70,151.30,2
138,146.53,151.16,2
137,146.34,151.02,2
137,146.15,150.88,2
137,145.97,150.74,2
137,145.79,150.61,2
137,145.61,150.47,2
138,145.46,150.35,2
137,145.29,150.21,2
137,145.13,150.08,2
137,144.96,149.95,2
137,144.80,149.82,2
138,144.67,149.70,2
136,144.49,149.56,2
136,144.32,149.43,2
135,144.14,149.28,2
136,143.98,149.15,2
135,143.80,149.01,2
135,143.62,148.87,2
136,143.47,148.74,2
135,143.30,148.60,2
135,143.13,148.47,2
134,142.95,148.32,2
134,142.77,148.18,2
135,142.62,148.05,2
134,142.44,147.91,2
134,142.27,147.77,2
135,142.13,147.64,2
131,141.91,147.47,2
133,141.73,147.33,2
133,141.55,147.19,2
133,141.38,147.04,2
133,141.21,146.90,2
133,141.05,146.76,2
132,140.87,146.62,2
133,140.71,146.48,2
131,140.52,146.33,2
133,140.37,146.19,2
132,140.20,146.05,2
132,140.04,145.91,2
131,139.86,145.76,2
133,139.72,145.63,2
131,139.54,145.49,2
132,139.39,145.35,2
131,139.23,145.21,2
131,139.06,145.07,2
131,138.90,144.93,2
130,138.72,144.78,2
131,138.57,144.64,2
130,138.40,144.49,2
129,138.21,144.34,2
129,138.02,144.18,2
129,137.84,144.03,2
129,137.67,143.88,2
129,137.49,143.73,2
129,137.32,143.59,2
129,137.16,143.44,2
129,136.99,143.30,2
129,136.83,143.15,2
128,136.66,143.00,2
129,136.50,142.86,2
129,136.35,142.72,2
128,136.19,142.58,2
129,136.04,142.44,2
127,135.86,142.29,2
127,135.68,142.13,2
127,135.51,141.98,2
131,135.42,141.87,2
127,135.25,141.72,2
128,135.11,141.59,2
127,134.95,141.44,2
127,134.79,141.30,2
127,134.63,141.15,2
127,134.48,141.01,2
126,134.31,140.86,2
127,134.16,140.72,2
125,133.98,140.56,2
126,133.82,140.42,2
125,133.64,140.26,2
126,133.49,140.12,2
126,133.34,139.98,2
126,133.19,139.84,2
125,133.03,139.69,2
124,132.85,139.54,2
125,132.69,139.39,2
125,132.54,139.25,2
126,132.41,139.11,2
125,132.26,138.97,2
126,132.13,138.84,2
123,131.95,138.68,2
124,131.79,138.54,2
124,131.64,138.39,2
124,131.48,138.25,2
123,131.31,138.10,2
124,131.17,137.96,2
123,131.00,137.81,2
124,130.86,137.67,2
123,130.71,137.52,2
124,130.57,137.39,2
123,130.42,137.24,2
123,130.27,137.10,2
121,130.09,136.94,2
122,129.93,136.79,2
122,129.77,136.64,2
121,129.59,136.48,2
123,129.46,136.35,2
125,129.37,136.24,2
121,129.20,136.08,2
121,129.04,135.93,2
121,128.88,135.78,2
121,128.72,135.64,2
120,128.55,135.48,2
121,128.40,135.34,2
121,128.25,135.19,2
121,128.10,135.05,2
120,127.94,134.90,2
120,127.78,134.75,2
120,127.63,134.60,2
121,127.49,134.47,2
121,127.36,134.33,2
120,127.22,134.19,2
120,127.07,134.05,2
124,127.01,133.95,2
119,126.85,133.80,2
119,126.69,133.65,2
119,126.54,133.50,2
119,126.39,133.36,2
119,126.24,133.21,2
119,126.10,133.07,2
119,125.95,132.93,2
119,125.82,132.79,2
118,125.66,132.64,2
119,125.53,132.51,2
119,125.40,132.37,2
119,125.27,132.24,2
119,125.14,132.11,2
118,125.00,131.97,2
118,124.86,131.83,2
118,124.72,131.69,2
117,124.57,131.54,2
118,124.44,131.41,2
119,124.33,131.28,2
117,124.18,131.14,2
118,124.06,131.01,2
116,123.90,130.86,2
117,123.76,130.72,2
117,123.62,130.58,2
117,123.49,130.45,2
117,123.36,130.31,2
117,123.23,130.18,2
117,123.11,130.05,2
118,123.01,129.93,2
117,122.89,129.80,2
117,122.77,129.67,2
117,122.65,129.54,2
117,122.54,129.42,2
117,122.43,129.29,2
116,122.30,129.16,2
116,122.18,129.03,2
116,122.05,128.90,2
117,121.95,128.78,2
116,121.83,128.65,2
117,121.73,128.53,2
115,121.60,128.40,2
116,121.49,128.27,2
115,121.36,128.14,2
116,121.25,128.02,2
115,121.13,127.89,2
115,121.00,127.76,2
115,120.88,127.63,2
114,120.75,127.50,2
115,120.63,127.37,2
114,120.50,127.24,2
113,120.35,127.10,2
114,120.22,126.97,2
114,120.10,126.84,2
114,119.98,126.71,2
114,119.86,126.58,2
113,119.72,126.44,2
113,119.58,126.31,2
113,119.45,126.18,2
113,119.32,126.05,2
114,119.22,125.92,2
113,119.09,125.80,2
113,118.97,125.67,2
113,118.85,125.54,2
113,118.73,125.42,2
112,118.60,125.28,2
112,118.47,125.15,2
112,118.34,125.02,2
112,118.21,124.89,2
111,118.07,124.75,2
112,117.95,124.62,2
112,117.83,124.49,2
111,117.69,124.36,2
111,117.56,124.23,2
111,117.43,124.09,2
111,117.30,123.96,2
111,117.17,123.83,2
111,117.05,123.70,2
111,116.93,123.58,2
111,116.81,123.45,2
111,116.69,123.33,2
110,116.56,123.19,2
111,116.45,123.07,2
110,116.32,122.94,2
110,116.19,122.81,2
110,116.07,122.68,2
110,115.95,122.56,2
110,115.83,122.43,2
111,115.73,122.32,2
109,115.60,122.18,2
109,115.46,122.05,2
109,115.34,121.92,2
109,115.21,121.79,2
109,115.08,121.66,2
109,114.96,121.54,2
109,114.84,121.41,2
109,114.73,121.29,2
108,114.59,121.16,2
107,114.44,121.01,2
108,114.31,120.88,2
108,114.19,120.75,2
108,114.06,120.63,2
108,113.94,120.50,2
108,113.82,120.38,2
107,113.69,120.24,2
108,113.57,120.12,2
107,113.44,119.99,2
107,113.31,119.86,2
107,113.18,119.73,2
107,113.06,119.60,2
105,112.90,119.46,2
106,112.76,119.32,2
107,112.65,119.20,2
107,112.53,119.08,2
107,112.42,118.96,2
107,112.31,118.84,2
108,112.23,118.73,2
107,112.12,118.61,2
107,112.02,118.49,2
106,111.90,118.37,2
107,111.80,118.26,2
105,111.67,118.12,2
107,111.57,118.01,2
105,111.44,117.88,2
106,111.33,117.76,2
105,111.21,117.64,2
107,111.12,117.53,2
105,111.00,117.40,2
105,110.88,117.28,2
105,110.76,117.16,2
105,110.65,117.04,2
105,110.53,116.92,2
105,110.42,116.80,2
105,110.32,116.68,2
104,110.19,116.55,2
105,110.08,116.44,2
104,109.96,116.31,2
105,109.86,116.20,2
104,109.75,116.08,2
104,109.63,115.96,2
104,109.52,115.84,2
103,109.39,115.71,2
103,109.26,115.58,2
103,109.14,115.46,2
103,109.01,115.33,2
103,108.89,115.21,2
104,108.79,115.10,2
103,108.68,114.97,2
103,108.57,114.85,2
104,108.47,114.75,2
103,108.36,114.63,2
102,108.24,114.50,2
103,108.13,114.39,2
102,108.01,114.26,2
101,107.87,114.13,2
102,107.75,114.01,2
101,107.62,113.88,2
102,107.50,113.76,2
101,107.37,113.63,2
101,107.25,113.51,2
103,107.16,113.40,2
101,107.04,113.28,2
101,106.92,113.15,2
101,106.80,113.03,2
101,106.68,112.91,2
100,106.55,112.78,2
102,106.46,112.68,2
101,106.35,112.56,2
99,106.20,112.42,2
99,106.06,112.29,2
100,105.94,112.17,2
100,105.82,112.04,2
99,105.68,111.91,2
100,105.57,111.80,2
99,105.44,111.67,2
100,105.33,111.55,2
99,105.20,111.42,2
100,105.10,111.31,2
100,105.00,111.20,2
96,104.82,111.05,2
99,104.70,110.93,2
100,104.61,110.82,2
99,104.49,110.70,2
99,104.38,110.58,2
99,104.28,110.46,2
99,104.17,110.35,2
98,104.05,110.23,2
101,103.99,110.13,2
99,103.89,110.02,2
97,103.75,109.89,2
98,103.63,109.77,2
98,103.52,109.66,2
98,103.41,109.54,2
98,103.30,109.42,2
100,103.24,109.33,2
97,103.11,109.21,2
98,103.01,109.09,2
98,102.91,108.98,2
98,102.81,108.87,2
98,102.72,108.77,2
97,102.60,108.65,2
97,102.49,108.53,2
97,102.38,108.42,2
97,102.27,108.30,2
97,102.17,108.19,2
96,102.04,108.07,2
97,101.94,107.96,2
96,101.82,107.84,2
95,101.69,107.71,2
97,101.59,107.60,2
95,101.46,107.48,2
95,101.33,107.35,2
96,101.23,107.24,2
95,101.10,107.11,2
95,100.98,106.99,2
98,100.92,106.90,2
95,100.80,106.78,2
96,100.70,106.68,2
95,100.59,106.56,2
95,100.48,106.44,2
94,100.35,106.32,2
96,100.26,106.22,2
95,100.16,106.10,2
94,100.03,105.98,2
95,99.93,105.87,2
93,99.79,105.74,2
95,99.70,105.64,2
95,99.60,105.53,2
94,99.49,105.42,2
94,99.38,105.30,2
94,99.28,105.19,2
94,99.17,105.08,2
95,99.09,104.98,2
95,99.00,104.88,2
93,98.88,104.76,2
94,98.79,104.65,2
93,98.67,104.53,2
93,98.56,104.42,2
93,98.45,104.30,2
93,98.34,104.19,2
94,98.25,104.09,2
93,98.15,103.98,2
93,98.04,103.87,2
93,97.94,103.76,2
93,97.84,103.65,2
94,97.77,103.56,2
95,97.71,103.47,2
93,97.62,103.37,2
93,97.52,103.26,2
92,97.41,103.15,2
97,97.41,103.09,2
93,97.32,102.99,2
92,97.21,102.88,2
92,97.11,102.77,2
93,97.02,102.67,2
92,96.92,102.56,2
92,96.83,102.46,2
92,96.73,102.35,2
92,96.63,102.25,2
92,96.54,102.15,2
92,96.45,102.05,2
92,96.36,101.95,2
91,96.25,101.84,2
92,96.17,101.74,2
92,96.09,101.64,2
92,96.00,101.54,2
92,95.92,101.45,2
92,95.85,101.35,2
92,95.77,101.26,2
92,95.69,101.17,2
93,95.64,101.09,2
91,95.55,100.99,2
92,95.48,100.90,2
92,95.41,100.81,2
92,95.34,100.72,2
91,95.25,100.62,2
92,95.19,100.53,2
91,95.10,100.44,2
91,95.02,100.35,2
92,94.96,100.26,2
91,94.88,100.17,2
91,94.80,100.08,2
90,94.71,99.98,2
93,94.67,99.91,2
90,94.58,99.81,2
90,94.49,99.71,2
90,94.40,99.61,2
90,94.31,99.52,2
90,94.22,99.42,2
90,94.14,99.33,2
90,94.06,99.23,2
92,94.02,99.16,2
89,93.92,99.06,2
88,93.80,98.95,2
88,93.68,98.84,2
89,93.59,98.74,2
88,93.48,98.63,2
88,93.37,98.53,2
88,93.26,98.42,2
87,93.13,98.31,2
90,93.07,98.23,2
88,92.97,98.12,2
88,92.87,98.02,2
89,92.79,97.93,2
88,92.70,97.83,2
88,92.60,97.73,2
88,92.51,97.64,2
89,92.44,97.55,2
88,92.35,97.45,2
88,92.27,97.36,2
89,92.20,97.28,2
89,92.14,97.19,2
88,92.05,97.10,2
88,91.97,97.01,2
88,91.89,96.92,2
88,91.81,96.83,2
88,91.74,96.74,2
88,91.66,96.66,2
88,91.59,96.57,2
88,91.52,96.48,2
87,91.43,96.39,2
88,91.36,96.30,2
88,91.29,96.22,2
88,91.23,96.14,2
88,91.16,96.06,2
86,91.06,95.96,2
88,91.00,95.88,2
88,90.94,95.80,2
87,90.86,95.71,2
88,90.80,95.63,2
88,90.75,95.56,2
88,90.69,95.48,2
88,90.64,95.41,2
88,90.58,95.33,2
88,90.53,95.26,2
87,90.46,95.18,2
88,90.41,95.11,2
90,90.40,95.05,2
88,90.36,94.98,2
88,90.31,94.91,2
88,90.26,94.84,2
88,90.22,94.78,2
88,90.17,94.71,2
88,90.13,94.64,2
88,90.09,94.58,2
87,90.03,94.50,2
87,89.97,94.42,2
86,89.89,94.34,2
89,89.87,94.29,2
87,89.81,94.21,2
86,89.73,94.13,2
89,89.72,94.08,2
87,89.67,94.01,2
88,89.63,93.95,2
86,89.56,93.87,2
88,89.53,93.81,2
87,89.48,93.74,2
86,89.41,93.67,2
87,89.36,93.60,2
87,89.31,93.53,2
86,89.25,93.46,2
86,89.18,93.38,2
86,89.12,93.31,2
86,89.06,93.24,2
86,88.99,93.16,2
86,88.93,93.09,2
86,88.88,93.02,2
86,88.82,92.95,2
87,88.78,92.89,2
86,88.73,92.82,2
86,88.67,92.75,2
86,88.62,92.69,2
87,88.59,92.63,2
86,88.53,92.56,2
86,88.48,92.50,2
86,88.43,92.43,2
86,88.39,92.37,2
86,88.34,92.31,2
86,88.29,92.24,2
86,88.25,92.18,2
86,88.20,92.12,2
86,88.16,92.06,2
86,88.11,92.00,2
85,88.05,91.93,2
85,87.99,91.86,2
84,87.91,91.78,2
86,87.87,91.72,2
85,87.81,91.65,2
86,87.78,91.60,2
85,87.72,91.53,2
88,87.73,91.50,2
85,87.67,91.43,2
86,87.64,91.38,2
86,87.61,91.32,2
85,87.56,91.26,2
85,87.50,91.20,2
85,87.45,91.13,2
84,87.38,91.06,2
85,87.34,91.00,2
86,87.31,90.95,2
86,87.28,90.90,2
88,87.30,90.87,2
86,87.27,90.83,2
85,87.23,90.77,2
88,87.24,90.74,2
86,87.22,90.69,2
88,87.23,90.67,2
85,87.19,90.61,2
85,87.14,90.55,2
86,87.12,90.51,2
86,87.10,90.46,2
86,87.08,90.42,2
85,87.04,90.36,2
85,87.00,90.31,2
86,86.98,90.27,2
87,86.98,90.23,2
85,86.94,90.18,2
86,86.92,90.14,2
84,86.86,90.08,2
85,86.82,90.03,2
85,86.79,89.98,2
86,86.77,89.94,2
83,86.69,89.87,2
84,86.64,89.81,2
87,86.65,89.78,2
84,86.59,89.72,2
84,86.54,89.67,2
85,86.51,89.62,2
85,86.48,89.57,2
84,86.43,89.52,2
84,86.38,89.46,2
84,86.34,89.41,2
85,86.31,89.36,2
84,86.26,89.31,2
84,86.22,89.26,2
84,86.17,89.20,2
84,86.13,89.15,2
84,86.09,89.10,2
84,86.05,89.05,2
84,86.00,89.00,2
85,85.98,88.96,2
84,85.94,88.91,2
84,85.91,88.86,2
84,85.87,88.81,2
85,85.85,88.77,2
84,85.81,88.73,2
84,85.78,88.68,2
86,85.78,88.65,2
85,85.77,88.62,2
84,85.73,88.57,2
84,85.70,88.52,2
85,85.68,88.49,2
84,85.65,88.44,2
84,85.62,88.40,2
86,85.62,88.38,2
85,85.61,88.34,2
84,85.58,88.30,2
84,85.55,88.25,2
84,85.52,88.21,2
84,85.49,88.17,2
86,85.50,88.15,2
84,85.47,88.11,2
84,85.44,88.07,2
85,85.43,88.04,2
84,85.40,87.99,2
84,85.37,87.96,2
84,85.34,87.92,2
84,85.32,87.88,2
84,85.29,87.84,2
84,85.27,87.80,2
84,85.24,87.76,2
85,85.24,87.73,2
87,85.27,87.73,2
84,85.24,87.69,2
86,85.26,87.67,2
85,85.25,87.65,2
85,85.25,87.62,2
85,85.24,87.59,2
86,85.26,87.58,2
85,85.25,87.55,2
85,85.25,87.53,2
84,85.22,87.49,2
84,85.20,87.46,2
85,85.20,87.43,2
84,85.17,87.40,2
84,85.15,87.36,2
84,85.13,87.33,2
85,85.12,87.31,2
84,85.10,87.27,2
84,85.08,87.24,2
84,85.06,87.21,2
84,85.04,87.18,2
85,85.04,87.15,2
85,85.03,87.13,2
84,85.01,87.10,2
84,84.99,87.07,2
84,84.97,87.04,2
84,84.95,87.01,2
84,84.94,86.98,2
82,84.88,86.93,2
84,84.86,86.90,2
84,84.84,86.87,2
83,84.80,86.83,2
85,84.81,86.81,2
84,84.79,86.79,2
84,84.78,86.76,2
83,84.74,86.72,2
85,84.75,86.70,2
84,84.73,86.68,2
83,84.70,86.64,2
82,84.64,86.59,2
84,84.63,86.57,2
84,84.62,86.54,2
84,84.61,86.52,2
81,84.53,86.46,2
84,84.52,86.44,2
84,84.51,86.41,2
83,84.48,86.38,2
84,84.47,86.35,2
84,84.46,86.33,2
84,84.45,86.31,2
88,84.52,86.32,2
82,84.47,86.28,2
83,84.44,86.25,2
83,84.42,86.22,2
82,84.37,86.17,2
84,84.36,86.15,2
85,84.37,86.14,2
83,84.35,86.11,2
82,84.30,86.07,2
83,84.27,86.04,2
83,84.25,86.01,2
82,84.20,85.97,2
83,84.18,85.94,2
83,84.15,85.91,2
84,84.15,85.89,2
83,84.13,85.86,2
83,84.11,85.83,2
84,84.10,85.81,2
84,84.10,85.79,2
84,84.10,85.78,2
84,84.10,85.76,2
84,84.10,85.74,2
85,84.11,85.73,2
85,84.13,85.73,2
84,84.13,85.71,2
84,84.13,85.69,2
85,84.14,85.68,2
85,84.16,85.68,2
85,84.18,85.67,2
84,84.17,85.65,2
85,84.19,85.65,2
84,84.19,85.63,2
85,84.20,85.63,2
85,84.22,85.62,2
85,84.23,85.61,2
86,84.27,85.62,2
84,84.26,85.60,2
84,84.26,85.58,2
85,84.27,85.58,2
84,84.27,85.56,2
85,84.28,85.56,2
85,84.30,85.55,2
84,84.29,85.54,2
84,84.29,85.52,2
88,84.36,85.55,2
84,84.35,85.53,2
86,84.39,85.53,2
86,84.42,85.54,2
85,84.43,85.53,2
84,84.42,85.52,2
85,84.43,85.51,2
84,84.42,85.50,2
85,84.44,85.49,2
84,84.43,85.48,2
85,84.44,85.47,2
86,84.47,85.48,2
84,84.46,85.46,2
84,84.45,85.45,2
86,84.48,85.45,2
85,84.49,85.45,2
85,84.50,85.45,2
85,84.51,85.44,2
86,84.54,85.45,2
88,84.61,85.47,2
85,84.62,85.47,2
86,84.65,85.47,2
85,84.65,85.47,2
86,84.68,85.47,2
85,84.69,85.47,2
86,84.71,85.47,2
86,84.74,85.48,2
86,84.76,85.48,2
86,84.79,85.49,2
86,84.81,85.50,2
86,84.84,85.50,2
86,84.86,85.51,2
86,84.88,85.51,2
86,84.91,85.51,2
86,84.93,85.52,2
86,84.95,85.52,2
86,84.97,85.53,2
86,84.99,85.53,2
87,85.03,85.55,2
86,85.05,85.55,2
86,85.07,85.56,2
86,85.09,85.56,2
86,85.11,85.57,2
86,85.12,85.57,2
86,85.14,85.58,2
86,85.16,85.58,2
87,85.20,85.59,2
87,85.23,85.61,2
86,85.25,85.61,2
87,85.28,85.63,2
88,85.34,85.65,2
86,85.35,85.65,2
86,85.36,85.66,2
86,85.38,85.66,2
87,85.41,85.67,2
86,85.42,85.68,2
86,85.43,85.68,2
88,85.48,85.70,2
87,85.51,85.72,2
88,85.56,85.74,2
86,85.57,85.74,2
90,85.66,85.78,2
88,85.71,85.81,2
88,85.75,85.83,2
88,85.80,85.85,2
88,85.84,85.87,2
89,85.90,85.90,2
90,85.99,85.94,2
90,86.07,85.98,2
91,86.17,86.03,2
90,86.24,86.07,2
92,86.36,86.13,2
90,86.43,86.17,2
91,86.52,86.22,2
91,86.61,86.27,2
90,86.68,86.31,2
90,86.75,86.34,2
90,86.81,86.38,2
90,86.87,86.41,2
95,87.04,86.50,2
90,87.10,86.54,2
90,87.15,86.57,2
89,87.19,86.59,2
89,87.23,86.62,2
92,87.32,86.67,2
91,87.40,86.72,2
91,87.47,86.76,2
89,87.50,86.78,2
91,87.57,86.82,2
92,87.66,86.87,2
91,87.72,86.92,2
92,87.81,86.97,2
92,87.89,87.02,2
92,87.98,87.07,2
92,88.06,87.12,2
92,88.14,87.17,2
92,88.21,87.21,2
92,88.29,87.26,2
91,88.34,87.30,2
92,88.42,87.35,2
92,88.49,87.39,2
90,88.52,87.42,2
91,88.57,87.45,2
92,88.64,87.50,2
91,88.68,87.53,2
90,88.71,87.56,2
91,88.76,87.59,2
91,88.80,87.63,2
91,88.84,87.66,2
90,88.87,87.69,2
91,88.91,87.72,2
91,88.95,87.75,2
90,88.97,87.77,2
90,88.99,87.80,2
91,89.03,87.83,2
91,89.07,87.86,2
91,89.11,87.89,2
92,89.17,87.93,2
93,89.25,87.98,2
91,89.28,88.01,2
92,89.34,88.05,2
93,89.41,88.10,2
94,89.50,88.16,2
93,89.57,88.21,2
92,89.62,88.25,2
93,89.69,88.30,2
92,89.73,88.33,2
93,89.80,88.38,2
94,89.88,88.44,2
94,89.96,88.49,2
94,90.05,88.55,2
94,90.12,88.60,2
94,90.20,88.65,2
94,90.28,88.71,2
93,90.33,88.75,2
94,90.41,88.80,2
94,90.48,88.86,2
94,90.55,88.91,2
94,90.62,88.96,2
94,90.68,89.01,2
96,90.79,89.08,2
94,90.86,89.13,2
93,90.90,89.17,2
96,91.00,89.23,2
97,91.12,89.31,2
95,91.20,89.37,2
96,91.29,89.44,2
96,91.39,89.50,2
96,91.48,89.57,2
96,91.57,89.63,2
97,91.68,89.70,2
100,91.85,89.81,2
96,91.93,89.87,2
96,92.01,89.93,2
97,92.11,90.00,2
97,92.21,90.07,2
97,92.30,90.14,2
97,92.40,90.21,2
98,92.51,90.29,2
99,92.64,90.37,2
98,92.75,90.45,2
100,92.89,90.55,2
100,93.03,90.64,2
100,93.17,90.73,2
99,93.29,90.82,2
102,93.46,90.93,2
100,93.59,91.02,2
99,93.70,91.10,2
102,93.87,91.21,2
102,94.03,91.32,2
104,94.23,91.44,2
104,94.43,91.57,2
101,94.56,91.66,2
103,94.73,91.78,2
104,94.91,91.90,2
103,95.07,92.01,2
103,95.23,92.12,2
103,95.39,92.23,2
103,95.54,92.34,2
103,95.69,92.44,2
105,95.88,92.57,2
106,96.08,92.70,2
105,96.26,92.82,2
105,96.43,92.95,2
106,96.62,93.08,2
107,96.83,93.22,2
106,97.01,93.34,2
105,97.17,93.46,2
105,97.33,93.58,2
107,97.52,93.71,2
110,97.77,93.87,2
107,97.96,94.00,2
106,98.12,94.12,2
107,98.30,94.25,2
107,98.47,94.38,2
108,98.66,94.52,2
108,98.85,94.65,2
108,99.03,94.79,2
108,99.21,94.92,2
108,99.39,95.05,2
108,99.56,95.18,2
107,99.71,95.30,2
109,99.89,95.43,2
108,100.05,95.56,2
109,100.23,95.69,2
109,100.41,95.83,2
110,100.60,95.97,2
109,100.77,96.10,2
111,100.97,96.25,2
109,101.13,96.37,2
109,101.29,96.50,2
109,101.45,96.63,2
108,101.58,96.74,2
110,101.74,96.87,2
111,101.93,97.01,2
110,102.09,97.14,2
110,102.25,97.27,2
110,102.40,97.40,2
112,102.60,97.55,2
111,102.76,97.68,2
116,103.03,97.86,2
117,103.31,98.05,2
120,103.64,98.27,2
120,103.97,98.49,2
122,104.33,98.73,2
125,104.74,98.99,2
127,105.19,99.27,2
130,105.68,99.58,2
130,106.17,99.88,2
129,106.63,100.17,2
130,107.10,100.47,2
130,107.55,100.77,2
131,108.02,101.07,2
131,108.48,101.37,2
133,108.97,101.68,2
135,109.49,102.02,2
135,110.00,102.35,2
137,110.54,102.69,2
137,111.07,103.04,2
136,111.57,103.37,2
137,112.08,103.70,2
138,112.60,104.05,2
141,113.17,104.41,2
142,113.74,104.79,2
143,114.33,105.17,2
146,114.96,105.58,2
145,115.56,105.98,2
145,116.15,106.37,2
147,116.77,106.77,2
145,117.33,107.15,2
146,117.91,107.54,2
145,118.45,107.92,2
148,119.04,108.32,2
148,119.62,108.71,2
147,120.17,109.10,2
148,120.72,109.49,2
147,121.25,109.86,2
147,121.76,110.23,2
147,122.27,110.60,2
148,122.78,110.97,2
148,123.29,111.34,2
149,123.80,111.72,2
148,124.28,112.08,2
149,124.78,112.45,2
149,125.26,112.82,2
150,125.76,113.19,2
149,126.22,113.55,2
149,126.68,113.90,2
149,127.12,114.25,2
151,127.60,114.62,2
150,128.05,114.98,2
150,128.49,115.33,2
151,128.94,115.68,2
150,129.36,116.03,2
149,129.75,116.36,2
150,130.16,116.69,2
150,130.56,117.02,2
151,130.96,117.36,2
151,131.37,117.70,2
151,131.76,118.03,2
151,132.14,118.36,2
151,132.52,118.69,2
151,132.89,119.01,2
151,133.25,119.33,2
151,133.61,119.65,2
153,133.99,119.98,2
154,134.39,120.32,2
153,134.77,120.65,2
153,135.13,120.97,2
154,135.51,121.30,2
154,135.88,121.63,2
154,136.24,121.95,2
155,136.62,122.29,2
156,137.00,122.62,2
156,137.38,122.96,2
156,137.76,123.29,2
156,138.12,123.61,2
156,138.48,123.94,2
156,138.83,124.26,2
157,139.19,124.59,2
158,139.57,124.92,2
157,139.92,125.24,2
159,140.30,125.58,2
159,140.67,125.91,2
159,141.04,126.24,2
160,141.42,126.58,2
159,141.77,126.90,2
160,142.13,127.24,2
160,142.49,127.56,2
161,142.86,127.90,2
164,143.29,128.26,2
166,143.74,128.64,2
167,144.20,129.02,2
168,144.68,129.41,2
171,145.21,129.83,2
173,145.76,130.26,2
175,146.35,130.70,2
177,146.96,131.17,2
176,147.54,131.62,2
176,148.11,132.06,2
178,148.71,132.52,2
177,149.27,132.96,2
178,149.85,133.41,2
178,150.41,133.86,2
177,150.94,134.29,2
179,151.50,134.74,2
179,152.05,135.18,2
179,152.59,135.62,2
178,153.10,136.04,2
177,153.58,136.45,2
177,154.05,136.86,2
177,154.51,137.26,2
177,154.96,137.66,2
177,155.40,138.05,2
177,155.83,138.44,2
177,156.25,138.83,2
176,156.65,139.20,2
176,157.04,139.57,2
176,157.41,139.93,2
178,157.83,140.31,2
175,158.17,140.66,2
175,158.51,141.00,2
175,158.84,141.34,2
175,159.16,141.68,2
174,159.46,142.00,2
174,159.75,142.32,2
174,160.03,142.64,2
173,160.29,142.94,2
174,160.57,143.25,2
174,160.83,143.56,2
175,161.12,143.87,2
174,161.38,144.17,2
175,161.65,144.48,2
175,161.91,144.79,2
175,162.18,145.09,2
173,162.39,145.37,2
173,162.61,145.65,2
173,162.81,145.92,2
174,163.04,146.20,2
173,163.24,146.47,2
173,163.43,146.73,2
173,163.62,147.00,2
173,163.81,147.26,2
173,163.99,147.51,2
173,164.17,147.77,2
174,164.37,148.03,2
173,164.54,148.28,2
173,164.71,148.53,2
173,164.88,148.77,2
173,165.04,149.01,2
173,165.20,149.25,2
173,165.36,149.49,2
173,165.51,149.73,2
173,165.66,149.96,2
172,165.79,150.18,2
172,165.91,150.40,2
172,166.03,150.61,2
172,166.15,150.83,2
171,166.25,151.03,2
171,166.34,151.23,2
172,166.46,151.44,2
171,166.55,151.63,2
170,166.62,151.82,2
170,166.68,152.00,2
170,166.75,152.18,2
169,166.80,152.35,2
169,166.84,152.51,2
169,166.88,152.68,2
169,166.92,152.84,2
169,166.97,153.00,2
169,167.01,153.16,2
168,167.03,153.31,2
169,167.07,153.47,2
168,167.08,153.61,2
172,167.18,153.80,2
168,167.20,153.94,2
167,167.20,154.07,2
168,167.21,154.21,2
168,167.23,154.35,2
167,167.22,154.47,2
167,167.22,154.60,2
167,167.21,154.72,2
167,167.21,154.85,2
168,167.23,154.98,2
167,167.22,155.10,2
167,167.22,155.22,2
167,167.21,155.33,2
167,167.21,155.45,2
167,167.20,155.57,2
167,167.20,155.68,2
163,167.12,155.75,2
167,167.11,155.87,2
165,167.07,155.96,2
164,167.01,156.04,2
165,166.97,156.13,2
166,166.95,156.23,2
165,166.91,156.31,2
165,166.87,156.40,2
165,166.84,156.49,2
165,166.80,156.57,2
165,166.76,156.66,2
164,166.71,156.73,2
164,166.65,156.80,2
163,166.58,156.86,2
163,166.51,156.93,2
163,166.44,156.99,2
164,166.39,157.06,2
163,166.32,157.12,2
164,166.28,157.19,2
163,166.21,157.24,2
163,166.15,157.30,2
163,166.08,157.36,2
163,166.02,157.41,2
161,165.92,157.45,2
161,165.82,157.49,2
161,165.73,157.52,2
161,165.63,157.56,2
161,165.54,157.59,2
160,165.43,157.61,2
160,165.32,157.64,2
160,165.21,157.66,2
161,165.13,157.70,2
159,165.01,157.71,2
160,164.91,157.73,2
159,164.79,157.74,2
159,164.67,157.76,2
159,164.56,157.77,2
158,164.43,157.77,2
157,164.28,157.76,2
157,164.13,157.76,2
157,163.99,157.75,2
157,163.85,157.74,2
157,163.71,157.73,2
156,163.56,157.72,2
155,163.39,157.69,2
156,163.24,157.67,2
156,163.10,157.66,2
155,162.93,157.63,2
155,162.78,157.60,2
154,162.60,157.57,2
156,162.47,157.55,2
155,162.32,157.53,2
154,162.15,157.49,2
154,161.99,157.45,2
155,161.85,157.43,2
153,161.67,157.39,2
153,161.50,157.34,2
153,161.33,157.30,2
153,161.16,157.26,2
153,161.00,157.21,2
154,160.86,157.18,2
153,160.70,157.14,2
152,160.53,157.09,2
152,160.36,157.04,2
152,160.19,156.99,2
151,160.01,156.93,2
151,159.83,156.87,2
151,159.65,156.81,2
151,159.48,156.75,2
151,159.31,156.69,2
150,159.12,156.63,2
149,158.92,156.55,2
150,158.74,156.48,2
151,158.59,156.43,2
149,158.39,156.36,2
149,158.21,156.28,2
149,158.02,156.21,2
149,157.84,156.14,2
149,157.66,156.07,2
149,157.49,156.00,2
148,157.30,155.92,2
147,157.10,155.83,2
148,156.91,155.75,2
148,156.74,155.67,2
147,156.54,155.58,2
147,156.35,155.50,2
147,156.16,155.41,2
147,155.98,155.33,2
147,155.80,155.25,2
147,155.62,155.16,2
145,155.41,155.06,2
145,155.20,154.96,2
146,155.02,154.87,2
145,154.82,154.77,3
143,154.58,154.65,3
145,154.39,154.56,3
145,154.20,154.46,3
145,154.02,154.37,3
144,153.82,154.26,3
143,153.60,154.15,3
144,153.41,154.05,3
143,153.20,153.94,3
143,153.00,153.83,3
144,152.82,153.73,3
143,152.62,153.62,3
144,152.45,153.53,3
143,152.26,153.42,3
143,152.07,153.32,3
143,151.89,153.22,3
143,151.72,153.11,3
142,151.52,153.00,3
143,151.35,152.90,3
142,151.16,152.79,3
142,150.98,152.69,3
141,150.78,152.57,3
142,150.61,152.46,3
141,150.41,152.35,3
141,150.23,152.23,3
141,150.04,152.12,3
141,149.86,152.01,3
141,149.68,151.90,3
141,149.51,151.79,3
141,149.34,151.68,3
140,149.15,151.57,3
139,148.95,151.44,3
139,148.75,151.32,3
140,148.57,151.20,3
139,148.38,151.08,3
140,148.22,150.97,3
139,148.03,150.85,3
140,147.87,150.74,3
139,147.69,150.63,3
138,147.50,150.50,3
137,147.29,150.36,3
139,147.12,150.25,3
137,146.92,150.12,3
137,146.72,149.99,3
138,146.55,149.87,3
137,146.36,149.74,3
137,146.17,149.61,3
137,145.99,149.48,3
137,145.81,149.36,3
137,145.63,149.24,3
137,145.46,149.11,3
136,145.27,148.98,3
136,145.08,148.85,3
136,144.90,148.72,3
136,144.72,148.60,3
136,144.55,148.47,3
132,144.30,148.31,3
135,144.11,148.17,3
134,143.91,148.03,3
135,143.73,147.90,3
135,143.56,147.77,3
133,143.35,147.62,3
134,143.16,147.49,3
136,143.02,147.37,3
133,142.82,147.23,3
133,142.62,147.09,3
133,142.43,146.95,3
133,142.24,146.81,3
133,142.05,146.67,3
133,141.87,146.53,3
133,141.70,146.40,3
132,141.50,146.25,3
131,141.29,146.10,3
133,141.13,145.97,3
132,140.94,145.83,3
133,140.78,145.70,3
132,140.61,145.56,3
131,140.42,145.42,3
132,140.25,145.28,3
131,140.06,145.14,3
131,139.88,145.00,3
130,139.68,144.85,3
129,139.47,144.69,3
130,139.28,144.55,3
129,139.08,144.39,3
129,138.87,144.24,3
130,138.70,144.09,3
129,138.50,143.94,3
129,138.31,143.79,3
129,138.13,143.65,3
129,137.94,143.50,3
128,137.75,143.34,3
129,137.57,143.20,3
128,137.38,143.05,3
128,137.19,142.90,3
127,136.99,142.74,3
127,136.79,142.58,3
127,136.59,142.43,3
128,136.42,142.28,3
127,136.23,142.13,3
127,136.05,141.98,3
127,135.87,141.83,3
127,135.69,141.68,3
126,135.49,141.52,3
126,135.30,141.37,3
126,135.12,141.21,3
126,134.94,141.06,3
125,134.74,140.90,3
125,134.54,140.74,3
125,134.35,140.58,3
125,134.17,140.43,3
124,133.96,140.26,3
125,133.78,140.11,3
125,133.61,139.96,3
125,133.43,139.81,3
125,133.27,139.66,3
124,133.08,139.51,3
123,132.88,139.34,3
124,132.70,139.19,3
124,132.53,139.04,3
124,132.36,138.89,3
124,132.19,138.74,3
124,132.03,138.59,3
123,131.85,138.43,3
124,131.69,138.29,3
123,131.51,138.14,3
124,131.36,137.99,3
123,131.20,137.84,3
123,131.03,137.70,3
123,130.87,137.55,3
124,130.74,137.41,3
122,130.56,137.26,3
123,130.41,137.12,3
121,130.22,136.96,3
122,130.06,136.81,3
121,129.88,136.65,3
122,129.72,136.50,3
121,129.54,136.35,3
121,129.37,136.19,3
120,129.19,136.03,3
121,129.02,135.88,3
121,128.86,135.73,3
121,128.70,135.59,3
121,128.55,135.44,3
120,128.38,135.28,3
120,128.21,135.13,3
119,128.03,134.97,3
119,127.85,134.81,3
119,127.67,134.65,3
119,127.50,134.50,3
119,127.33,134.34,3
119,127.16,134.19,3
119,127.00,134.04,3
119,126.84,133.89,3
118,126.66,133.73,3
118,126.49,133.57,3
117,126.30,133.40,3
117,126.11,133.24,3
118,125.95,133.09,3
118,125.79,132.94,3
117,125.61,132.78,3
117,125.44,132.62,3
118,125.29,132.47,3
117,125.13,132.32,3
117,124.96,132.17,3
117,124.81,132.01,3
116,124.63,131.85,3
116,124.46,131.70,3
116,124.29,131.54,3
115,124.10,131.37,3
115,123.92,131.21,3
115,123.74,131.05,3
115,123.57,130.89,3
115,123.40,130.73,3
115,123.23,130.57,3
115,123.06,130.41,3
115,122.90,130.26,3
114,122.72,130.10,3
114,122.55,129.94,3
113,122.36,129.77,3
114,122.19,129.61,3
114,122.03,129.45,3
113,121.85,129.29,3
113,121.67,129.13,3
113,121.50,128.97,3
113,121.33,128.81,3
113,121.16,128.65,3
113,121.00,128.49,3
113,120.84,128.34,3
113,120.68,128.18,3
113,120.53,128.03,3
113,120.38,127.88,3
112,120.21,127.72,3
113,120.06,127.57,3
111,119.88,127.41,3
111,119.71,127.24,3
111,119.53,127.08,3
111,119.36,126.92,3
111,119.19,126.76,3
111,119.03,126.60,3
111,118.87,126.45,3
111,118.71,126.29,3
111,118.56,126.14,3
110,118.39,125.98,3
110,118.22,125.82,3
107,117.99,125.63,3
109,117.81,125.47,3
110,117.66,125.31,3
109,117.48,125.15,3
109,117.31,124.99,3
109,117.15,124.83,3
109,116.99,124.67,3
109,116.83,124.51,3
109,116.67,124.36,3
109,116.52,124.20,3
109,116.37,124.05,3
108,116.20,123.89,3
108,116.03,123.73,3
107,115.85,123.56,3
108,115.70,123.41,3
107,115.52,123.24,3
108,115.37,123.09,3
107,115.20,122.93,3
107,115.04,122.77,3
106,114.86,122.60,3
107,114.70,122.45,3
106,114.53,122.28,3
107,114.38,122.13,3
106,114.21,121.97,3
105,114.03,121.80,3
105,113.85,121.63,3
106,113.69,121.48,3
105,113.52,121.31,3
106,113.36,121.16,3
106,113.22,121.01,3
105,113.05,120.85,3
105,112.89,120.69,3
105,112.73,120.53,3
105,112.58,120.38,3
105,112.43,120.22,3
105,112.28,120.07,3
105,112.13,119.92,3
105,111.99,119.77,3
105,111.85,119.62,3
108,111.77,119.51,3
105,111.64,119.36,3
105,111.51,119.22,3
105,111.38,119.07,3
106,111.27,118.94,3
105,111.14,118.80,3
105,111.02,118.67,3
105,110.90,118.53,3
104,110.76,118.38,3
105,110.65,118.25,3
104,110.51,118.11,3
104,110.38,117.97,3
104,110.26,117.83,3
105,110.15,117.70,3
104,110.03,117.56,3
103,109.89,117.42,3
103,109.75,117.27,3
103,109.61,117.13,3
103,109.48,116.99,3
103,109.35,116.85,3
103,109.23,116.71,3
103,109.10,116.57,3
103,108.98,116.44,3
102,108.84,116.29,3
101,108.68,116.14,3
102,108.55,116.00,3
102,108.42,115.86,3
102,108.29,115.72,3
101,108.14,115.57,3
101,108.00,115.43,3
101,107.86,115.28,3
101,107.72,115.14,3
101,107.59,115.00,3
101,107.46,114.86,3
101,107.33,114.72,3
101,107.20,114.58,3
100,107.06,114.44,3
99,106.90,114.28,3
100,106.76,114.14,3
99,106.60,113.99,3
100,106.47,113.85,3
99,106.32,113.70,3
100,106.20,113.56,3
101,106.09,113.44,3
102,106.01,113.32,3
100,105.89,113.19,3
100,105.77,113.06,3
101,105.68,112.94,3
100,105.56,112.81,3
99,105.43,112.67,3
100,105.32,112.54,3
99,105.20,112.41,3
100,105.09,112.28,3
99,104.97,112.15,3
99,104.85,112.02,3
98,104.71,111.88,3
99,104.60,111.75,3
98,104.47,111.61,3
100,104.38,111.50,3
99,104.27,111.37,3
99,104.17,111.25,3
98,104.04,111.12,3
97,103.90,110.97,3
98,103.78,110.84,3
98,103.67,110.72,3
98,103.55,110.59,3
97,103.42,110.45,3
98,103.31,110.33,3
98,103.21,110.21,3
98,103.10,110.08,3
97,102.98,109.95,3
97,102.86,109.82,3
96,102.73,109.68,3
96,102.59,109.55,3
96,102.46,109.41,3
96,102.33,109.28,3
98,102.24,109.17,3
96,102.12,109.03,3
97,102.02,108.91,3
96,101.90,108.78,3
95,101.76,108.65,3
96,101.64,108.52,3
95,101.51,108.38,3
96,101.40,108.26,3
95,101.27,108.13,3
94,101.13,107.99,3
95,101.00,107.86,3
96,100.90,107.74,3
94,100.77,107.60,3
94,100.63,107.47,3
94,100.50,107.33,3
94,100.37,107.20,3
93,100.22,107.06,3
94,100.10,106.92,3
94,99.97,106.80,3
94,99.85,106.67,3
94,99.74,106.54,3
94,99.62,106.42,3
93,99.49,106.28,3
93,99.36,106.15,3
93,99.23,106.02,3
93,99.11,105.89,3
93,98.99,105.76,3
93,98.87,105.63,3
93,98.75,105.50,3
93,98.63,105.38,3
93,98.52,105.26,3
93,98.41,105.13,3
93,98.30,105.01,3
93,98.20,104.89,3
92,98.07,104.76,3
93,97.97,104.64,3
93,97.87,104.53,3
92,97.75,104.40,3
92,97.64,104.28,3
92,97.53,104.16,3
92,97.42,104.03,3
91,97.29,103.90,3
92,97.18,103.79,3
91,97.06,103.66,3
92,96.96,103.54,3
91,96.84,103.42,3
91,96.72,103.29,3
92,96.63,103.18,3
91,96.51,103.06,3
90,96.38,102.93,3
90,96.26,102.80,3
91,96.15,102.68,3
92,96.07,102.57,3
89,95.93,102.44,3
91,95.83,102.32,3
89,95.69,102.19,3
92,95.62,102.09,3
91,95.53,101.98,3
89,95.40,101.85,3
90,95.29,101.73,3
90,95.18,101.61,3
90,95.08,101.49,3
89,94.96,101.37,3
89,94.84,101.25,3
89,94.72,101.12,3
89,94.61,101.00,3
89,94.49,100.88,3
90,94.40,100.77,3
89,94.30,100.66,3
89,94.19,100.54,3
89,94.09,100.42,3
87,93.94,100.29,3
88,93.83,100.17,3
89,93.73,100.05,3
88,93.61,99.93,3
88,93.50,99.81,3
90,93.43,99.72,3
88,93.32,99.60,3
88,93.22,99.48,3
88,93.11,99.37,3
88,93.01,99.25,3
88,92.91,99.14,3
88,92.81,99.03,3
88,92.72,98.92,3
88,92.62,98.81,3
88,92.53,98.70,3
88,92.44,98.60,3
88,92.35,98.49,3
88,92.26,98.39,3
88,92.18,98.28,3
88,92.09,98.18,3
88,92.01,98.08,3
88,91.93,97.98,3
88,91.85,97.88,3
88,91.78,97.78,3
87,91.68,97.67,3
88,91.61,97.57,3
87,91.51,97.47,3
87,91.42,97.36,3
87,91.34,97.26,3
87,91.25,97.16,3
86,91.14,97.05,3
86,91.04,96.93,3
86,90.94,96.83,3
86,90.84,96.72,3
87,90.77,96.62,3
86,90.67,96.51,3
86,90.58,96.41,3
86,90.48,96.30,3
85,90.38,96.19,3
85,90.27,96.08,3
86,90.18,95.98,3
85,90.08,95.87,3
87,90.02,95.78,3
85,89.92,95.67,3
85,89.82,95.57,3
85,89.72,95.46,3
85,89.63,95.36,3
85,89.54,95.25,3
86,89.46,95.16,3
84,89.36,95.05,3
85,89.27,94.95,3
84,89.16,94.84,3
84,89.06,94.73,3
84,88.96,94.62,3
85,88.88,94.53,3
84,88.78,94.42,3
84,88.69,94.32,3
82,88.55,94.19,3
85,88.48,94.10,3
84,88.39,94.00,3
84,88.30,93.90,3
82,88.18,93.78,3
84,88.09,93.68,3
85,88.03,93.60,3
81,87.89,93.47,3
82,87.77,93.36,3
84,87.70,93.26,3
83,87.60,93.16,3
83,87.51,93.06,3
82,87.40,92.95,3
82,87.29,92.84,3
82,87.19,92.73,3
82,87.08,92.62,3
82,86.98,92.52,3
84,86.92,92.43,3
84,86.86,92.35,3
82,86.77,92.24,3
82,86.67,92.14,3
83,86.60,92.05,3
83,86.53,91.96,3
82,86.44,91.86,3
82,86.35,91.76,3
81,86.24,91.65,3
82,86.16,91.56,3
82,86.07,91.46,3
81,85.97,91.36,3
82,85.89,91.26,3
83,85.83,91.18,3
82,85.76,91.09,3
82,85.68,91.00,3
83,85.63,90.92,3
81,85.54,90.82,3
80,85.42,90.71,3
82,85.36,90.62,3
81,85.27,90.53,3
81,85.18,90.43,3
80,85.08,90.33,3
81,85.00,90.23,3
79,84.88,90.12,3
82,84.82,90.04,3
80,84.72,89.94,3
80,84.63,89.84,3
81,84.56,89.75,3
80,84.47,89.65,3
80,84.38,89.56,3
80,84.29,89.46,3
80,84.20,89.37,3
80,84.12,89.27,3
80,84.04,89.18,3
79,83.94,89.08,3
79,83.84,88.98,3
79,83.74,88.88,3
79,83.65,88.78,3
79,83.55,88.68,3
79,83.46,88.59,3
79,83.37,88.49,3
78,83.27,88.39,3
79,83.18,88.29,3
79,83.10,88.20,3
79,83.01,88.11,3
79,82.93,88.02,3
78,82.84,87.92,3
81,82.80,87.85,3
80,82.74,87.77,3
78,82.65,87.67,3
78,82.56,87.57,3
79,82.48,87.49,3
78,82.39,87.39,3
78,82.31,87.30,3
78,82.22,87.21,3
78,82.14,87.11,3
79,82.07,87.03,3
78,81.99,86.94,3
78,81.91,86.85,3
77,81.81,86.75,3
77,81.72,86.66,3
78,81.64,86.57,3
78,81.57,86.48,3
77,81.48,86.39,3
78,81.41,86.31,3
78,81.34,86.22,3
78,81.27,86.14,3
77,81.19,86.05,3
78,81.13,85.97,3
78,81.06,85.89,3
78,81.00,85.81,3
76,80.90,85.71,3
77,80.82,85.62,3
77,80.75,85.54,3
76,80.65,85.44,3
77,80.58,85.36,3
78,80.53,85.28,3
76,80.44,85.19,3
76,80.35,85.10,3
77,80.28,85.02,3
77,80.22,84.94,3
76,80.13,84.85,3
78,80.09,84.78,3
77,80.03,84.70,3
77,79.97,84.63,3
76,79.89,84.54,3
76,79.81,84.45,3
77,79.75,84.38,3
76,79.68,84.30,3
76,79.60,84.21,3
76,79.53,84.13,3
76,79.46,84.05,3
77,79.41,83.98,3
76,79.34,83.90,3
76,79.28,83.82,3
77,79.23,83.75,3
79,79.23,83.70,3
77,79.18,83.64,3
76,79.12,83.56,3
77,79.08,83.50,3
76,79.01,83.42,3
79,79.01,83.38,3
76,78.95,83.30,3
77,78.92,83.24,3
75,78.84,83.16,3
76,78.78,83.09,3
76,78.72,83.02,3
77,78.69,82.95,3
76,78.64,82.89,3
78,78.62,82.84,3
76,78.57,82.77,3
77,78.54,82.71,3
75,78.47,82.63,3
76,78.42,82.57,3
76,78.37,82.50,3
77,78.34,82.45,3
77,78.32,82.39,3
77,78.29,82.34,3
76,78.24,82.27,3
77,78.22,82.22,3
77,78.20,82.17,3
78,78.19,82.13,3
76,78.15,82.07,3
77,78.12,82.02,3
76,78.08,81.96,3
76,78.04,81.90,3
76,78.00,81.84,3
76,77.96,81.78,3
76,77.92,81.72,3
76,77.88,81.66,3
76,77.84,81.61,3
75,77.79,81.54,3
76,77.75,81.49,3
74,77.68,81.41,3
76,77.64,81.36,3
75,77.59,81.29,3
75,77.54,81.23,3
75,77.49,81.17,3
75,77.44,81.11,3
75,77.39,81.05,3
74,77.32,80.97,3
75,77.28,80.92,3
74,77.21,80.85,3
76,77.19,80.80,3
76,77.16,80.75,3
75,77.12,80.69,3
75,77.08,80.64,3
76,77.05,80.59,3
75,77.01,80.53,3
75,76.97,80.48,3
74,76.91,80.41,3
74,76.86,80.35,3
75,76.82,80.30,3
74,76.76,80.23,3
74,76.71,80.17,3
75,76.67,80.12,3
76,76.66,80.08,3
74,76.61,80.02,3
74,76.55,79.96,3
74,76.50,79.90,3
74,76.45,79.84,3
74,76.40,79.78,3
74,76.36,79.72,3
75,76.33,79.67,3
74,76.28,79.62,3
74,76.24,79.56,3
74,76.19,79.51,3
74,76.15,79.45,3
75,76.12,79.41,3
74,76.08,79.35,3
74,76.04,79.30,3
75,76.02,79.26,3
74,75.98,79.20,3
76,75.98,79.17,3
74,75.94,79.12,3
74,75.90,79.07,3
74,75.86,79.02,3
76,75.87,78.99,3
74,75.83,78.94,3
75,75.81,78.90,3
74,75.78,78.85,3
74,75.74,78.80,3
73,75.69,78.74,3
74,75.65,78.69,3
76,75.66,78.67,3
73,75.61,78.61,3
74,75.57,78.57,3
74,75.54,78.52,3
74,75.51,78.47,3
73,75.46,78.42,3
74,75.43,78.38,3
74,75.40,78.33,3
74,75.38,78.29,3
73,75.33,78.24,3
74,75.30,78.19,3
74,75.28,78.15,3
76,75.29,78.13,3
73,75.24,78.08,3
74,75.22,78.04,3
75,75.21,78.01,3
76,75.23,77.99,3
74,75.21,77.95,3
74,75.18,77.91,3
73,75.14,77.86,3
73,75.10,77.81,3
73,75.05,77.76,3
73,75.01,77.71,3
73,74.97,77.67,3
74,74.95,77.63,3
73,74.91,77.58,3
73,74.88,77.54,3
75,74.88,77.51,3
72,74.82,77.46,3
73,74.78,77.41,3
73,74.75,77.37,3
72,74.69,77.32,3
73,74.66,77.27,3
72,74.61,77.22,3
72,74.55,77.17,3
71,74.48,77.11,3
73,74.45,77.06,3
73,74.42,77.02,3
73,74.40,76.98,3
73,74.37,76.94,3
73,74.34,76.90,3
72,74.29,76.86,3
73,74.27,76.82,3
74,74.26,76.79,3
73,74.24,76.75,3
74,74.23,76.72,3
74,74.23,76.70,3
74,74.22,76.67,3
73,74.20,76.63,3
74,74.19,76.61,3
74,74.19,76.58,3
73,74.17,76.54,3
74,74.16,76.52,3
74,74.16,76.49,3
72,74.12,76.45,3
72,74.07,76.40,3
73,74.05,76.37,3
72,74.01,76.33,3
72,73.97,76.28,3
73,73.95,76.25,3
73,73.93,76.22,3
72,73.89,76.18,3
72,73.86,76.13,3
73,73.84,76.10,3
72,73.80,76.06,3
72,73.77,76.02,3
74,73.77,76.00,3
73,73.76,75.97,3
72,73.72,75.93,3
72,73.69,75.89,3
74,73.69,75.87,3
74,73.70,75.85,3
74,73.71,75.84,3
74,73.71,75.82,3
74,73.72,75.80,3
74,73.72,75.78,3
74,73.73,75.76,3
74,73.73,75.75,3
74,73.74,75.73,3
74,73.74,75.71,3
74,73.75,75.69,3
75,73.77,75.69,3
75,73.80,75.68,3
74,73.80,75.66,3
74,73.81,75.65,3
76,73.85,75.65,3
74,73.85,75.63,3
75,73.88,75.63,3
76,73.92,75.63,3
76,73.96,75.63,3
76,74.00,75.64,3
75,74.02,75.63,3
74,74.02,75.62,3
74,74.02,75.60,3
74,74.02,75.58,3
75,74.04,75.58,3
74,74.04,75.56,3
76,74.08,75.57,3
76,74.12,75.57,3
75,74.13,75.56,3
75,74.15,75.56,3
74,74.15,75.54,3
74,74.15,75.53,3
76,74.18,75.53,3
75,74.20,75.53,3
74,74.20,75.51,3
74,74.19,75.50,3
76,74.23,75.50,3
76,74.26,75.51,3
74,74.26,75.49,3
73,74.23,75.47,3
76,74.27,75.47,3
74,74.26,75.46,3
74,74.26,75.44,3
74,74.25,75.43,3
74,74.25,75.41,3
73,74.22,75.39,3
74,74.22,75.38,3
75,74.23,75.37,3
75,74.25,75.37,3
76,74.28,75.38,3
76,74.32,75.38,3
74,74.31,75.37,3
75,74.33,75.36,3
76,74.36,75.37,3
74,74.35,75.36,3
74,74.34,75.34,3
74,74.34,75.33,3
74,74.33,75.32,3
74,74.32,75.30,3
74,74.32,75.29,3
75,74.33,75.29,3
74,74.32,75.27,3
74,74.32,75.26,3
74,74.31,75.25,3
74,74.31,75.24,3
74,74.30,75.22,3
74,74.29,75.21,3
74,74.29,75.20,3
75,74.30,75.20,3
74,74.30,75.19,3
74,74.29,75.17,3
78,74.36,75.20,3
74,74.36,75.19,3
74,74.35,75.18,3
74,74.34,75.17,3
74,74.34,75.15,3
74,74.33,75.14,3
74,74.32,75.13,3
74,74.32,75.12,3
74,74.31,75.11,3
75,74.32,75.11,3
74,74.32,75.10,3
73,74.29,75.08,3
74,74.29,75.07,3
74,74.28,75.05,3
74,74.27,75.04,3
74,74.27,75.03,3
73,74.24,75.01,3
75,74.26,75.01,3
74,74.25,75.00,3
74,74.25,74.99,3
75,74.26,74.99,3
75,74.28,74.99,3
76,74.31,75.00,3
76,74.35,75.01,3
76,74.38,75.02,3
75,74.39,75.02,3
76,74.42,75.03,3
76,74.46,75.04,3
76,74.49,75.05,3
76,74.52,75.06,3
76,74.55,75.07,3
76,74.58,75.08,3
76,74.60,75.09,3
75,74.61,75.09,3
75,74.62,75.09,3
76,74.65,75.10,3
76,74.67,75.11,3
76,74.70,75.11,3
74,74.69,75.10,3
76,74.71,75.11,3
75,74.72,75.11,3
76,74.74,75.12,3
77,74.79,75.14,3
76,74.81,75.15,3
74,74.80,75.14,3
75,74.80,75.13,3
76,74.83,75.14,3
76,74.85,75.15,3
75,74.85,75.15,3
76,74.87,75.16,3
76,74.90,75.17,3
76,74.92,75.18,3
76,74.94,75.18,3
75,74.94,75.18,3
76,74.96,75.19,3
76,74.98,75.20,3
74,74.96,75.19,3
75,74.96,75.18,3
76,74.99,75.19,3
78,75.05,75.22,3
76,75.07,75.23,3
76,75.08,75.24,3
78,75.14,75.26,3
76,75.16,75.27,3
76,75.18,75.28,3
76,75.19,75.29,3
76,75.21,75.29,3
76,75.22,75.30,3
76,75.24,75.31,3
76,75.26,75.31,3
76,75.27,75.32,3
74,75.24,75.31,3
76,75.26,75.31,3
76,75.27,75.32,3
75,75.27,75.32,3
76,75.28,75.33,3
76,75.30,75.33,3
76,75.31,75.34,3
75,75.31,75.34,3
76,75.32,75.34,3
76,75.33,75.35,3
77,75.37,75.36,3
75,75.36,75.36,3
76,75.37,75.37,3
76,75.38,75.37,3
76,75.40,75.38,3
75,75.39,75.38,3
76,75.40,75.38,3
76,75.41,75.39,3
77,75.44,75.40,3
75,75.44,75.40,3
76,75.45,75.41,3
76,75.46,75.41,3
75,75.45,75.41,3
76,75.46,75.41,3
76,75.47,75.42,3
76,75.48,75.43,3
76,75.49,75.43,3
75,75.48,75.43,3
76,75.49,75.43,3
75,75.48,75.43,3
75,75.47,75.42,3
76,75.48,75.43,3
76,75.49,75.44,3
75,75.48,75.43,3
75,75.47,75.43,3
76,75.48,75.43,3
76,75.50,75.44,3
74,75.47,75.42,3
75,75.46,75.42,3
76,75.47,75.43,3
75,75.46,75.42,3
76,75.47,75.43,3
75,75.46,75.42,3
75,75.45,75.42,3
78,75.50,75.44,3
75,75.49,75.44,3
75,75.48,75.44,3
76,75.49,75.44,3
76,75.50,75.45,3
75,75.49,75.44,3
75,75.48,75.44,3
78,75.53,75.46,3
74,75.50,75.45,3
75,75.49,75.44,3
74,75.46,75.43,3
76,75.47,75.44,3
75,75.46,75.43,3
74,75.43,75.42,3
74,75.40,75.40,3
75,75.40,75.40,3
74,75.37,75.39,3
74,75.34,75.37,3
74,75.31,75.36,3
76,75.33,75.36,3
76,75.34,75.37,3
74,75.32,75.36,3
76,75.33,75.36,3
76,75.34,75.37,3
75,75.34,75.37,3
76,75.35,75.37,3
74,75.32,75.36,3
76,75.34,75.36,3
75,75.33,75.36,3
74,75.30,75.35,3
76,75.32,75.35,3
75,75.31,75.35,3
75,75.30,75.35,3
76,75.32,75.35,3
74,75.29,75.34,3
78,75.35,75.37,3
74,75.32,75.35,3
74,75.29,75.34,3
77,75.33,75.36,3
76,75.34,75.36,3
76,75.35,75.37,3
76,75.37,75.38,3
76,75.38,75.38,3
76,75.39,75.39,3
75,75.38,75.38,3
76,75.40,75.39,3
77,75.43,75.41,3
77,75.46,75.42,3
76,75.47,75.43,3
78,75.52,75.45,3
77,75.55,75.47,3
77,75.58,75.48,3
78,75.63,75.51,3
78,75.67,75.53,3
79,75.74,75.57,3
79,75.81,75.60,3
78,75.85,75.63,3
78,75.89,75.65,3
79,75.96,75.68,3
80,76.04,75.73,3
78,76.08,75.75,3
79,76.13,75.78,3
79,76.19,75.82,3
79,76.25,75.85,3
80,76.32,75.89,3
79,76.38,75.92,3
80,76.45,75.96,3
81,76.54,76.01,3
80,76.61,76.05,3
81,76.70,76.10,3
82,76.80,76.16,3
81,76.89,76.21,3
82,76.99,76.27,3
82,77.09,76.32,3
83,77.21,76.39,3
82,77.30,76.45,3
84,77.44,76.52,3
83,77.55,76.59,3
84,77.68,76.66,3
84,77.80,76.73,3
84,77.93,76.81,3
84,78.05,76.88,3
85,78.19,76.96,3
86,78.34,77.05,3
85,78.48,77.13,3
86,78.63,77.22,3
86,78.78,77.31,3
85,78.90,77.38,3
85,79.02,77.46,3
86,79.16,77.54,3
87,79.32,77.64,3
86,79.45,77.72,3
86,79.58,77.81,3
86,79.71,77.89,3
87,79.86,77.98,3
87,80.00,78.07,3
87,80.14,78.16,3
88,80.30,78.26,3
87,80.43,78.34,3
88,80.58,78.44,3
88,80.73,78.54,3
88,80.88,78.63,3
89,81.04,78.73,3
89,81.20,78.84,3
90,81.37,78.95,3
90,81.55,79.06,3
89,81.70,79.16,3
90,81.86,79.27,3
91,82.04,79.38,3
90,82.20,79.49,3
92,82.40,79.62,3
92,82.59,79.74,3
92,82.78,79.86,3
92,82.96,79.98,3
92,83.14,80.10,3
94,83.36,80.24,3
92,83.53,80.36,3
92,83.70,80.48,3
93,83.89,80.60,3
93,84.07,80.73,3
92,84.23,80.84,3
92,84.39,80.95,3
93,84.56,81.07,3
95,84.77,81.21,3
94,84.95,81.34,3
94,85.13,81.46,3
94,85.31,81.59,3
95,85.50,81.72,3
95,85.69,81.86,3
96,85.90,82.00,3
96,86.10,82.14,3
95,86.28,82.27,3
98,86.51,82.42,3
96,86.70,82.56,3
97,86.91,82.70,3
98,87.13,82.86,3
98,87.35,83.01,3
98,87.56,83.16,3
97,87.75,83.30,3
96,87.92,83.42,3
98,88.12,83.57,3
98,88.32,83.71,3
99,88.53,83.87,3
98,88.72,84.01,3
99,88.92,84.16,3
98,89.11,84.30,3
97,89.26,84.42,3
98,89.44,84.56,3
99,89.63,84.70,3
100,89.84,84.86,3
100,90.04,85.01,3
99,90.22,85.15,3
100,90.41,85.30,3
99,90.59,85.43,3
101,90.79,85.59,3
101,91.00,85.74,3
100,91.18,85.89,3
100,91.36,86.03,3
101,91.55,86.18,3
101,91.74,86.33,3
101,91.92,86.47,3
101,92.10,86.62,3
102,92.30,86.77,3
102,92.50,86.92,3
105,92.75,87.10,3
103,92.95,87.26,3
106,93.21,87.45,3
106,93.47,87.64,3
105,93.70,87.81,3
108,93.98,88.01,3
109,94.28,88.22,3
109,94.58,88.43,3
110,94.89,88.64,3
111,95.21,88.87,3
113,95.57,89.11,3
114,95.93,89.36,3
112,96.26,89.58,3
111,96.55,89.80,3
111,96.84,90.01,3
111,97.12,90.22,3
112,97.42,90.44,3
112,97.71,90.65,3
111,97.98,90.86,3
111,98.24,91.06,3
113,98.53,91.28,3
112,98.80,91.49,3
111,99.05,91.68,3
112,99.31,91.88,3
113,99.58,92.10,3
113,99.85,92.30,3
113,100.11,92.51,3
113,100.37,92.72,3
116,100.68,92.95,3
116,100.99,93.18,3
115,101.27,93.40,3
114,101.52,93.60,3
114,101.77,93.81,3
116,102.06,94.03,3
114,102.30,94.23,3
115,102.55,94.44,3
115,102.80,94.64,3
115,103.04,94.85,3
114,103.26,95.04,3
114,103.48,95.23,3
115,103.71,95.43,3
115,103.93,95.62,3
116,104.17,95.82,3
116,104.41,96.03,3
116,104.64,96.23,3
118,104.91,96.44,3
119,105.19,96.67,3
120,105.49,96.90,3
122,105.82,97.15,3
120,106.10,97.38,3
120,106.38,97.61,3
122,106.69,97.85,3
122,107.00,98.09,3
124,107.34,98.35,3
124,107.67,98.61,3
126,108.04,98.88,3
129,108.46,99.18,3
126,108.81,99.45,3
127,109.17,99.73,3
128,109.55,100.01,3
129,109.94,100.30,3
129,110.32,100.59,3
129,110.69,100.87,3
129,111.06,101.15,3
131,111.46,101.45,3
131,111.85,101.75,3
131,112.23,102.04,3
131,112.61,102.33,3
132,112.99,102.63,3
133,113.39,102.93,3
133,113.79,103.23,3
133,114.17,103.53,3
133,114.55,103.82,3
135,114.96,104.13,3
135,115.36,104.44,3
135,115.75,104.75,3
135,116.14,105.05,3
137,116.55,105.37,3
138,116.98,105.70,3
137,117.38,106.01,3
137,117.77,106.32,3
137,118.16,106.63,3
137,118.54,106.93,3
138,118.93,107.24,3
138,119.31,107.55,3
139,119.70,107.86,3
140,120.11,108.18,3
139,120.48,108.49,3
141,120.89,108.82,3
141,121.30,109.14,3
141,121.69,109.46,3
143,122.12,109.79,3
144,122.55,110.14,3
143,122.96,110.46,3
144,123.38,110.80,3
145,123.82,111.14,3
145,124.24,111.48,3
145,124.66,111.82,3
145,125.06,112.15,3
148,125.52,112.51,3
147,125.95,112.85,3
150,126.43,113.22,3
149,126.88,113.58,3
153,127.41,113.97,3
155,127.96,114.38,3
157,128.54,114.81,3
157,129.11,115.23,3
159,129.71,115.67,3
161,130.33,116.12,3
163,130.98,116.59,3
161,131.58,117.04,3
161,132.17,117.48,3
161,132.75,117.91,3
161,133.31,118.34,3
161,133.87,118.77,3
164,134.47,119.22,3
162,135.02,119.65,3
163,135.58,120.08,3
163,136.13,120.51,3
162,136.65,120.93,3
163,137.17,121.35,3
162,137.67,121.75,3
161,138.14,122.15,3
162,138.61,122.54,3
161,139.06,122.93,3
161,139.50,123.31,3
161,139.93,123.69,3
161,140.35,124.06,3
160,140.75,124.42,3
160,141.13,124.78,3
160,141.51,125.13,3
160,141.88,125.48,3
159,142.22,125.81,3
159,142.56,126.14,3
160,142.90,126.48,3
162,143.29,126.84,3
161,143.64,127.18,3
161,143.99,127.52,3
161,144.33,127.85,3
161,144.66,128.18,3
162,145.01,128.52,3
163,145.37,128.87,3
162,145.70,129.20,3
163,146.05,129.54,3
161,146.35,129.85,3
163,146.68,130.18,3
162,146.99,130.50,3
161,147.27,130.80,3
162,147.56,131.12,3
160,147.81,131.41,3
161,148.07,131.70,3
161,148.33,131.99,3
161,148.58,132.28,3
161,148.83,132.57,3
161,149.08,132.86,3
161,149.32,133.14,3
161,149.55,133.42,3
160,149.76,133.68,3
160,149.96,133.95,3
161,150.18,134.22,3
161,150.40,134.48,3
159,150.57,134.73,3
159,150.74,134.97,3
157,150.87,135.19,3
159,151.03,135.43,3
159,151.19,135.67,3
159,151.34,135.90,3
157,151.46,136.11,3
158,151.59,136.33,3
157,151.70,136.54,3
157,151.80,136.74,3
157,151.91,136.94,3
157,152.01,137.14,3
157,152.11,137.34,3
157,152.21,137.54,3
157,152.30,137.73,3
157,152.40,137.93,3
157,152.49,138.12,3
157,152.58,138.31,3
157,152.67,138.49,3
157,152.75,138.68,3
158,152.86,138.87,3
157,152.94,139.05,3
157,153.02,139.23,3
157,153.10,139.41,3
157,153.18,139.59,3
157,153.26,139.76,3
156,153.31,139.92,3
156,153.36,140.08,3
155,153.40,140.23,3
155,153.43,140.38,3
155,153.46,140.53,3
155,153.49,140.67,3
154,153.50,140.80,3
155,153.53,140.95,3
154,153.54,141.08,3
154,153.55,141.21,3
153,153.54,141.32,3
153,153.53,141.44,3
153,153.52,141.56,3
153,153.51,141.67,3
153,153.50,141.78,3
152,153.47,141.89,3
152,153.44,141.99,3
152,153.41,142.09,3
151,153.36,142.18,3
151,153.31,142.26,3
151,153.27,142.35,3
151,153.22,142.44,3
151,153.18,142.52,3
151,153.13,142.61,3
151,153.09,142.69,3
150,153.03,142.77,3
150,152.97,142.84,3
150,152.91,142.91,3
151,152.87,142.99,3
149,152.79,143.05,3
151,152.76,143.13,3
149,152.68,143.19,3
150,152.63,143.26,3
149,152.56,143.31,3
150,152.51,143.38,3
149,152.44,143.44,3
149,152.37,143.49,3
148,152.28,143.54,3
147,152.17,143.57,3
147,152.07,143.61,3
148,151.99,143.65,3
147,151.89,143.68,3
147,151.79,143.72,3
147,151.70,143.75,3
147,151.60,143.78,3
147,151.51,143.81,3
145,151.38,143.83,3
147,151.29,143.86,3
145,151.17,143.87,3
146,151.06,143.89,3
145,150.94,143.90,3
145,150.82,143.91,3
145,150.71,143.92,3
145,150.59,143.93,3
145,150.48,143.95,3
144,150.35,143.95,3
145,150.24,143.96,3
143,150.10,143.95,3
144,149.98,143.95,3
143,149.84,143.94,3
144,149.72,143.94,3
143,149.59,143.93,3
143,149.45,143.92,3
143,149.33,143.91,3
143,149.20,143.90,3
143,149.07,143.89,3
143,148.95,143.88,3
143,148.83,143.87,3
142,148.70,143.86,3
141,148.54,143.83,3
142,148.41,143.81,3
141,148.26,143.78,3
142,148.14,143.76,3
141,148.00,143.74,3
141,147.86,143.71,3
141,147.72,143.68,3
141,147.59,143.65,3
144,147.51,143.66,3
141,147.38,143.63,3
140,147.24,143.60,3
140,147.09,143.56,3
140,146.95,143.52,3
139,146.79,143.48,3
140,146.65,143.44,3
140,146.52,143.41,3
139,146.37,143.37,3
139,146.22,143.32,3
139,146.08,143.28,3
137,145.90,143.22,3
138,145.74,143.16,3
139,145.60,143.12,3
137,145.43,143.06,3
137,145.26,143.00,3
135,145.06,142.92,3
137,144.90,142.86,3
137,144.74,142.80,3
137,144.58,142.74,3
137,144.43,142.69,3
136,144.26,142.62,3
136,144.10,142.55,3
135,143.92,142.48,3
135,143.74,142.40,3
135,143.56,142.33,3
135,143.39,142.26,3
135,143.22,142.18,3
134,143.04,142.10,3
135,142.88,142.03,3
134,142.70,141.95,3
134,142.53,141.87,3
133,142.34,141.78,3
133,142.15,141.69,3
133,141.97,141.61,3
133,141.79,141.52,3
133,141.61,141.44,3
133,141.44,141.35,4
133,141.27,141.27,4
133,141.11,141.19,5
133,140.94,141.10,5
131,140.75,141.00,5
132,140.57,140.91,5
132,140.40,140.82,5
132,140.23,140.74,5
131,140.05,140.64,5
132,139.89,140.55,5
131,139.71,140.46,5
131,139.53,140.36,5
131,139.36,140.27,5
131,139.20,140.18,5
132,139.05,140.09,5
131,138.89,140.00,5
131,138.73,139.91,5
130,138.56,139.81,5
134,138.47,139.76,5
130,138.30,139.66,5
129,138.11,139.55,5
129,137.93,139.45,5
129,137.75,139.34,5
130,137.60,139.25,5
130,137.44,139.16,5
129,137.28,139.05,5
127,137.07,138.93,5
128,136.89,138.82,5
129,136.73,138.73,5
128,136.56,138.62,5
128,136.38,138.51,5
128,136.22,138.41,5
127,136.03,138.29,5
127,135.85,138.18,5
126,135.65,138.06,5
127,135.48,137.95,5
127,135.31,137.84,5
127,135.15,137.73,5
127,134.98,137.62,5
126,134.80,137.51,5
126,134.63,137.39,5
126,134.45,137.28,5
125,134.27,137.15,5
125,134.08,137.03,5
125,133.90,136.91,5
125,133.72,136.79,5
125,133.55,136.68,5
125,133.38,136.56,5
125,133.21,136.44,5
125,133.04,136.33,5
125,132.88,136.22,5
124,132.71,136.09,5
124,132.53,135.97,5
123,132.34,135.84,5
124,132.17,135.72,5
124,132.01,135.61,5
124,131.85,135.49,5
123,131.67,135.37,5
124,131.52,135.25,5
123,131.35,135.13,5
121,131.14,134.99,5
123,130.98,134.87,5
121,130.78,134.73,5
123,130.62,134.61,5
122,130.45,134.49,5
121,130.26,134.35,5
123,130.12,134.24,5
121,129.94,134.11,5
121,129.76,133.97,5
122,129.60,133.86,5
121,129.43,133.73,5
120,129.24,133.59,5
120,129.06,133.45,5
119,128.85,133.31,5
120,128.68,133.18,5
120,128.50,133.04,5
120,128.33,132.91,5
119,128.15,132.77,5
119,127.96,132.64,5
120,127.81,132.51,5
119,127.63,132.38,5
119,127.46,132.24,5
119,127.29,132.11,5
119,127.12,131.98,5
119,126.96,131.85,5
117,126.76,131.70,5
117,126.56,131.55,5
119,126.41,131.43,5
118,126.25,131.29,5
118,126.08,131.16,5
117,125.90,131.02,5
117,125.72,130.88,5
118,125.57,130.75,5
117,125.39,130.61,5
117,125.23,130.48,5
117,125.06,130.34,5
117,124.90,130.21,5
117,124.74,130.08,5
117,124.59,129.94,5
116,124.42,129.81,5
117,124.27,129.68,5
116,124.10,129.54,5
116,123.94,129.41,5
116,123.78,129.27,5
116,123.63,129.14,5
116,123.47,129.01,5
116,123.32,128.88,5
115,123.16,128.74,5
116,123.01,128.61,5
115,122.85,128.47,5
115,122.70,128.34,5
115,122.54,128.21,5
115,122.39,128.07,5
114,122.22,127.93,5
114,122.06,127.79,5
113,121.88,127.65,5
113,121.70,127.50,5
113,121.53,127.35,5
113,121.36,127.21,5
113,121.19,127.07,5
113,121.03,126.93,5
114,120.89,126.80,5
113,120.73,126.66,5
113,120.57,126.52,5
113,120.42,126.39,5
113,120.27,126.26,5
111,120.09,126.10,5
112,119.93,125.96,5
110,119.73,125.80,5
112,119.57,125.66,5
112,119.42,125.53,5
112,119.27,125.39,5
111,119.11,125.25,5
111,118.95,125.11,5
111,118.79,124.96,5
111,118.63,124.83,5
111,118.48,124.69,5
111,118.33,124.55,5
111,118.18,124.41,5
111,118.04,124.28,5
110,117.88,124.14,5
111,117.74,124.01,5
109,117.57,123.86,5
110,117.41,123.72,5
110,117.27,123.58,5
109,117.10,123.43,5
109,116.94,123.29,5
109,116.78,123.15,5
109,116.62,123.01,5
109,116.47,122.87,5
109,116.32,122.73,5
111,116.22,122.61,5
109,116.07,122.47,5
110,115.95,122.35,5
108,115.79,122.21,5
108,115.64,122.06,5
108,115.48,121.92,5
108,115.33,121.78,5
108,115.19,121.65,5
107,115.02,121.50,5
108,114.88,121.36,5
107,114.72,121.22,5
107,114.57,121.08,5
107,114.42,120.94,5
107,114.27,120.80,5
107,114.12,120.66,5
107,113.98,120.52,5
110,113.90,120.42,5
107,113.76,120.28,5
107,113.63,120.15,5
107,113.50,120.02,5
107,113.37,119.89,5
107,113.24,119.76,5
105,113.07,119.61,5
107,112.95,119.49,5
107,112.83,119.36,5
107,112.72,119.24,5
106,112.58,119.11,5
107,112.47,118.99,5
105,112.32,118.85,5
105,112.18,118.71,5
105,112.03,118.57,5
105,111.89,118.43,5
106,111.77,118.31,5
105,111.64,118.18,5
105,111.51,118.05,5
105,111.38,117.91,5
105,111.25,117.79,5
104,111.10,117.65,5
104,110.96,117.51,5
104,110.82,117.38,5
105,110.71,117.25,5
103,110.55,117.11,5
104,110.42,116.98,5
103,110.27,116.84,5
103,110.13,116.70,5
103,109.98,116.56,5
103,109.84,116.43,5
101,109.67,116.27,5
103,109.53,116.14,5
103,109.40,116.01,5
102,109.25,115.87,5
101,109.09,115.72,5
101,108.93,115.57,5
101,108.77,115.43,5
101,108.61,115.28,5
102,108.48,115.15,5
101,108.33,115.01,5
103,108.23,114.89,5
101,108.08,114.75,5
101,107.94,114.61,5
101,107.80,114.48,5
101,107.66,114.34,5
101,107.53,114.21,5
101,107.40,114.08,5
102,107.29,113.96,5
102,107.19,113.84,5
100,107.04,113.70,5
101,106.92,113.57,5
100,106.78,113.43,5
100,106.65,113.30,5
100,106.52,113.17,5
100,106.38,113.04,5
100,106.26,112.91,5
99,106.11,112.77,5
99,105.97,112.63,5
99,105.83,112.49,5
99,105.69,112.36,5
98,105.54,112.21,5
98,105.39,112.07,5
100,105.28,111.95,5
98,105.14,111.81,5
98,104.99,111.67,5
98,104.85,111.54,5
98,104.72,111.40,5
98,104.58,111.27,5
98,104.45,111.13,5
97,104.30,110.99,5
100,104.22,110.88,5
98,104.09,110.75,5
98,103.97,110.63,5
98,103.85,110.50,5
98,103.73,110.38,5
96,103.58,110.23,5
96,103.43,110.09,5
97,103.30,109.96,5
98,103.19,109.84,5
96,103.05,109.70,5
99,102.97,109.59,5
96,102.83,109.46,5
96,102.69,109.32,5
96,102.56,109.19,5
98,102.47,109.08,5
96,102.34,108.95,5
96,102.21,108.82,5
95,102.07,108.68,5
96,101.94,108.55,5
95,101.81,108.42,5
96,101.69,108.29,5
95,101.56,108.16,5
96,101.44,108.04,5
95,101.32,107.91,5
98,101.25,107.81,5
94,101.10,107.67,5
95,100.98,107.54,5
95,100.86,107.42,5
94,100.73,107.28,5
94,100.59,107.15,5
94,100.46,107.02,5
94,100.33,106.89,5
94,100.20,106.76,5
94,100.08,106.63,5
94,99.96,106.51,5
94,99.84,106.38,5
94,99.72,106.26,5
94,99.61,106.14,5
94,99.50,106.01,5
94,99.39,105.89,5
93,99.26,105.77,5
93,99.13,105.64,5
93,99.01,105.51,5
93,98.89,105.39,5
93,98.77,105.26,5
93,98.66,105.14,5
93,98.54,105.02,5
92,98.41,104.89,5
93,98.30,104.77,5
92,98.18,104.64,5
91,98.03,104.51,5
92,97.91,104.38,5
92,97.80,104.26,5
91,97.66,104.12,5
92,97.55,104.00,5
92,97.44,103.88,5
91,97.31,103.75,5
91,97.18,103.63,5
91,97.06,103.50,5
91,96.94,103.37,5
91,96.82,103.25,5
91,96.70,103.13,5
90,96.57,103.00,5
89,96.42,102.86,5
90,96.29,102.73,5
90,96.16,102.60,5
91,96.06,102.49,5
90,95.94,102.36,5
90,95.82,102.24,5
90,95.70,102.11,5
90,95.59,101.99,5
89,95.46,101.86,5
90,95.35,101.75,5
91,95.26,101.64,5
91,95.17,101.53,5
92,95.11,101.44,5
92,95.05,101.34,5
91,94.97,101.24,5
91,94.89,101.14,5
91,94.81,101.03,5
91,94.73,100.93,5
91,94.66,100.83,5
90,94.57,100.73,5
90,94.48,100.62,5
92,94.43,100.53,5
88,94.30,100.41,5
89,94.19,100.29,5
92,94.15,100.21,5
90,94.06,100.11,5
89,93.96,100.00,5
90,93.88,99.90,5
89,93.79,99.79,5
90,93.71,99.69,5
90,93.64,99.59,5
92,93.60,99.52,5
89,93.51,99.41,5
90,93.44,99.32,5
89,93.35,99.22,5
89,93.27,99.11,5
89,93.18,99.01,5
89,93.10,98.91,5
90,93.03,98.82,5
89,92.95,98.72,5
88,92.86,98.62,5
89,92.78,98.52,5
90,92.72,98.44,5
88,92.63,98.33,5
88,92.54,98.23,5
89,92.46,98.14,5
88,92.38,98.03,5
89,92.31,97.94,5
88,92.22,97.84,5
89,92.16,97.76,5
89,92.09,97.67,5
88,92.01,97.57,5
88,91.93,97.48,5
88,91.85,97.38,5
88,91.78,97.29,5
88,91.70,97.19,5
88,91.63,97.10,5
88,91.55,97.01,5
88,91.48,96.92,5
88,91.41,96.83,5
88,91.35,96.74,5
86,91.24,96.64,5
88,91.17,96.55,5
87,91.09,96.45,5
87,91.01,96.36,5
87,90.93,96.27,5
87,90.85,96.17,5
87,90.77,96.08,5
86,90.68,95.98,5
86,90.58,95.88,5
87,90.51,95.79,5
86,90.42,95.70,5
86,90.33,95.60,5
88,90.29,95.52,5
86,90.20,95.43,5
86,90.12,95.33,5
86,90.03,95.24,5
86,89.95,95.15,5
86,89.87,95.06,5
86,89.80,94.96,5
85,89.70,94.87,5
86,89.63,94.78,5
86,89.55,94.69,5
86,89.48,94.60,5
86,89.41,94.52,5
85,89.33,94.42,5
85,89.24,94.33,5
86,89.17,94.24,5
86,89.11,94.16,5
85,89.03,94.07,5
85,88.95,93.98,5
88,88.93,93.92,5
85,88.85,93.83,5
84,88.75,93.73,5
85,88.68,93.64,5
85,88.60,93.56,5
84,88.51,93.46,5
84,88.42,93.37,5
86,88.37,93.29,5
84,88.29,93.20,5
84,88.20,93.11,5
84,88.12,93.02,5
87,88.09,92.96,5
85,88.03,92.88,5
84,87.95,92.79,5
84,87.87,92.70,5
86,87.84,92.63,5
84,87.76,92.55,5
84,87.68,92.46,5
84,87.61,92.38,5
83,87.52,92.28,5
84,87.45,92.20,5
84,87.38,92.12,5
84,87.31,92.04,5
83,87.22,91.95,5
83,87.14,91.86,5
82,87.04,91.76,5
82,86.94,91.66,5
81,86.82,91.56,5
83,86.74,91.47,5
82,86.65,91.38,5
82,86.55,91.28,5
84,86.50,91.21,5
82,86.41,91.12,5
82,86.32,91.03,5
82,86.24,90.93,5
82,86.15,90.85,5
82,86.07,90.76,5
82,85.99,90.67,5
82,85.91,90.58,5
82,85.83,90.50,5
82,85.75,90.41,5
82,85.68,90.33,5
82,85.61,90.24,5
81,85.51,90.15,5
82,85.44,90.07,5
81,85.35,89.98,5
80,85.25,89.88,5
81,85.16,89.79,5
