Teste de posicionamento 4(EMG tendao-inervacao (Vermelho A, Verde C) + Ref no cotovelo) - 16/04/2024 - teste1 - 5 contrações
long frequencia = 1000;                 //frequência de aquisição do sinal, neste caso, 1000 sinais por segundo
float fator1 = 0.02, fator2 = 0.01;
float incerteza = 0.13;
float pico_basal = 130; // Mínimo para ser considerado um pico de contração
int filtro_horizontal=200000; //intervalo de 200ms valores não pode ter mais de 1 contração

Biceps_D,mediaMovel_1,mediaMovel_2,Contracao
110,2.20,1.10,0
110,4.36,2.19,0
110,6.47,3.27,0
113,8.60,4.36,0
112,10.67,5.44,0
111,12.67,6.50,0
111,14.64,7.54,0
114,16.63,8.61,0
111,18.52,9.63,0
111,20.37,10.64,0
111,22.18,11.65,0
110,23.93,12.63,0
112,25.70,13.62,0
111,27.40,14.60,0
112,29.09,15.57,0
111,30.73,16.53,0
113,32.38,17.49,0
111,33.95,18.43,0
110,35.47,19.34,0
111,36.98,20.26,0
112,38.48,21.18,0
111,39.93,22.07,0
112,41.37,22.97,0
112,42.79,23.86,0
112,44.17,24.75,0
112,45.53,25.62,0
111,46.84,26.47,0
111,48.12,27.32,0
111,49.38,28.15,0
113,50.65,29.00,0
111,51.86,29.82,0
111,53.04,30.63,0
113,54.24,31.46,0
114,55.43,32.28,0
113,56.59,33.09,0
111,57.67,33.87,0
111,58.74,34.64,0
113,59.83,35.42,0
112,60.87,36.19,0
111,61.87,36.94,0
111,62.85,37.68,0
109,63.78,38.39,0
112,64.74,39.13,0
111,65.67,39.85,0
111,66.57,40.56,0
111,67.46,41.26,0
112,68.35,41.97,0
111,69.21,42.66,0
111,70.04,43.34,0
111,70.86,44.02,0
113,71.70,44.71,0
111,72.49,45.37,0
110,73.24,46.02,0
110,73.97,46.66,0
111,74.72,47.30,0
112,75.46,47.95,0
111,76.17,48.58,0
111,76.87,49.20,0
111,77.55,49.82,0
113,78.26,50.45,0
111,78.91,51.06,0
111,79.56,51.66,0
111,80.19,52.25,0
112,80.82,52.85,0
114,81.49,53.46,0
111,82.08,54.04,0
111,82.65,54.61,0
111,83.22,55.17,0
111,83.78,55.73,0
111,84.32,56.28,0
111,84.85,56.83,0
110,85.36,57.36,0
112,85.89,57.91,0
111,86.39,58.44,0
111,86.88,58.96,0
111,87.37,59.48,0
113,87.88,60.02,0
112,88.36,60.54,0
111,88.81,61.04,0
113,89.30,61.56,0
112,89.75,62.07,0
111,90.18,62.56,0
111,90.59,63.04,0
111,91.00,63.52,0
111,91.40,64.00,0
113,91.83,64.49,0
112,92.24,64.96,0
111,92.61,65.42,0
111,92.98,65.88,0
113,93.38,66.35,0
112,93.75,66.80,0
111,94.10,67.25,0
111,94.44,67.68,0
113,94.81,68.14,0
111,95.13,68.57,0
111,95.45,68.99,0
111,95.76,69.41,0
113,96.10,69.85,0
113,96.44,70.28,0
112,96.75,70.69,0
111,97.04,71.10,0
111,97.32,71.50,0
113,97.63,71.91,0
111,97.90,72.30,0
112,98.18,72.70,0
111,98.44,73.08,0
114,98.75,73.49,0
111,98.99,73.87,0
111,99.23,74.24,0
114,99.53,74.64,0
113,99.80,75.02,0
113,100.06,75.40,0
111,100.28,75.76,0
112,100.52,76.12,0
112,100.75,76.48,0
112,100.97,76.83,0
112,101.19,77.18,0
115,101.47,77.56,0
112,101.68,77.91,0
112,101.88,78.25,0
111,102.07,78.57,0
111,102.25,78.90,0
110,102.40,79.21,0
113,102.61,79.55,0
111,102.78,79.86,0
111,102.94,80.17,0
111,103.11,80.48,0
112,103.28,80.80,0
112,103.46,81.11,0
112,103.63,81.42,0
110,103.76,81.70,0
114,103.96,82.03,0
111,104.10,82.32,0
111,104.24,82.60,0
111,104.37,82.89,0
113,104.55,83.19,0
114,104.74,83.50,0
113,104.90,83.79,0
113,105.06,84.08,0
116,105.28,84.40,0
111,105.40,84.67,0
112,105.53,84.94,0
112,105.66,85.21,0
114,105.83,85.50,0
112,105.95,85.77,0
112,106.07,86.03,0
110,106.15,86.27,0
113,106.29,86.53,0
111,106.38,86.78,0
113,106.51,87.04,0
111,106.60,87.28,0
114,106.75,87.55,0
113,106.87,87.80,0
114,107.02,88.07,0
112,107.12,88.30,0
114,107.25,88.56,0
112,107.35,88.80,0
112,107.44,89.03,0
111,107.51,89.25,0
114,107.64,89.50,0
112,107.73,89.72,0
113,107.84,89.95,0
111,107.90,90.16,0
113,108.00,90.39,0
111,108.06,90.60,0
112,108.14,90.81,0
113,108.24,91.03,0
112,108.31,91.24,0
113,108.41,91.46,0
112,108.48,91.67,0
111,108.53,91.86,0
112,108.60,92.06,0
113,108.69,92.27,0
112,108.75,92.47,0
112,108.82,92.66,0
112,108.88,92.86,0
112,108.94,93.05,0
113,109.02,93.25,0
111,109.06,93.42,0
112,109.12,93.61,0
114,109.22,93.81,0
112,109.28,94.00,0
111,109.31,94.17,0
112,109.36,94.34,0
111,109.40,94.51,0
112,109.45,94.69,0
112,109.50,94.86,0
112,109.55,95.03,0
112,109.60,95.20,0
114,109.69,95.39,0
111,109.71,95.54,0
112,109.76,95.71,0
113,109.82,95.88,0
114,109.91,96.06,0
112,109.95,96.22,0
112,109.99,96.38,0
113,110.05,96.55,0
113,110.11,96.71,0
111,110.13,96.85,0
112,110.16,97.01,0
114,110.24,97.18,0
112,110.28,97.32,0
112,110.31,97.47,0
112,110.34,97.62,0
114,110.42,97.78,0
113,110.47,97.93,0
113,110.52,98.08,0
112,110.55,98.22,0
114,110.62,98.38,0
112,110.65,98.52,0
111,110.65,98.64,0
111,110.66,98.76,0
114,110.73,98.92,0
112,110.75,99.05,0
112,110.78,99.18,0
112,110.80,99.31,0
112,110.83,99.43,0
112,110.85,99.56,0
116,110.95,99.72,0
112,110.97,99.84,0
111,110.97,99.96,0
113,111.01,100.09,0
112,111.03,100.21,0
112,111.05,100.32,0
113,111.09,100.45,0
114,111.15,100.59,0
113,111.19,100.71,0
113,111.22,100.83,0
115,111.30,100.97,0
113,111.33,101.10,0
112,111.35,101.20,0
113,111.38,101.32,0
113,111.41,101.44,0
114,111.46,101.56,0
113,111.49,101.68,0
113,111.52,101.79,0
114,111.57,101.91,0
114,111.62,102.04,0
113,111.65,102.14,0
113,111.68,102.25,0
115,111.74,102.38,0
113,111.77,102.49,0
113,111.79,102.59,0
112,111.80,102.69,0
113,111.82,102.79,0
113,111.85,102.89,0
113,111.87,102.99,0
112,111.87,103.08,0
114,111.91,103.19,0
113,111.94,103.29,0
113,111.96,103.39,0
112,111.96,103.47,0
114,112.00,103.58,0
113,112.02,103.67,0
113,112.04,103.77,0
112,112.04,103.85,0
113,112.06,103.94,0
114,112.10,104.04,0
113,112.11,104.13,0
113,112.13,104.22,0
113,112.15,104.31,0
113,112.17,104.39,0
112,112.16,104.47,0
116,112.24,104.58,0
113,112.25,104.67,0
113,112.27,104.75,0
112,112.26,104.82,0
115,112.32,104.93,0
113,112.33,105.01,0
113,112.35,105.09,0
112,112.34,105.16,0
115,112.39,105.25,0
113,112.40,105.33,0
113,112.42,105.41,0
111,112.39,105.46,0
114,112.42,105.55,0
113,112.43,105.62,0
113,112.44,105.70,0
113,112.45,105.77,0
114,112.48,105.85,0
111,112.46,105.91,0
113,112.47,105.98,0
113,112.48,106.05,0
115,112.53,106.14,0
113,112.54,106.20,0
113,112.55,106.27,0
114,112.58,106.35,0
114,112.60,106.43,0
113,112.61,106.49,0
113,112.62,106.56,0
113,112.63,106.62,0
113,112.63,106.69,0
113,112.64,106.75,0
113,112.65,106.81,0
115,112.70,106.89,0
113,112.70,106.95,0
113,112.71,107.01,0
111,112.67,107.05,0
114,112.70,107.12,0
113,112.71,107.18,0
113,112.71,107.24,0
112,112.70,107.29,0
113,112.70,107.35,0
114,112.73,107.41,0
112,112.72,107.46,0
112,112.70,107.50,0
114,112.73,107.57,0
113,112.73,107.62,0
113,112.74,107.68,0
113,112.74,107.73,0
113,112.75,107.78,0
113,112.75,107.83,0
113,112.76,107.89,0
112,112.74,107.93,0
115,112.79,108.00,0
112,112.77,108.04,0
113,112.78,108.09,0
112,112.76,108.13,0
113,112.77,108.18,0
113,112.77,108.22,0
113,112.78,108.27,0
112,112.76,108.31,0
114,112.78,108.37,0
113,112.79,108.41,0
113,112.79,108.46,0
112,112.78,108.49,0
113,112.78,108.54,0
113,112.79,108.58,0
113,112.79,108.63,0
115,112.83,108.69,0
113,112.84,108.73,0
113,112.84,108.78,0
112,112.82,108.81,0
115,112.87,108.87,0
113,112.87,108.91,0
111,112.83,108.93,0
112,112.82,108.96,0
113,112.82,109.00,0
113,112.82,109.04,0
113,112.83,109.08,0
113,112.83,109.12,0
115,112.87,109.18,0
113,112.88,109.22,0
113,112.88,109.26,0
112,112.86,109.28,0
113,112.86,109.32,0
112,112.85,109.35,0
112,112.83,109.38,0
113,112.83,109.41,0
113,112.84,109.45,0
113,112.84,109.48,0
111,112.80,109.50,0
111,112.77,109.51,0
114,112.79,109.56,0
112,112.78,109.58,0
113,112.78,109.62,0
113,112.78,109.65,0
113,112.79,109.68,0
113,112.79,109.72,0
112,112.78,109.74,0
112,112.76,109.76,0
113,112.77,109.79,0
113,112.77,109.83,0
112,112.76,109.85,0
114,112.78,109.89,0
117,112.87,109.96,0
113,112.87,109.99,0
113,112.87,110.02,0
114,112.89,110.06,0
111,112.86,110.07,0
113,112.86,110.10,0
112,112.84,110.12,0
114,112.86,110.16,0
113,112.87,110.19,0
116,112.93,110.24,0
112,112.91,110.26,0
113,112.91,110.29,0
113,112.91,110.32,0
112,112.90,110.33,0
112,112.88,110.35,0
113,112.88,110.38,0
113,112.88,110.40,0
112,112.87,110.42,0
112,112.85,110.43,0
113,112.85,110.46,0
113,112.85,110.49,0
111,112.82,110.49,0
112,112.80,110.51,0
113,112.80,110.53,0
112,112.79,110.55,0
112,112.77,110.56,0
112,112.76,110.57,0
113,112.76,110.60,0
113,112.77,110.62,0
112,112.75,110.64,0
113,112.76,110.66,0
113,112.76,110.68,0
113,112.77,110.71,0
113,112.77,110.73,0
113,112.78,110.75,0
113,112.78,110.77,0
113,112.78,110.80,0
113,112.79,110.82,0
113,112.79,110.84,0
113,112.80,110.86,0
112,112.78,110.87,0
112,112.77,110.89,0
113,112.77,110.91,0
113,112.77,110.93,0
111,112.74,110.93,0
113,112.74,110.95,0
113,112.75,110.97,0
113,112.75,110.99,0
112,112.74,111.00,0
112,112.72,111.01,0
114,112.75,111.04,0
113,112.76,111.06,0
112,112.74,111.07,0
111,112.71,111.07,0
115,112.75,111.11,0
113,112.76,111.13,0
112,112.74,111.13,0
112,112.73,111.14,0
113,112.73,111.16,0
111,112.70,111.16,0
112,112.68,111.17,0
112,112.67,111.18,0
113,112.68,111.20,0
113,112.68,111.21,0
112,112.67,111.22,0
113,112.68,111.24,0
113,112.68,111.26,0
112,112.67,111.26,0
112,112.66,111.27,0
114,112.68,111.30,0
112,112.67,111.31,0
113,112.68,111.32,0
112,112.66,111.33,0
113,112.67,111.35,0
113,112.67,111.36,0
112,112.66,111.37,0
111,112.63,111.37,0
114,112.66,111.39,0
112,112.64,111.40,0
112,112.63,111.40,0
112,112.62,111.41,0
113,112.62,111.43,0
113,112.63,111.44,0
112,112.62,111.45,0
111,112.59,111.44,0
113,112.60,111.46,0
113,112.60,111.47,0
112,112.59,111.48,0
112,112.58,111.48,0
113,112.59,111.50,0
111,112.56,111.49,0
111,112.53,111.49,0
111,112.49,111.48,0
113,112.50,111.50,0
113,112.51,111.51,0
113,112.52,111.53,0
112,112.51,111.53,0
113,112.52,111.55,0
111,112.49,111.54,0
111,112.46,111.54,0
113,112.47,111.55,0
113,112.48,111.57,0
112,112.47,111.57,0
112,112.47,111.58,0
113,112.48,111.59,0
112,112.47,111.59,0
111,112.44,111.59,0
111,112.41,111.58,0
113,112.42,111.60,0
112,112.41,111.60,0
112,112.40,111.60,0
112,112.40,111.61,0
113,112.41,111.62,0
113,112.42,111.64,0
113,112.43,111.65,0
112,112.42,111.65,0
114,112.45,111.68,0
112,112.45,111.68,0
111,112.42,111.67,0
111,112.39,111.67,0
113,112.40,111.68,0
112,112.39,111.68,0
113,112.40,111.70,0
111,112.38,111.69,0
113,112.39,111.70,0
112,112.38,111.71,0
111,112.35,111.70,0
112,112.35,111.70,0
113,112.36,111.71,0
113,112.37,111.73,0
112,112.36,111.73,0
112,112.36,111.73,0
113,112.37,111.75,0
112,112.36,111.75,0
112,112.36,111.75,0
113,112.37,111.76,0
112,112.36,111.77,0
113,112.37,111.78,0
112,112.37,111.78,0
113,112.38,111.79,0
111,112.35,111.78,0
112,112.34,111.79,0
111,112.32,111.78,0
113,112.33,111.79,0
112,112.32,111.79,0
112,112.32,111.79,0
111,112.29,111.79,0
113,112.31,111.80,0
111,112.28,111.79,0
112,112.27,111.79,0
111,112.25,111.78,0
113,112.26,111.80,0
113,112.28,111.81,0
113,112.29,111.82,0
112,112.29,111.82,0
113,112.30,111.83,0
113,112.32,111.85,0
112,112.31,111.85,0
116,112.38,111.89,0
113,112.40,111.90,0
114,112.43,111.92,0
113,112.44,111.93,0
112,112.43,111.93,0
113,112.44,111.94,0
113,112.45,111.95,0
113,112.46,111.96,0
112,112.45,111.96,0
113,112.47,111.98,0
113,112.48,111.99,0
113,112.49,112.00,0
113,112.50,112.01,0
113,112.51,112.02,0
113,112.52,112.03,0
112,112.51,112.03,0
112,112.50,112.02,0
113,112.51,112.03,0
112,112.50,112.03,0
113,112.51,112.04,0
113,112.52,112.05,0
113,112.53,112.06,0
111,112.50,112.05,0
112,112.49,112.05,0
114,112.52,112.07,0
113,112.53,112.08,0
112,112.51,112.08,0
111,112.48,112.07,0
113,112.49,112.08,0
113,112.50,112.09,0
113,112.51,112.10,0
112,112.50,112.10,0
113,112.51,112.10,0
113,112.52,112.11,0
113,112.53,112.12,0
112,112.52,112.12,0
113,112.53,112.13,0
113,112.54,112.14,0
112,112.53,112.14,0
112,112.52,112.14,0
114,112.55,112.15,0
112,112.54,112.15,0
111,112.51,112.14,0
111,112.48,112.13,0
113,112.49,112.14,0
113,112.50,112.15,0
111,112.47,112.14,0
114,112.50,112.15,0
113,112.51,112.16,0
113,112.52,112.17,0
112,112.51,112.17,0
113,112.52,112.18,0
113,112.53,112.19,0
113,112.54,112.19,0
112,112.53,112.19,0
117,112.62,112.24,0
113,112.62,112.25,0
112,112.61,112.25,0
112,112.60,112.24,0
113,112.61,112.25,0
111,112.58,112.24,0
112,112.56,112.24,0
111,112.53,112.22,0
114,112.56,112.24,0
113,112.57,112.25,0
112,112.56,112.25,0
113,112.57,112.25,0
113,112.58,112.26,0
113,112.59,112.27,0
112,112.57,112.27,0
112,112.56,112.26,0
114,112.59,112.28,0
113,112.60,112.29,0
112,112.59,112.29,0
113,112.60,112.29,0
113,112.60,112.30,0
113,112.61,112.31,0
113,112.62,112.31,0
113,112.63,112.32,0
113,112.63,112.33,0
113,112.64,112.33,0
112,112.63,112.33,0
115,112.68,112.36,0
113,112.68,112.36,0
113,112.69,112.37,0
111,112.66,112.36,0
114,112.68,112.37,0
111,112.65,112.36,0
113,112.66,112.37,0
113,112.66,112.37,0
114,112.69,112.39,0
113,112.70,112.39,0
113,112.70,112.40,0
113,112.71,112.41,0
115,112.75,112.43,0
115,112.80,112.46,0
113,112.80,112.46,0
114,112.83,112.48,0
113,112.83,112.48,0
113,112.83,112.49,0
113,112.84,112.49,0
113,112.84,112.50,0
114,112.86,112.51,0
113,112.87,112.52,0
113,112.87,112.52,0
113,112.87,112.53,0
115,112.91,112.55,0
113,112.92,112.56,0
113,112.92,112.56,0
113,112.92,112.57,0
112,112.90,112.56,0
113,112.90,112.57,0
113,112.90,112.57,0
113,112.91,112.57,0
115,112.95,112.60,0
113,112.95,112.60,0
113,112.95,112.61,0
115,112.99,112.63,0
113,112.99,112.63,0
114,113.01,112.65,0
113,113.01,112.65,0
113,113.01,112.65,0
113,113.01,112.66,0
113,113.01,112.66,0
113,113.01,112.66,0
115,113.05,112.69,0
113,113.05,112.69,0
113,113.05,112.69,0
112,113.03,112.69,0
115,113.07,112.71,0
113,113.07,112.71,0
113,113.06,112.72,0
113,113.06,112.72,0
115,113.10,112.74,0
113,113.10,112.74,0
114,113.12,112.76,0
113,113.12,112.76,0
114,113.13,112.77,0
113,113.13,112.77,0
113,113.13,112.78,0
113,113.13,112.78,0
113,113.12,112.78,0
113,113.12,112.78,0
112,113.10,112.78,0
113,113.10,112.78,0
113,113.09,112.78,0
113,113.09,112.78,0
113,113.09,112.78,0
115,113.13,112.81,0
116,113.19,112.84,0
112,113.16,112.83,0
113,113.16,112.83,0
116,113.22,112.86,0
113,113.21,112.86,0
113,113.21,112.87,0
112,113.18,112.86,0
114,113.20,112.87,0
113,113.20,112.87,0
113,113.19,112.87,0
111,113.15,112.85,0
113,113.14,112.85,0
113,113.14,112.86,0
112,113.12,112.85,0
113,113.12,112.85,0
113,113.11,112.85,0
112,113.09,112.84,0
113,113.09,112.84,0
113,113.09,112.84,0
113,113.09,112.85,0
113,113.08,112.85,0
113,113.08,112.85,0
113,113.08,112.85,0
113,113.08,112.85,0
112,113.06,112.84,0
111,113.02,112.83,0
112,113.00,112.82,0
113,113.00,112.82,0
112,112.98,112.81,0
111,112.94,112.79,0
114,112.96,112.80,0
113,112.96,112.81,0
112,112.94,112.80,0
111,112.90,112.78,0
113,112.90,112.78,0
112,112.89,112.77,0
112,112.87,112.77,0
113,112.87,112.77,0
113,112.87,112.77,0
113,112.88,112.77,0
113,112.88,112.78,0
112,112.86,112.77,0
114,112.88,112.78,0
112,112.87,112.77,0
111,112.83,112.76,0
111,112.79,112.74,0
113,112.80,112.74,0
112,112.78,112.73,0
111,112.74,112.72,0
111,112.71,112.70,0
113,112.72,112.70,0
111,112.68,112.68,0
112,112.67,112.68,0
111,112.63,112.66,0
113,112.64,112.66,0
111,112.61,112.65,0
112,112.60,112.64,0
112,112.58,112.63,0
112,112.57,112.63,0
111,112.54,112.61,0
111,112.51,112.60,0
111,112.48,112.58,0
112,112.47,112.57,0
111,112.44,112.56,0
111,112.41,112.54,0
111,112.38,112.53,0
112,112.38,112.52,0
113,112.39,112.53,0
112,112.38,112.52,0
112,112.37,112.52,0
112,112.37,112.51,0
113,112.38,112.52,0
111,112.35,112.50,0
113,112.36,112.51,0
111,112.34,112.49,0
111,112.31,112.48,0
111,112.28,112.46,0
112,112.28,112.46,0
112,112.27,112.45,0
111,112.25,112.44,0
111,112.22,112.42,0
113,112.24,112.43,0
111,112.21,112.41,0
111,112.19,112.40,0
111,112.17,112.39,0
111,112.14,112.37,0
113,112.16,112.38,0
111,112.14,112.37,0
111,112.11,112.35,0
112,112.11,112.35,0
111,112.09,112.33,0
111,112.07,112.32,0
111,112.05,112.31,0
112,112.04,112.30,0
111,112.02,112.29,0
111,112.00,112.28,0
111,111.98,112.27,0
111,111.96,112.25,0
110,111.92,112.23,0
111,111.91,112.22,0
111,111.89,112.21,0
111,111.87,112.19,0
111,111.85,112.18,0
111,111.84,112.17,0
112,111.84,112.17,0
111,111.82,112.16,0
111,111.81,112.15,0
111,111.79,112.13,0
113,111.81,112.14,0
112,111.82,112.14,0
109,111.76,112.11,0
111,111.75,112.10,0
111,111.73,112.09,0
111,111.72,112.08,0
111,111.70,112.07,0
111,111.69,112.06,0
111,111.67,112.05,0
111,111.66,112.03,0
111,111.65,112.02,0
110,111.61,112.00,0
111,111.60,111.99,0
111,111.59,111.98,0
111,111.58,111.97,0
110,111.55,111.95,0
111,111.54,111.94,0
110,111.51,111.93,0
111,111.50,111.92,0
111,111.49,111.91,0
113,111.52,111.92,0
109,111.47,111.89,0
111,111.46,111.88,0
111,111.45,111.87,0
113,111.48,111.88,0
112,111.49,111.88,0
112,111.50,111.88,0
111,111.49,111.88,0
111,111.48,111.87,0
109,111.43,111.84,0
112,111.44,111.84,0
113,111.47,111.85,0
111,111.46,111.84,0
111,111.45,111.83,0
111,111.44,111.83,0
113,111.48,111.84,0
111,111.47,111.83,0
111,111.46,111.82,0
111,111.45,111.81,0
113,111.48,111.83,0
111,111.47,111.82,0
115,111.54,111.85,0
111,111.53,111.84,0
111,111.52,111.83,0
111,111.51,111.82,0
111,111.50,111.82,0
111,111.49,111.81,0
113,111.52,111.82,0
111,111.51,111.81,0
111,111.50,111.80,0
111,111.49,111.79,0
112,111.50,111.80,0
111,111.49,111.79,0
111,111.48,111.78,0
111,111.47,111.77,0
112,111.48,111.78,0
112,111.49,111.78,0
107,111.40,111.73,0
111,111.39,111.72,0
111,111.38,111.72,0
111,111.38,111.71,0
109,111.33,111.68,0
111,111.32,111.67,0
111,111.32,111.67,0
111,111.31,111.66,0
111,111.30,111.65,0
113,111.34,111.67,0
111,111.33,111.66,0
109,111.28,111.63,0
110,111.26,111.62,0
111,111.25,111.61,0
111,111.25,111.61,0
111,111.24,111.60,0
111,111.24,111.59,0
113,111.27,111.61,0
111,111.27,111.60,0
111,111.26,111.60,0
110,111.24,111.58,0
111,111.23,111.57,0
112,111.25,111.58,0
111,111.24,111.57,0
111,111.24,111.57,0
111,111.23,111.56,0
111,111.23,111.56,0
111,111.22,111.55,0
111,111.22,111.54,0
112,111.24,111.55,0
110,111.21,111.53,0
111,111.21,111.53,0
110,111.18,111.51,0
111,111.18,111.51,0
111,111.17,111.50,0
111,111.17,111.50,0
111,111.17,111.49,0
111,111.16,111.49,0
111,111.16,111.48,0
115,111.24,111.52,0
111,111.23,111.51,0
112,111.25,111.52,0
111,111.24,111.51,0
111,111.24,111.51,0
112,111.25,111.51,0
111,111.25,111.51,0
111,111.24,111.50,0
111,111.24,111.50,0
111,111.23,111.49,0
112,111.25,111.50,0
111,111.24,111.49,0
111,111.24,111.49,0
113,111.28,111.50,0
111,111.27,111.50,0
111,111.26,111.49,0
110,111.24,111.48,0
113,111.27,111.49,0
111,111.27,111.49,0
111,111.26,111.48,0
111,111.26,111.48,0
111,111.25,111.47,0
112,111.27,111.48,0
111,111.26,111.47,0
111,111.26,111.47,0
113,111.29,111.48,0
113,111.33,111.50,0
111,111.32,111.49,0
111,111.31,111.49,0
112,111.33,111.49,0
112,111.34,111.50,0
111,111.33,111.49,0
111,111.33,111.49,0
111,111.32,111.48,0
113,111.35,111.50,0
111,111.35,111.50,0
113,111.38,111.51,0
111,111.37,111.51,0
111,111.36,111.50,0
111,111.36,111.50,0
112,111.37,111.50,0
111,111.36,111.50,0
111,111.36,111.49,0
111,111.35,111.49,0
113,111.38,111.50,0
111,111.37,111.50,0
111,111.37,111.49,0
111,111.36,111.49,0
111,111.35,111.48,0
111,111.35,111.48,0
111,111.34,111.47,0
113,111.37,111.49,0
112,111.38,111.49,0
109,111.34,111.47,0
111,111.33,111.46,0
110,111.30,111.45,0
111,111.30,111.44,0
112,111.31,111.45,0
111,111.30,111.44,0
111,111.30,111.44,0
111,111.29,111.44,0
111,111.29,111.43,0
111,111.28,111.43,0
111,111.28,111.42,0
111,111.27,111.42,0
111,111.26,111.41,0
111,111.26,111.41,0
111,111.25,111.41,0
111,111.25,111.40,0
111,111.24,111.40,0
110,111.22,111.38,0
113,111.25,111.40,0
112,111.27,111.41,0
111,111.26,111.40,0
111,111.26,111.40,0
112,111.27,111.40,0
111,111.27,111.40,0
111,111.26,111.40,0
111,111.26,111.39,0
112,111.27,111.40,0
111,111.27,111.39,0
111,111.26,111.39,0
110,111.24,111.38,0
111,111.23,111.37,0
111,111.23,111.37,0
111,111.22,111.36,0
110,111.20,111.35,0
112,111.21,111.36,0
111,111.21,111.35,0
111,111.21,111.35,0
109,111.16,111.33,0
111,111.16,111.32,0
111,111.16,111.32,0
110,111.13,111.31,0
113,111.17,111.32,0
112,111.19,111.33,0
111,111.18,111.33,0
110,111.16,111.31,0
111,111.16,111.31,0
111,111.15,111.31,0
111,111.15,111.31,0
111,111.15,111.30,0
111,111.14,111.30,0
111,111.14,111.30,0
109,111.10,111.27,0
110,111.08,111.26,0
111,111.07,111.26,0
111,111.07,111.26,0
111,111.07,111.25,0
109,111.03,111.23,0
109,110.99,111.21,0
110,110.97,111.20,0
111,110.97,111.19,0
109,110.93,111.17,0
111,110.93,111.17,0
111,110.93,111.17,0
110,110.91,111.16,0
110,110.90,111.15,0
111,110.90,111.14,0
109,110.86,111.12,0
109,110.82,111.10,0
109,110.79,111.08,0
111,110.79,111.08,0
109,110.76,111.06,0
109,110.72,111.04,0
109,110.69,111.02,0
111,110.69,111.02,0
111,110.70,111.02,0
110,110.68,111.01,0
110,110.67,111.00,0
111,110.68,111.00,0
111,110.68,111.00,0
109,110.65,110.98,0
110,110.64,110.97,0
110,110.62,110.96,0
109,110.59,110.94,0
109,110.56,110.92,0
110,110.55,110.91,0
109,110.52,110.89,0
109,110.49,110.87,0
111,110.50,110.87,0
111,110.51,110.87,0
111,110.52,110.88,0
110,110.51,110.87,0
109,110.48,110.85,0
111,110.49,110.85,0
109,110.46,110.83,0
109,110.43,110.81,0
110,110.42,110.80,0
113,110.47,110.83,0
111,110.48,110.83,0
110,110.47,110.82,0
109,110.44,110.80,0
111,110.45,110.80,0
111,110.47,110.81,0
110,110.46,110.80,0
109,110.43,110.78,0
112,110.46,110.79,0
110,110.45,110.78,0
111,110.46,110.79,0
111,110.47,110.79,0
111,110.48,110.79,0
111,110.49,110.79,0
111,110.50,110.79,0
111,110.51,110.80,0
112,110.54,110.81,0
111,110.55,110.81,0
111,110.56,110.81,0
111,110.57,110.81,0
111,110.58,110.82,0
111,110.59,110.82,0
111,110.59,110.82,0
111,110.60,110.82,0
111,110.61,110.82,0
110,110.60,110.82,0
110,110.59,110.81,0
113,110.63,110.83,0
111,110.64,110.83,0
109,110.61,110.81,0
110,110.60,110.80,0
111,110.60,110.81,0
110,110.59,110.80,0
110,110.58,110.79,0
109,110.55,110.77,0
112,110.58,110.78,0
110,110.57,110.78,0
109,110.54,110.76,0
109,110.50,110.74,0
111,110.51,110.74,0
111,110.52,110.75,0
110,110.51,110.74,0
109,110.48,110.72,0
110,110.47,110.71,0
109,110.44,110.70,0
110,110.44,110.69,0
109,110.41,110.67,0
111,110.42,110.68,0
110,110.41,110.67,0
109,110.38,110.65,0
110,110.37,110.65,0
111,110.39,110.65,0
111,110.40,110.65,0
110,110.39,110.65,0
110,110.38,110.64,0
109,110.36,110.62,0
111,110.37,110.63,0
111,110.38,110.63,0
112,110.41,110.65,0
110,110.41,110.64,0
110,110.40,110.63,0
110,110.39,110.63,0
111,110.40,110.63,0
110,110.39,110.62,0
110,110.39,110.62,0
110,110.38,110.61,0
111,110.39,110.62,0
110,110.38,110.61,0
111,110.39,110.61,0
109,110.37,110.60,0
109,110.34,110.58,0
111,110.35,110.58,0
109,110.33,110.57,0
110,110.32,110.56,0
111,110.33,110.57,0
111,110.35,110.57,0
111,110.36,110.58,0
110,110.35,110.57,0
111,110.37,110.57,0
110,110.36,110.57,0
111,110.37,110.57,0
109,110.34,110.56,0
111,110.36,110.56,0
109,110.33,110.55,0
109,110.30,110.53,0
109,110.28,110.52,0
111,110.29,110.52,0
109,110.27,110.51,0
110,110.26,110.50,0
110,110.25,110.50,0
111,110.27,110.50,0
109,110.24,110.49,0
109,110.22,110.47,0
111,110.23,110.48,0
110,110.23,110.47,0
109,110.21,110.46,0
110,110.20,110.45,0
110,110.20,110.45,0
111,110.21,110.45,0
109,110.19,110.44,0
109,110.17,110.42,0
113,110.22,110.45,0
109,110.20,110.44,0
109,110.17,110.42,0
109,110.15,110.41,0
110,110.15,110.40,0
109,110.12,110.39,0
111,110.14,110.39,0
109,110.12,110.38,0
111,110.14,110.39,0
109,110.11,110.37,0
110,110.11,110.37,0
109,110.09,110.36,0
111,110.11,110.36,0
112,110.15,110.38,0
113,110.20,110.40,0
112,110.24,110.42,0
115,110.33,110.47,0
113,110.39,110.49,0
113,110.44,110.52,0
111,110.45,110.52,0
113,110.50,110.55,0
115,110.59,110.59,0
114,110.66,110.62,0
113,110.71,110.65,0
113,110.75,110.67,0
113,110.80,110.70,0
113,110.84,110.72,0
116,110.94,110.77,0
113,110.99,110.79,0
114,111.05,110.83,0
113,111.09,110.85,0
114,111.14,110.88,0
117,111.26,110.94,0
113,111.30,110.96,0
113,111.33,110.98,0
115,111.40,111.02,0
113,111.43,111.04,0
113,111.47,111.06,0
113,111.50,111.08,0
113,111.53,111.10,0
116,111.62,111.15,0
113,111.64,111.17,0
113,111.67,111.19,0
115,111.74,111.22,0
113,111.76,111.24,0
113,111.79,111.26,0
114,111.83,111.29,0
113,111.86,111.30,0
117,111.96,111.36,0
113,111.98,111.38,0
113,112.00,111.39,0
115,112.06,111.43,0
113,112.08,111.44,0
113,112.10,111.46,0
113,112.11,111.48,0
114,112.15,111.50,0
113,112.17,111.52,0
116,112.25,111.56,0
113,112.26,111.58,0
113,112.28,111.59,0
113,112.29,111.60,0
113,112.30,111.62,0
115,112.36,111.65,0
113,112.37,111.66,0
112,112.36,111.67,0
113,112.38,111.68,0
113,112.39,111.69,0
113,112.40,111.71,0
114,112.43,111.73,0
113,112.44,111.74,0
115,112.50,111.78,0
113,112.51,111.79,0
113,112.52,111.80,0
113,112.53,111.81,0
113,112.53,111.82,0
113,112.54,111.84,0
113,112.55,111.85,0
113,112.56,111.86,0
114,112.59,111.88,0
113,112.60,111.89,0
113,112.61,111.90,0
113,112.62,111.91,0
113,112.62,111.92,0
113,112.63,111.94,0
114,112.66,111.96,0
114,112.68,111.98,0
117,112.77,112.03,0
114,112.80,112.05,0
113,112.80,112.06,0
114,112.82,112.08,0
114,112.85,112.09,0
115,112.89,112.12,0
114,112.91,112.14,0
116,112.97,112.18,0
115,113.01,112.21,0
116,113.07,112.25,0
116,113.13,112.28,0
119,113.25,112.35,0
115,113.29,112.38,0
115,113.32,112.40,0
115,113.35,112.43,0
116,113.41,112.47,0
117,113.48,112.51,0
117,113.55,112.56,0
116,113.60,112.59,0
116,113.65,112.62,0
116,113.69,112.66,0
117,113.76,112.70,0
117,113.82,112.74,0
116,113.87,112.78,0
117,113.93,112.82,0
115,113.95,112.84,0
117,114.01,112.88,0
117,114.07,112.92,0
117,114.13,112.97,0
117,114.19,113.01,0
116,114.22,113.04,0
117,114.28,113.08,0
119,114.37,113.13,0
116,114.41,113.16,0
118,114.48,113.21,0
120,114.59,113.28,0
119,114.68,113.34,0
120,114.78,113.40,0
120,114.89,113.47,0
119,114.97,113.52,0
121,115.09,113.60,0
124,115.27,113.70,0
121,115.38,113.78,0
122,115.52,113.86,0
123,115.67,113.95,0
125,115.85,114.06,0
123,116.00,114.15,0
125,116.18,114.26,0
127,116.39,114.39,0
127,116.60,114.51,0
125,116.77,114.62,0
125,116.94,114.72,0
125,117.10,114.82,0
124,117.24,114.91,0
128,117.45,115.05,0
125,117.60,115.15,0
125,117.75,115.24,0
125,117.89,115.34,0
128,118.10,115.47,0
125,118.24,115.56,0
126,118.39,115.67,0
126,118.54,115.77,0
125,118.67,115.86,0
126,118.82,115.96,0
125,118.94,116.06,0
127,119.10,116.16,0
129,119.30,116.29,0
127,119.46,116.40,0
127,119.61,116.51,0
125,119.71,116.59,0
128,119.88,116.71,0
126,120.00,116.80,0
126,120.12,116.89,0
125,120.22,116.97,0
126,120.34,117.06,0
129,120.51,117.18,0
128,120.66,117.29,0
129,120.83,117.41,0
127,120.95,117.50,0
133,121.19,117.66,0
137,121.51,117.85,0
133,121.74,118.00,0
131,121.92,118.13,0
137,122.22,118.32,0
137,122.52,118.51,0
135,122.77,118.67,0
137,123.05,118.86,0
137,123.33,119.04,0
137,123.60,119.22,0
136,123.85,119.38,0
137,124.12,119.56,0
136,124.35,119.73,0
135,124.57,119.88,0
137,124.81,120.05,0
138,125.08,120.23,0
139,125.36,120.42,0
142,125.69,120.63,0
142,126.02,120.85,0
141,126.32,121.05,0
142,126.63,121.26,0
141,126.92,121.45,0
141,127.20,121.65,0
142,127.49,121.85,0
141,127.76,122.04,0
141,128.03,122.23,0
141,128.29,122.42,0
142,128.56,122.62,0
141,128.81,122.80,0
143,129.10,123.00,0
147,129.45,123.24,0
147,129.80,123.48,0
145,130.11,123.70,0
143,130.37,123.89,0
150,130.76,124.15,0
150,131.14,124.41,0
151,131.54,124.67,0
147,131.85,124.90,0
147,132.15,125.12,0
151,132.53,125.38,0
152,132.92,125.64,0
152,133.30,125.91,0
151,133.66,126.16,0
152,134.02,126.42,0
157,134.48,126.72,0
153,134.85,126.99,0
153,135.21,127.25,0
155,135.61,127.52,0
150,135.90,127.75,0
154,136.26,128.01,0
153,136.60,128.26,0
153,136.92,128.51,0
153,137.24,128.75,0
154,137.58,129.01,0
153,137.89,129.25,0
153,138.19,129.48,0
155,138.53,129.74,0
161,138.98,130.05,0
161,139.42,130.36,0
160,139.83,130.66,0
161,140.25,130.96,0
162,140.69,131.27,0
164,141.15,131.60,0
164,141.61,131.92,0
161,142.00,132.21,0
163,142.42,132.52,0
163,142.83,132.83,0
163,143.23,133.13,0
163,143.63,133.43,0
162,144.00,133.71,0
164,144.40,134.01,0
162,144.75,134.29,0
164,145.13,134.59,0
168,145.59,134.93,0
173,146.14,135.31,0
169,146.60,135.64,0
168,147.02,135.97,0
176,147.60,136.37,0
178,148.21,136.78,0
177,148.79,137.19,0
178,149.37,137.59,0
177,149.92,137.99,0
178,150.49,138.39,0
179,151.06,138.79,0
180,151.63,139.21,0
177,152.14,139.58,0
177,152.64,139.96,0
180,153.19,140.36,0
181,153.74,140.76,0
181,154.29,141.17,0
178,154.76,141.54,0
179,155.25,141.91,0
178,155.70,142.27,0
181,156.21,142.66,0
186,156.80,143.09,0
185,157.37,143.51,0
183,157.88,143.91,0
181,158.34,144.28,0
181,158.80,144.64,0
181,159.24,145.01,0
180,159.65,145.36,0
181,160.08,145.71,0
187,160.62,146.13,0
190,161.21,146.57,0
187,161.72,146.97,0
187,162.23,147.37,0
189,162.76,147.79,0
189,163.29,148.20,0
190,163.82,148.62,0
191,164.37,149.04,0
188,164.84,149.43,0
189,165.32,149.83,0
189,165.80,150.22,0
189,166.26,150.61,0
193,166.80,151.03,0
199,167.44,151.51,0
191,167.91,151.90,0
193,168.41,152.31,0
193,168.90,152.72,0
193,169.39,153.12,0
198,169.96,153.57,0
201,170.58,154.05,0
203,171.23,154.54,0
201,171.82,155.00,0
200,172.39,155.45,0
200,172.94,155.90,0
203,173.54,156.37,0
203,174.13,156.83,0
205,174.75,157.32,0
204,175.33,157.78,0
202,175.87,158.22,0
203,176.41,158.67,0
201,176.90,159.10,0
205,177.46,159.56,0
207,178.05,160.03,0
208,178.65,160.51,0
213,179.34,161.03,0
215,180.05,161.57,0
212,180.69,162.08,0
211,181.30,162.57,0
215,181.97,163.09,0
219,182.71,163.65,0
221,183.48,164.22,0
218,184.17,164.76,0
215,184.78,165.26,0
215,185.39,165.76,0
216,186.00,166.26,0
219,186.66,166.79,0
225,187.43,167.37,0
224,188.16,167.94,0
220,188.80,168.46,0
220,189.42,168.98,0
222,190.07,169.51,0
225,190.77,170.06,0
227,191.49,170.63,0
223,192.12,171.15,0
222,192.72,171.66,0
221,193.29,172.16,0
223,193.88,172.66,0
221,194.42,173.15,0
225,195.04,173.67,0
221,195.56,174.14,0
222,196.08,174.62,0
225,196.66,175.12,0
225,197.23,175.62,0
225,197.78,176.11,0
227,198.37,176.62,0
225,198.90,177.11,0
226,199.44,177.60,0
228,200.01,178.10,0
227,200.55,178.59,0
230,201.14,179.10,0
229,201.70,179.60,0
228,202.23,180.09,0
225,202.68,180.54,0
230,203.23,181.03,0
226,203.68,181.48,0
229,204.19,181.95,0
225,204.61,182.39,0
227,205.05,182.83,0
227,205.49,183.27,0
226,205.90,183.70,0
233,206.45,184.19,0
228,206.88,184.63,0
227,207.28,185.06,0
227,207.67,185.47,0
227,208.06,185.89,0
232,208.54,186.35,0
231,208.99,186.80,0
232,209.45,187.25,0
232,209.90,187.70,0
229,210.28,188.11,0
231,210.70,188.54,0
230,211.08,188.95,0
232,211.50,189.38,0
232,211.91,189.81,0
229,212.25,190.20,0
229,212.59,190.59,0
232,212.98,191.00,0
230,213.32,191.39,0
230,213.65,191.78,0
231,214.00,192.17,0
231,214.34,192.56,0
230,214.65,192.94,0
230,214.96,193.31,0
232,215.30,193.69,0
229,215.57,194.05,0
230,215.86,194.41,0
231,216.16,194.77,0
231,216.46,195.13,0
229,216.71,195.47,0
233,217.04,195.85,0
230,217.30,196.19,0
232,217.59,196.55,0
229,217.82,196.87,0
230,218.06,197.20,0
234,218.38,197.57,0
235,218.71,197.95,0
232,218.98,198.29,0
235,219.30,198.65,0
235,219.61,199.02,0
237,219.96,199.40,0
236,220.28,199.76,0
234,220.56,200.10,0
235,220.84,200.45,0
233,221.09,200.78,0
234,221.35,201.11,0
234,221.60,201.44,0
237,221.91,201.80,0
235,222.17,202.13,0
234,222.41,202.45,0
235,222.66,202.77,0
234,222.88,203.08,0
235,223.13,203.40,0
233,223.32,203.70,0
233,223.52,203.99,0
237,223.79,204.32,0
233,223.97,204.61,0
236,224.21,204.92,0
236,224.45,205.23,0
238,224.72,205.56,0
236,224.94,205.87,0
235,225.15,206.16,0
237,225.38,206.47,0
236,225.60,206.76,0
235,225.78,207.04,0
236,225.99,207.33,0
238,226.23,207.64,0
235,226.40,207.91,0
237,226.62,208.20,0
237,226.82,208.49,0
237,227.03,208.78,0
234,227.17,209.03,0
235,227.32,209.29,0
236,227.50,209.56,0
239,227.73,209.85,0
237,227.91,210.12,0
236,228.07,210.38,0
237,228.25,210.65,0
236,228.41,210.90,0
237,228.58,211.16,0
237,228.75,211.42,0
236,228.89,211.67,0
237,229.05,211.92,0
236,229.19,212.16,0
237,229.35,212.41,0
237,229.50,212.65,0
237,229.65,212.90,0
237,229.80,213.14,0
237,229.94,213.38,0
237,230.08,213.61,0
236,230.20,213.84,0
235,230.30,214.05,0
235,230.39,214.26,0
238,230.55,214.50,0
236,230.65,214.71,0
237,230.78,214.93,0
236,230.89,215.14,0
236,230.99,215.35,0
235,231.07,215.55,0
235,231.15,215.74,0
235,231.22,215.94,0
235,231.30,216.13,0
235,231.37,216.32,0
233,231.41,216.48,0
233,231.44,216.65,0
233,231.47,216.81,0
234,231.52,216.98,0
233,231.55,217.14,0
232,231.56,217.29,0
233,231.59,217.45,0
232,231.60,217.60,0
231,231.58,217.73,0
231,231.57,217.86,0
233,231.60,218.01,0
231,231.59,218.14,0
231,231.58,218.27,0
230,231.55,218.39,0
230,231.51,218.50,0
229,231.46,218.61,0
230,231.43,218.72,0
229,231.39,218.83,0
229,231.34,218.93,0
227,231.25,219.01,0
229,231.21,219.11,0
230,231.18,219.22,0
228,231.12,219.31,0
229,231.08,219.40,0
229,231.03,219.50,0
229,230.99,219.59,0
227,230.91,219.67,0
227,230.84,219.74,0
227,230.76,219.81,0
229,230.72,219.91,0
226,230.63,219.97,0
227,230.56,220.04,0
225,230.45,220.09,0
227,230.38,220.16,0
225,230.27,220.20,0
227,230.20,220.27,0
225,230.10,220.32,0
226,230.02,220.38,0
225,229.92,220.42,0
224,229.80,220.46,0
224,229.68,220.49,0
224,229.57,220.53,0
225,229.48,220.57,0
223,229.35,220.60,0
223,229.22,220.62,0
224,229.12,220.66,0
225,229.03,220.70,0
222,228.89,220.71,0
223,228.78,220.73,0
223,228.66,220.76,0
221,228.51,220.76,0
221,228.36,220.76,0
221,228.21,220.76,0
221,228.07,220.77,0
221,227.92,220.77,0
221,227.79,220.77,0
221,227.65,220.77,0
220,227.50,220.77,0
219,227.33,220.75,0
219,227.16,220.73,0
220,227.02,220.72,0
220,226.88,220.72,0
216,226.66,220.67,0
219,226.51,220.65,0
219,226.36,220.64,0
218,226.19,220.61,0
217,226.01,220.57,0
217,225.83,220.54,0
218,225.67,220.51,0
217,225.50,220.48,0
217,225.33,220.44,0
217,225.16,220.41,0
217,225.00,220.37,0
217,224.84,220.34,0
216,224.66,220.30,0
215,224.47,220.24,0
217,224.32,220.21,0
215,224.13,220.16,0
215,223.95,220.11,0
214,223.75,220.05,0
215,223.57,220.00,0
214,223.38,219.94,0
214,223.19,219.88,0
213,222.99,219.81,0
214,222.81,219.75,0
213,222.62,219.68,0
213,222.42,219.62,0
213,222.23,219.55,0
214,222.07,219.49,0
213,221.89,219.43,0
212,221.69,219.35,0
213,221.52,219.29,0
211,221.31,219.21,0
211,221.10,219.13,0
212,220.92,219.06,0
213,220.76,218.99,0
211,220.56,218.91,0
211,220.37,218.84,0
211,220.19,218.76,0
211,220.00,218.68,0
212,219.84,218.61,0
213,219.71,218.56,0
210,219.51,218.47,0
212,219.36,218.41,0
209,219.15,218.31,0
210,218.97,218.23,0
209,218.77,218.14,0
210,218.60,218.06,0
209,218.40,217.96,0
209,218.22,217.88,0
208,218.01,217.78,0
209,217.83,217.69,0
208,217.63,217.59,1
207,217.42,217.49,1
207,217.21,217.38,1
207,217.01,217.28,1
207,216.81,217.17,1
206,216.59,217.06,1
207,216.40,216.96,1
207,216.21,216.86,1
207,216.03,216.76,1
206,215.83,216.66,1
205,215.61,216.54,1
206,215.42,216.43,1
205,215.21,216.32,1
205,215.01,216.21,1
207,214.85,216.11,1
205,214.65,216.00,1
207,214.50,215.91,1
204,214.29,215.79,1
206,214.12,215.70,1
204,213.92,215.58,1
204,213.72,215.46,1
205,213.55,215.36,1
204,213.36,215.25,1
205,213.19,215.14,1
203,212.98,215.02,1
203,212.78,214.90,1
205,212.63,214.80,1
204,212.46,214.69,1
203,212.27,214.58,1
201,212.04,214.44,1
203,211.86,214.33,1
203,211.68,214.21,1
201,211.47,214.08,1
201,211.26,213.95,1
202,211.08,213.83,1
201,210.87,213.70,1
201,210.68,213.58,1
201,210.48,213.45,1
201,210.29,213.33,1
200,210.09,213.19,1
200,209.89,213.06,1
200,209.69,212.93,1
201,209.51,212.81,1
201,209.34,212.69,1
199,209.14,212.56,1
199,208.93,212.42,1
200,208.76,212.30,1
199,208.56,212.16,1
199,208.37,212.03,1
199,208.18,211.90,1
199,208.00,211.77,1
199,207.82,211.64,1
198,207.62,211.51,1
199,207.45,211.38,1
199,207.28,211.26,1
197,207.07,211.12,1
197,206.87,210.98,1
197,206.68,210.84,1
197,206.48,210.70,1
197,206.29,210.56,1
196,206.09,210.41,1
197,205.91,210.28,1
195,205.69,210.13,1
196,205.49,209.99,1
195,205.28,209.84,1
197,205.12,209.71,1
195,204.92,209.56,1
195,204.72,209.42,1
194,204.50,209.26,1
195,204.31,209.12,1
195,204.13,208.98,1
195,203.94,208.84,1
193,203.73,208.68,1
195,203.55,208.54,1
193,203.34,208.39,1
194,203.15,208.24,1
193,202.95,208.09,1
193,202.75,207.94,1
193,202.56,207.79,1
192,202.34,207.63,1
193,202.16,207.49,1
192,201.95,207.33,1
192,201.76,207.18,1
192,201.56,207.03,1
193,201.39,206.89,1
191,201.18,206.73,1
193,201.02,206.59,1
191,200.82,206.43,1
193,200.66,206.30,1
191,200.47,206.15,1
191,200.28,206.00,1
191,200.09,205.85,1
193,199.95,205.72,1
189,199.73,205.55,1
189,199.52,205.38,1
189,199.31,205.22,1
189,199.10,205.06,1
191,198.94,204.92,1
190,198.76,204.77,1
187,198.53,204.59,1
190,198.35,204.44,1
189,198.17,204.29,1
188,197.96,204.13,1
188,197.76,203.97,1
189,197.59,203.82,1
189,197.42,203.67,1
188,197.23,203.51,1
187,197.02,203.35,1
187,196.82,203.18,1
189,196.67,203.04,1
187,196.47,202.88,1
187,196.29,202.72,1
188,196.12,202.57,1
187,195.94,202.42,1
187,195.76,202.26,1
188,195.60,202.12,1
187,195.43,201.97,1
187,195.26,201.82,1
185,195.06,201.65,1
187,194.90,201.51,1
185,194.70,201.34,1
185,194.50,201.18,1
185,194.31,201.02,1
186,194.15,200.87,1
186,193.98,200.72,1
185,193.81,200.56,1
186,193.65,200.41,1
185,193.48,200.26,1
184,193.29,200.10,1
184,193.10,199.94,1
184,192.92,199.78,1
186,192.78,199.64,1
183,192.58,199.47,1
184,192.41,199.32,1
184,192.24,199.17,1
184,192.08,199.01,1
183,191.90,198.85,1
183,191.72,198.70,1
183,191.55,198.54,1
184,191.40,198.39,1
183,191.23,198.24,1
183,191.06,198.09,1
182,190.88,197.93,1
185,190.76,197.80,1
181,190.57,197.63,1
181,190.38,197.46,1
182,190.21,197.31,1
183,190.07,197.16,1
181,189.88,197.00,1
181,189.71,196.84,1
182,189.55,196.69,1
181,189.38,196.54,1
181,189.21,196.38,1
180,189.03,196.22,1
181,188.87,196.07,1
181,188.71,195.92,1
180,188.54,195.76,1
179,188.35,195.59,1
181,188.20,195.44,1
180,188.04,195.29,1
181,187.89,195.15,1
179,187.72,194.98,1
180,187.56,194.83,1
179,187.39,194.68,1
180,187.24,194.53,1
178,187.06,194.36,1
181,186.94,194.23,1
177,186.74,194.06,1
178,186.56,193.90,1
178,186.39,193.74,1
179,186.24,193.59,1
178,186.08,193.44,1
178,185.92,193.28,1
178,185.76,193.13,1
179,185.62,192.99,1
177,185.45,192.83,1
177,185.28,192.67,1
180,185.18,192.54,1
178,185.03,192.40,1
178,184.89,192.25,1
178,184.76,192.11,1
179,184.64,191.98,1
177,184.49,191.83,1
177,184.34,191.68,1
177,184.19,191.53,1
177,184.05,191.39,1
177,183.91,191.24,1
177,183.77,191.10,1
176,183.61,190.95,1
177,183.48,190.81,1
176,183.33,190.66,1
175,183.16,190.51,1
175,183.00,190.35,1
175,182.84,190.20,1
175,182.68,190.05,1
175,182.53,189.90,1
175,182.38,189.75,1
176,182.25,189.61,1
175,182.11,189.46,1
176,181.99,189.33,1
176,181.87,189.20,1
175,181.73,189.05,1
175,181.59,188.91,1
174,181.44,188.76,1
175,181.31,188.63,1
175,181.19,188.49,1
174,181.04,188.35,1
173,180.88,188.19,1
173,180.72,188.04,1
173,180.57,187.89,1
173,180.42,187.74,1
173,180.27,187.59,1
173,180.12,187.45,1
173,179.98,187.30,1
173,179.84,187.16,1
173,179.71,187.02,1
173,179.57,186.88,1
173,179.44,186.74,1
173,179.31,186.60,1
172,179.17,186.46,1
173,179.04,186.32,1
172,178.90,186.18,1
171,178.74,186.03,1
173,178.63,185.90,1
173,178.52,185.77,1
171,178.37,185.62,1
172,178.24,185.48,1
172,178.11,185.35,1
172,177.99,185.21,1
173,177.89,185.09,1
172,177.77,184.96,1
171,177.64,184.82,1
173,177.55,184.70,1
171,177.41,184.57,1
171,177.29,184.43,1
171,177.16,184.30,1
171,177.04,184.16,1
171,176.92,184.03,1
171,176.80,183.90,1
170,176.66,183.76,1
171,176.55,183.64,1
169,176.40,183.49,1
169,176.25,183.34,1
169,176.10,183.20,1
170,175.98,183.07,1
170,175.86,182.94,1
169,175.73,182.80,1
169,175.59,182.66,1
167,175.42,182.50,1
169,175.29,182.37,1
169,175.17,182.24,1
170,175.06,182.11,1
169,174.94,181.98,1
170,174.84,181.86,1
169,174.73,181.73,1
169,174.61,181.61,1
170,174.52,181.49,1
169,174.41,181.37,1
169,174.30,181.24,1
171,174.23,181.14,1
168,174.11,181.01,1
168,173.99,180.88,1
168,173.87,180.75,1
169,173.77,180.63,1
168,173.65,180.50,1
167,173.52,180.37,1
166,173.37,180.23,1
168,173.26,180.10,1
167,173.14,179.97,1
167,173.02,179.84,1
167,172.90,179.71,1
167,172.78,179.59,1
167,172.66,179.46,1
165,172.51,179.32,1
167,172.40,179.19,1
167,172.29,179.07,1
166,172.16,178.94,1
165,172.02,178.80,1
165,171.88,178.66,1
167,171.78,178.55,1
165,171.65,178.41,1
165,171.51,178.28,1
165,171.38,178.14,1
165,171.26,178.01,1
165,171.13,177.88,1
165,171.01,177.75,1
165,170.89,177.63,1
168,170.83,177.53,1
163,170.67,177.39,1
163,170.52,177.24,1
165,170.41,177.12,1
164,170.28,176.99,1
164,170.16,176.86,1
163,170.01,176.72,1
163,169.87,176.58,1
164,169.76,176.46,1
162,169.60,176.31,1
163,169.47,176.18,1
165,169.38,176.07,1
163,169.25,175.94,1
163,169.13,175.81,1
162,168.98,175.67,1
163,168.86,175.54,1
162,168.73,175.41,1
163,168.61,175.28,1
163,168.50,175.16,1
163,168.39,175.04,1
162,168.26,174.91,1
162,168.14,174.78,1
162,168.01,174.65,1
163,167.91,174.53,1
161,167.78,174.40,1
161,167.64,174.27,1
161,167.51,174.13,1
162,167.40,174.01,1
161,167.27,173.88,1
161,167.14,173.75,1
160,167.00,173.61,1
161,166.88,173.49,1
161,166.76,173.36,1
161,166.65,173.24,1
161,166.54,173.12,1
161,166.42,173.00,1
160,166.30,172.87,1
159,166.15,172.73,1
162,166.07,172.62,1
160,165.95,172.49,1
161,165.85,172.38,1
159,165.71,172.25,1
161,165.62,172.13,1
160,165.50,172.01,1
160,165.39,171.89,1
159,165.27,171.76,1
160,165.16,171.65,1
159,165.04,171.52,1
159,164.92,171.39,1
159,164.80,171.27,1
160,164.70,171.16,1
159,164.59,171.04,1
158,164.46,170.91,1
158,164.33,170.78,1
159,164.22,170.66,1
162,164.18,170.57,1
159,164.07,170.46,1
159,163.97,170.34,1
159,163.87,170.23,1
159,163.77,170.12,1
157,163.64,169.98,1
159,163.55,169.87,1
158,163.44,169.76,1
159,163.35,169.65,1
157,163.22,169.52,1
157,163.10,169.40,1
157,162.97,169.27,1
157,162.85,169.15,1
157,162.74,169.03,1
157,162.62,168.91,1
157,162.51,168.79,1
157,162.40,168.67,1
157,162.29,168.55,1
157,162.19,168.44,1
156,162.06,168.31,1
156,161.94,168.19,1
156,161.82,168.07,1
157,161.73,167.96,1
157,161.63,167.85,1
156,161.52,167.73,1
156,161.41,167.61,1
156,161.30,167.50,1
156,161.19,167.38,1
155,161.07,167.26,1
156,160.97,167.15,1
155,160.85,167.02,1
155,160.73,166.90,1
155,160.62,166.79,1
154,160.49,166.66,1
156,160.40,166.55,1
155,160.29,166.44,1
156,160.20,166.33,1
155,160.10,166.22,1
156,160.02,166.12,1
154,159.90,165.99,1
155,159.80,165.88,1
153,159.66,165.76,1
156,159.59,165.66,1
153,159.46,165.53,1
154,159.35,165.42,1
154,159.24,165.30,1
155,159.16,165.20,1
155,159.07,165.10,1
156,159.01,165.01,1
155,158.93,164.91,1
155,158.85,164.81,1
155,158.78,164.71,1
153,158.66,164.59,1
155,158.59,164.50,1
154,158.49,164.39,1
153,158.39,164.28,1
153,158.28,164.16,1
155,158.21,164.07,1
153,158.11,163.96,1
155,158.05,163.87,1
153,157.94,163.76,1
154,157.87,163.67,1
154,157.79,163.57,1
154,157.71,163.47,1
153,157.62,163.37,1
154,157.55,163.28,1
153,157.46,163.17,1
153,157.37,163.07,1
154,157.30,162.98,1
154,157.23,162.89,1
153,157.15,162.79,1
153,157.07,162.69,1
153,156.98,162.60,1
153,156.90,162.50,1
153,156.83,162.41,1
152,156.73,162.30,1
153,156.65,162.21,1
153,156.58,162.12,1
153,156.51,162.02,1
152,156.42,161.92,1
153,156.35,161.84,1
153,156.28,161.75,1
153,156.22,161.66,1
153,156.15,161.57,1
153,156.09,161.49,1
153,156.03,161.40,1
152,155.95,161.31,1
153,155.89,161.23,1
155,155.87,161.16,1
153,155.81,161.08,1
152,155.74,160.99,1
152,155.66,160.90,1
152,155.59,160.81,1
154,155.56,160.74,1
153,155.51,160.67,1
153,155.46,160.59,1
153,155.41,160.51,1
153,155.36,160.44,1
152,155.29,160.35,1
152,155.23,160.27,1
153,155.18,160.20,1
151,155.10,160.11,1
151,155.02,160.01,1
151,154.94,159.92,1
152,154.88,159.85,1
151,154.80,159.76,1
151,154.72,159.67,1
151,154.65,159.58,1
151,154.58,159.50,1
151,154.51,159.41,1
149,154.40,159.31,1
150,154.31,159.21,1
151,154.24,159.13,1
152,154.20,159.06,1
151,154.13,158.98,1
152,154.09,158.91,1
151,154.03,158.83,1
151,153.97,158.75,1
151,153.91,158.68,1
151,153.85,158.60,1
151,153.79,158.52,1
149,153.70,158.43,1
149,153.60,158.33,1
151,153.55,158.26,1
149,153.46,158.17,1
150,153.39,158.09,1
149,153.30,158.00,1
151,153.26,157.93,1
149,153.17,157.84,1
149,153.09,157.75,1
149,153.01,157.66,1
149,152.93,157.57,1
149,152.85,157.49,1
148,152.75,157.39,1
149,152.68,157.31,1
150,152.62,157.24,1
149,152.55,157.15,1
150,152.50,157.08,1
148,152.41,156.99,1
149,152.34,156.91,1
149,152.27,156.83,1
147,152.17,156.73,1
147,152.07,156.64,1
149,152.00,156.56,1
148,151.92,156.47,1
147,151.83,156.38,1
148,151.75,156.30,1
148,151.67,156.21,1
148,151.60,156.13,1
151,151.59,156.08,1
149,151.54,156.01,1
147,151.45,155.92,1
148,151.38,155.84,1
147,151.29,155.75,1
148,151.22,155.67,1
147,151.14,155.59,1
147,151.06,155.50,1
146,150.96,155.41,1
148,150.90,155.33,1
146,150.80,155.24,1
146,150.70,155.15,1
145,150.59,155.04,1
147,150.52,154.96,1
147,150.45,154.88,1
146,150.36,154.80,1
144,150.23,154.69,1
147,150.17,154.61,1
145,150.06,154.52,1
145,149.96,154.42,1
145,149.86,154.33,1
145,149.76,154.23,1
146,149.69,154.15,1
146,149.62,154.07,1
146,149.54,153.99,1
145,149.45,153.90,1
146,149.38,153.82,1
145,149.30,153.73,1
145,149.21,153.64,1
146,149.15,153.57,1
145,149.06,153.48,1
145,148.98,153.40,1
144,148.88,153.30,1
145,148.80,153.22,1
144,148.71,153.13,1
145,148.63,153.05,1
145,148.56,152.97,1
145,148.49,152.89,1
144,148.40,152.80,1
143,148.29,152.70,1
145,148.23,152.62,1
145,148.16,152.55,1
143,148.06,152.45,1
143,147.96,152.36,1
145,147.90,152.28,1
143,147.80,152.19,1
143,147.70,152.10,1
143,147.61,152.01,1
144,147.54,151.93,1
143,147.45,151.84,1
143,147.36,151.75,1
142,147.25,151.65,1
143,147.17,151.57,1
143,147.08,151.48,1
143,147.00,151.39,1
143,146.92,151.31,1
143,146.84,151.23,1
143,146.77,151.15,1
143,146.69,151.06,1
141,146.58,150.96,1
144,146.53,150.89,1
141,146.41,150.79,1
142,146.33,150.71,1
142,146.24,150.62,1
142,146.16,150.53,1
141,146.05,150.44,1
141,145.95,150.34,1
141,145.85,150.25,1
141,145.75,150.16,1
141,145.66,150.07,1
141,145.57,149.98,1
142,145.50,149.90,1
141,145.41,149.81,1
141,145.32,149.72,1
139,145.19,149.61,1
143,145.15,149.55,1
141,145.06,149.46,1
141,144.98,149.38,1
139,144.86,149.27,1
141,144.79,149.19,1
139,144.67,149.09,1
140,144.58,149.00,1
140,144.49,148.91,1
140,144.40,148.82,1
141,144.33,148.74,1
140,144.24,148.65,1
140,144.16,148.57,1
141,144.09,148.49,1
139,143.99,148.39,1
139,143.89,148.30,1
140,143.81,148.22,1
139,143.72,148.13,1
140,143.64,148.04,1
140,143.57,147.96,1
140,143.50,147.88,1
141,143.45,147.82,1
139,143.36,147.73,1
139,143.27,147.64,1
140,143.21,147.56,1
139,143.12,147.48,1
139,143.04,147.39,1
140,142.98,147.32,1
139,142.90,147.24,1
140,142.84,147.16,1
140,142.79,147.09,1
139,142.71,147.01,1
140,142.66,146.94,1
139,142.58,146.86,1
139,142.51,146.78,1
138,142.42,146.69,1
137,142.31,146.60,1
139,142.25,146.52,1
138,142.16,146.44,1
138,142.08,146.35,1
139,142.02,146.28,1
139,141.96,146.21,1
137,141.86,146.11,1
137,141.76,146.02,1
137,141.66,145.93,1
137,141.57,145.84,1
138,141.50,145.76,1
137,141.41,145.68,1
139,141.36,145.61,1
137,141.27,145.52,1
137,141.19,145.44,1
137,141.11,145.35,1
137,141.02,145.27,1
138,140.96,145.20,1
137,140.88,145.12,1
137,140.81,145.04,1
139,140.77,144.98,1
137,140.69,144.90,1
137,140.62,144.82,1
137,140.55,144.74,1
137,140.48,144.66,1
137,140.41,144.58,1
138,140.36,144.52,1
137,140.29,144.44,1
139,140.27,144.39,1
137,140.20,144.31,1
136,140.12,144.23,1
139,140.09,144.18,1
137,140.03,144.11,1
136,139.95,144.03,1
136,139.87,143.95,1
137,139.82,143.88,1
137,139.76,143.81,1
136,139.68,143.73,1
136,139.61,143.65,1
141,139.64,143.63,1
136,139.57,143.55,1
136,139.49,143.47,1
136,139.42,143.40,1
139,139.42,143.36,1
136,139.35,143.28,1
136,139.28,143.21,1
136,139.21,143.14,1
136,139.15,143.07,1
138,139.13,143.02,1
137,139.09,142.95,1
136,139.02,142.89,1
137,138.98,142.83,1
136,138.92,142.76,1
137,138.88,142.70,1
136,138.83,142.63,1
136,138.77,142.57,1
137,138.74,142.51,1
135,138.66,142.44,1
135,138.59,142.36,1
135,138.52,142.29,1
136,138.47,142.23,1
135,138.40,142.15,1
135,138.33,142.08,1
136,138.28,142.02,1
136,138.24,141.96,1
135,138.17,141.89,1
135,138.11,141.82,1
135,138.05,141.75,1
135,137.98,141.69,1
135,137.92,141.62,1
136,137.89,141.56,1
136,137.85,141.51,1
135,137.79,141.44,1
135,137.74,141.38,1
136,137.70,141.32,1
135,137.65,141.26,1
134,137.57,141.19,1
135,137.52,141.13,1
136,137.49,141.08,1
134,137.42,141.00,1
133,137.33,140.92,1
134,137.27,140.86,1
134,137.20,140.79,1
135,137.16,140.73,1
135,137.11,140.67,1
136,137.09,140.63,1
135,137.05,140.57,1
134,136.99,140.50,1
135,136.95,140.45,1
133,136.87,140.37,1
135,136.83,140.32,1
134,136.78,140.26,1
135,136.74,140.20,1
133,136.67,140.13,1
137,136.67,140.10,1
133,136.60,140.03,1
134,136.55,139.97,1
133,136.48,139.90,1
134,136.43,139.84,1
133,136.36,139.77,1
133,136.29,139.70,1
135,136.27,139.66,1
133,136.20,139.59,1
133,136.14,139.53,1
133,136.07,139.46,1
134,136.03,139.41,1
134,135.99,139.35,1
133,135.93,139.29,1
133,135.87,139.23,1
133,135.82,139.16,1
133,135.76,139.10,1
133,135.70,139.04,1
133,135.65,138.98,1
133,135.60,138.92,1
133,135.55,138.86,1
131,135.45,138.78,1
133,135.41,138.72,1
135,135.40,138.69,1
133,135.35,138.63,1
132,135.28,138.56,1
132,135.22,138.50,1
133,135.17,138.44,1
133,135.13,138.39,1
133,135.09,138.34,1
132,135.02,138.27,1
133,134.98,138.22,1
133,134.94,138.17,1
131,134.87,138.10,1
133,134.83,138.04,1
133,134.79,137.99,1
132,134.74,137.93,1
133,134.70,137.88,1
134,134.69,137.85,1
133,134.65,137.80,1
133,134.62,137.75,1
131,134.55,137.68,1
133,134.52,137.63,1
133,134.49,137.59,1
131,134.42,137.52,1
132,134.37,137.47,1
135,134.38,137.44,1
132,134.33,137.39,1
131,134.27,137.32,1
132,134.22,137.27,1
133,134.20,137.23,1
133,134.17,137.19,1
133,134.15,137.14,1
133,134.13,137.10,1
133,134.10,137.06,1
134,134.10,137.03,1
132,134.06,136.98,1
133,134.04,136.94,1
135,134.06,136.92,1
133,134.04,136.88,1
134,134.04,136.85,1
134,134.04,136.83,1
133,134.01,136.79,1
134,134.01,136.76,1
135,134.03,136.74,1
134,134.03,136.71,1
135,134.05,136.70,1
133,134.03,136.66,1
133,134.01,136.62,1
133,133.99,136.59,1
133,133.97,136.55,1
133,133.95,136.52,1
133,133.93,136.48,1
135,133.95,136.47,1
133,133.93,136.43,1
133,133.92,136.40,1
133,133.90,136.36,1
133,133.88,136.33,1
133,133.86,136.30,1
133,133.85,136.26,1
133,133.83,136.23,1
133,133.81,136.20,1
133,133.80,136.17,1
132,133.76,136.12,1
132,133.72,136.08,1
133,133.71,136.05,1
131,133.66,136.00,1
132,133.62,135.96,1
131,133.57,135.91,1
133,133.56,135.88,1
133,133.55,135.85,1
133,133.54,135.83,1
132,133.51,135.79,1
133,133.50,135.76,1
132,133.47,135.72,1
131,133.42,135.67,1
133,133.41,135.65,1
135,133.44,135.64,1
132,133.41,135.61,1
133,133.40,135.58,1
133,133.39,135.55,1
134,133.41,135.54,1
135,133.44,135.53,1
134,133.45,135.52,1
133,133.44,135.49,1
133,133.43,135.47,1
133,133.42,135.44,1
134,133.44,135.43,1
136,133.49,135.43,1
133,133.48,135.41,1
132,133.45,135.38,1
133,133.44,135.35,1
135,133.47,135.35,1
133,133.46,135.32,1
133,133.45,135.30,1
133,133.44,135.28,1
135,133.47,135.28,1
133,133.46,135.25,1
133,133.45,135.23,1
133,133.45,135.21,1
133,133.44,135.19,1
133,133.43,135.16,1
131,133.38,135.12,1
133,133.37,135.10,1
135,133.40,135.10,1
133,133.40,135.08,1
132,133.37,135.05,1
133,133.36,135.03,1
133,133.35,135.01,1
135,133.39,135.01,1
134,133.40,135.00,1
133,133.39,134.98,1
133,133.38,134.96,1
133,133.38,134.94,1
132,133.35,134.91,1
133,133.34,134.89,1
133,133.33,134.87,1
132,133.31,134.84,1
133,133.30,134.82,1
134,133.32,134.82,1
132,133.29,134.79,1
132,133.26,134.76,1
133,133.26,134.74,1
133,133.25,134.72,1
133,133.25,134.71,1
132,133.22,134.68,1
133,133.22,134.66,1
133,133.21,134.65,1
133,133.21,134.63,1
135,133.25,134.63,1
130,133.18,134.59,1
133,133.18,134.57,1
132,133.15,134.55,1
131,133.11,134.51,1
132,133.09,134.49,1
132,133.07,134.46,1
133,133.07,134.45,1
132,133.04,134.42,1
130,132.98,134.38,1
133,132.98,134.36,1
131,132.94,134.33,1
132,132.92,134.31,1
131,132.89,134.27,1
133,132.89,134.26,1
131,132.85,134.23,1
132,132.83,134.21,1
131,132.80,134.17,1
132,132.78,134.15,1
133,132.79,134.14,1
131,132.75,134.11,1
131,132.71,134.08,1
131,132.68,134.05,1
132,132.67,134.03,1
132,132.65,134.01,1
132,132.64,133.99,1
131,132.61,133.96,1
131,132.58,133.93,1
131,132.54,133.90,1
133,132.55,133.89,1
132,132.54,133.87,1
132,132.53,133.85,1
132,132.52,133.83,1
132,132.51,133.81,1
131,132.48,133.79,1
133,132.49,133.78,1
131,132.46,133.75,1
132,132.45,133.73,1
131,132.42,133.71,1
132,132.41,133.69,1
131,132.39,133.66,1
133,132.40,133.66,1
131,132.37,133.63,1
131,132.34,133.60,1
131,132.32,133.58,1
131,132.29,133.55,1
132,132.28,133.54,1
131,132.26,133.51,1
131,132.23,133.48,1
132,132.23,133.47,1
132,132.22,133.46,1
131,132.20,133.43,1
132,132.20,133.42,1
131,132.17,133.39,1
131,132.15,133.37,1
131,132.12,133.34,1
132,132.12,133.33,1
131,132.10,133.31,1
131,132.08,133.28,1
129,132.02,133.24,1
131,132.00,133.22,1
129,131.94,133.18,1
131,131.92,133.16,1
131,131.90,133.13,1
130,131.86,133.10,1
131,131.84,133.08,1
130,131.81,133.05,1
129,131.75,133.01,1
131,131.74,132.99,1
129,131.68,132.95,1
130,131.65,132.92,1
129,131.59,132.88,1
130,131.56,132.85,1
131,131.55,132.83,1
129,131.50,132.80,1
129,131.45,132.76,1
129,131.40,132.72,1
129,131.35,132.68,1
129,131.31,132.65,1
129,131.26,132.61,1
129,131.21,132.57,1
129,131.17,132.54,1
129,131.13,132.50,1
128,131.06,132.46,1
129,131.02,132.42,1
129,130.98,132.39,1
129,130.94,132.35,1
129,130.90,132.32,1
129,130.87,132.29,1
129,130.83,132.26,1
129,130.79,132.22,1
128,130.74,132.18,1
128,130.68,132.14,1
128,130.63,132.10,1
129,130.60,132.07,1
129,130.56,132.04,1
130,130.55,132.02,1
128,130.50,131.98,1
128,130.45,131.94,1
129,130.42,131.91,1
128,130.37,131.87,1
128,130.33,131.83,1
127,130.26,131.78,1
127,130.19,131.73,1
127,130.13,131.68,1
127,130.07,131.64,1
128,130.03,131.60,1
131,130.05,131.60,1
129,130.03,131.57,1
129,130.00,131.54,1
128,129.96,131.51,1
128,129.93,131.47,1
128,129.89,131.44,1
129,129.87,131.41,1
128,129.83,131.38,1
128,129.80,131.35,1
127,129.74,131.30,1
127,129.68,131.26,1
127,129.63,131.22,1
128,129.60,131.19,1
127,129.55,131.14,1
127,129.50,131.10,1
127,129.45,131.06,1
127,129.40,131.02,1
127,129.35,130.98,1
127,129.30,130.94,1
127,129.26,130.90,1
127,129.21,130.86,1
127,129.17,130.82,1
126,129.10,130.77,1
127,129.06,130.74,1
128,129.04,130.71,1
127,129.00,130.67,1
126,128.94,130.63,1
129,128.94,130.61,1
127,128.90,130.57,1
126,128.84,130.53,1
127,128.81,130.49,1
127,128.77,130.46,1
127,128.73,130.42,1
127,128.70,130.39,1
125,128.63,130.34,1
127,128.59,130.30,1
126,128.54,130.26,1
125,128.47,130.21,1
125,128.40,130.15,1
127,128.37,130.12,1
127,128.35,130.09,1
125,128.28,130.04,1
125,128.21,129.99,1
127,128.19,129.96,1
126,128.15,129.92,1
126,128.10,129.88,1
125,128.04,129.83,1
127,128.02,129.80,1
125,127.96,129.76,1
127,127.94,129.73,1
125,127.88,129.68,1
127,127.86,129.65,1
125,127.81,129.61,1
125,127.75,129.56,1
126,127.72,129.53,1
125,127.66,129.48,1
125,127.61,129.44,1
125,127.56,129.39,1
125,127.50,129.35,1
125,127.45,129.30,1
125,127.41,129.26,1
126,127.38,129.23,1
125,127.33,129.19,1
127,127.32,129.16,1
125,127.28,129.12,1
125,127.23,129.08,1
125,127.19,129.04,1
125,127.14,129.00,1
125,127.10,128.96,1
124,127.04,128.91,1
125,127.00,128.87,1
124,126.94,128.82,1
124,126.88,128.77,1
124,126.82,128.73,1
125,126.78,128.69,1
125,126.75,128.65,1
124,126.69,128.61,1
123,126.62,128.55,1
125,126.59,128.51,1
125,126.56,128.48,1
125,126.52,128.44,1
125,126.49,128.41,1
125,126.46,128.38,1
125,126.44,128.34,1
124,126.39,128.30,1
124,126.34,128.26,1
124,126.29,128.21,1
125,126.27,128.18,1
125,126.24,128.15,1
125,126.22,128.12,1
125,126.19,128.09,1
125,126.17,128.06,1
125,126.14,128.03,1
127,126.16,128.02,1
123,126.10,127.97,1
125,126.08,127.94,1
125,126.05,127.91,1
125,126.03,127.88,1
125,126.01,127.85,1
124,125.97,127.81,1
124,125.93,127.77,1
126,125.93,127.75,1
125,125.92,127.73,1
124,125.88,127.69,1
127,125.90,127.68,1
125,125.88,127.66,1
126,125.88,127.64,1
125,125.87,127.61,1
127,125.89,127.61,1
125,125.87,127.58,1
125,125.85,127.55,1
124,125.82,127.52,1
123,125.76,127.47,1
125,125.75,127.45,1
124,125.71,127.41,1
124,125.68,127.38,1
123,125.62,127.34,1
125,125.61,127.31,1
124,125.58,127.28,1
125,125.57,127.26,1
123,125.52,127.21,1
125,125.51,127.19,1
123,125.45,127.15,1
123,125.41,127.11,1
126,125.42,127.10,1
123,125.37,127.06,1
123,125.32,127.02,1
123,125.28,126.98,1
123,125.23,126.94,1
125,125.23,126.92,1
124,125.20,126.89,1
124,125.18,126.86,1
125,125.17,126.84,1
125,125.17,126.82,1
123,125.13,126.78,1
124,125.10,126.76,1
129,125.18,126.78,1
123,125.14,126.74,1
124,125.12,126.71,1
123,125.07,126.68,1
124,125.05,126.65,1
124,125.03,126.62,1
124,125.01,126.60,1
125,125.01,126.58,1
125,125.01,126.56,1
123,124.97,126.53,1
126,124.99,126.52,1
125,124.99,126.51,1
125,124.99,126.49,1
125,124.99,126.48,1
127,125.03,126.48,1
126,125.05,126.48,1
127,125.09,126.48,1
125,125.09,126.47,1
126,125.11,126.46,1
125,125.10,126.45,1
126,125.12,126.45,1
125,125.12,126.43,1
125,125.12,126.42,1
127,125.15,126.42,1
127,125.19,126.43,1
127,125.23,126.43,1
125,125.22,126.42,1
127,125.26,126.43,1
125,125.25,126.41,1
127,125.29,126.42,1
125,125.28,126.40,1
127,125.32,126.41,1
125,125.31,126.40,1
127,125.34,126.40,1
125,125.34,126.39,1
126,125.35,126.38,1
127,125.38,126.39,1
126,125.40,126.39,1
125,125.39,126.37,1
126,125.40,126.37,1
125,125.39,126.35,1
127,125.42,126.36,1
127,125.46,126.37,1
130,125.55,126.40,1
127,125.58,126.41,1
127,125.60,126.42,1
129,125.67,126.44,1
127,125.70,126.45,1
127,125.72,126.45,1
125,125.71,126.44,1
126,125.72,126.43,1
127,125.74,126.44,1
127,125.77,126.44,1
127,125.79,126.45,1
127,125.82,126.46,1
132,125.94,126.51,1
128,125.98,126.53,1
128,126.02,126.54,1
131,126.12,126.59,1
129,126.18,126.61,1
128,126.21,126.62,1
127,126.23,126.63,1
128,126.27,126.64,1
128,126.30,126.65,1
128,126.33,126.67,1
127,126.35,126.67,1
129,126.40,126.69,1
127,126.41,126.70,1
127,126.42,126.70,1
131,126.52,126.74,1
127,126.53,126.75,1
127,126.54,126.75,1
128,126.56,126.76,1
127,126.57,126.76,1
129,126.62,126.79,1
128,126.65,126.80,1
127,126.66,126.80,1
126,126.64,126.79,1
128,126.67,126.80,1
129,126.72,126.83,1
129,126.76,126.85,1
127,126.77,126.85,1
129,126.81,126.87,1
129,126.86,126.89,1
128,126.88,126.90,1
129,126.92,126.92,1
127,126.92,126.92,1
128,126.94,126.94,1
129,126.99,126.96,1
129,127.03,126.98,1
129,127.07,127.00,1
128,127.08,127.01,1
128,127.10,127.02,1
129,127.14,127.04,1
131,127.22,127.08,1
129,127.25,127.10,1
128,127.27,127.10,1
133,127.38,127.16,1
133,127.49,127.22,1
132,127.59,127.27,1
130,127.63,127.30,1
131,127.70,127.33,1
131,127.77,127.37,1
133,127.87,127.43,1
132,127.95,127.47,1
132,128.03,127.52,1
129,128.05,127.53,1
132,128.13,127.58,1
133,128.23,127.63,1
135,128.37,127.71,1
132,128.44,127.75,1
133,128.53,127.80,1
133,128.62,127.85,1
131,128.67,127.88,1
133,128.75,127.94,1
131,128.80,127.97,1
131,128.84,128.00,1
133,128.93,128.05,1
132,128.99,128.09,1
131,129.03,128.12,1
132,129.09,128.15,1
131,129.13,128.18,1
132,129.18,128.22,1
131,129.22,128.25,1
133,129.29,128.30,1
132,129.35,128.33,1
132,129.40,128.37,1
132,129.45,128.41,1
132,129.50,128.44,1
135,129.61,128.51,1
133,129.68,128.55,1
138,129.85,128.65,1
136,129.97,128.72,1
137,130.11,128.80,1
135,130.21,128.87,1
137,130.35,128.95,1
135,130.44,129.01,1
135,130.53,129.07,1
135,130.62,129.13,1
134,130.69,129.18,1
139,130.85,129.27,1
137,130.98,129.35,1
135,131.06,129.41,1
137,131.18,129.48,1
137,131.29,129.56,1
137,131.41,129.63,1
138,131.54,129.72,1
140,131.71,129.82,1
137,131.81,129.89,1
137,131.92,129.96,1
139,132.06,130.05,1
138,132.18,130.13,1
139,132.31,130.22,1
137,132.41,130.29,1
140,132.56,130.39,1
138,132.67,130.46,1
141,132.83,130.57,1
138,132.94,130.64,1
144,133.16,130.78,1
146,133.42,130.93,1
143,133.61,131.05,1
143,133.80,131.17,1
143,133.98,131.29,1
141,134.12,131.38,1
144,134.32,131.51,1
147,134.57,131.66,1
149,134.86,131.84,1
146,135.08,131.98,1
144,135.26,132.10,1
153,135.62,132.31,1
153,135.96,132.52,1
152,136.28,132.71,1
150,136.56,132.88,1
151,136.85,133.06,1
156,137.23,133.29,1
159,137.67,133.55,1
153,137.97,133.75,1
156,138.33,133.97,1
155,138.67,134.18,1
157,139.03,134.41,1
155,139.35,134.61,1
161,139.79,134.88,1
155,140.09,135.08,1
156,140.41,135.29,1
157,140.74,135.50,1
164,141.21,135.79,1
167,141.72,136.10,1
161,142.11,136.35,1
161,142.48,136.60,1
166,142.95,136.89,1
171,143.52,137.23,1
163,143.91,137.49,1
161,144.25,137.72,1
162,144.60,137.97,1
163,144.97,138.22,1
171,145.49,138.55,1
172,146.02,138.88,1
170,146.50,139.19,1
167,146.91,139.47,1
168,147.33,139.75,1
171,147.81,140.07,1
168,148.21,140.35,1
168,148.61,140.62,1
169,149.01,140.91,1
171,149.45,141.21,1
166,149.78,141.46,1
167,150.13,141.71,1
166,150.45,141.95,1
168,150.80,142.21,1
170,151.18,142.49,1
165,151.46,142.72,1
169,151.81,142.98,1
172,152.21,143.27,1
169,152.55,143.53,1
170,152.90,143.79,1
171,153.26,144.06,1
175,153.69,144.37,1
180,154.22,144.73,1
180,154.74,145.08,1
171,155.06,145.34,1
172,155.40,145.61,1
176,155.81,145.91,1
172,156.14,146.17,1
176,156.53,146.47,1
175,156.90,146.76,1
186,157.48,147.15,1
189,158.11,147.57,1
180,158.55,147.89,1
177,158.92,148.18,1
179,159.32,148.49,1
177,159.68,148.78,1
177,160.02,149.06,1
181,160.44,149.38,1
182,160.87,149.70,1
181,161.28,150.02,1
183,161.71,150.35,1
179,162.06,150.63,1
183,162.47,150.96,1
184,162.91,151.29,1
181,163.27,151.58,1
179,163.58,151.86,1
181,163.93,152.15,1
179,164.23,152.42,1
180,164.55,152.69,1
181,164.88,152.98,1
179,165.16,153.24,1
181,165.48,153.52,1
180,165.77,153.78,1
179,166.03,154.03,1
179,166.29,154.28,1
178,166.52,154.52,1
183,166.85,154.80,1
189,167.30,155.15,1
187,167.69,155.46,1
182,167.98,155.73,1
181,168.24,155.98,1
185,168.57,156.27,1
188,168.96,156.59,1
184,169.26,156.86,1
184,169.56,157.14,1
184,169.85,157.40,1
190,170.25,157.73,1
187,170.58,158.02,1
184,170.85,158.28,1
186,171.16,158.56,1
183,171.39,158.80,1
185,171.66,159.07,1
185,171.93,159.33,1
188,172.25,159.61,1
187,172.55,159.89,1
187,172.84,160.16,1
183,173.04,160.39,1
188,173.34,160.66,1
193,173.73,160.99,1
189,174.04,161.27,1
189,174.34,161.54,1
193,174.71,161.86,1
191,175.04,162.15,1
189,175.31,162.42,1
191,175.63,162.70,1
189,175.90,162.97,1
189,176.16,163.23,1
189,176.42,163.48,1
191,176.71,163.76,1
189,176.95,164.01,1
191,177.23,164.28,1
191,177.51,164.55,1
192,177.80,164.82,1
189,178.02,165.07,1
189,178.24,165.30,1
191,178.50,165.56,1
188,178.69,165.79,1
187,178.85,166.00,1
193,179.14,166.27,1
192,179.39,166.53,1
191,179.63,166.77,1
195,179.93,167.05,1
194,180.21,167.32,1
191,180.43,167.56,1
193,180.68,167.81,1
190,180.87,168.03,1
189,181.03,168.24,1
195,181.31,168.51,1
197,181.62,168.80,1
192,181.83,169.03,1
194,182.08,169.28,1
200,182.43,169.59,1
193,182.64,169.82,1
193,182.85,170.05,1
193,183.05,170.28,1
192,183.23,170.50,1
192,183.41,170.71,1
193,183.60,170.94,1
193,183.79,171.16,1
192,183.95,171.37,1
194,184.15,171.59,1
193,184.33,171.81,1
192,184.48,172.01,1
193,184.65,172.22,1
192,184.80,172.42,1
191,184.93,172.60,1
192,185.07,172.80,1
193,185.23,173.00,1
195,185.42,173.22,1
191,185.53,173.40,1
192,185.66,173.58,1
192,185.79,173.77,1
193,185.93,173.96,1
192,186.05,174.14,1
193,186.19,174.33,1
193,186.33,174.51,1
191,186.42,174.68,1
191,186.51,174.84,1
191,186.60,175.00,1
191,186.69,175.16,1
190,186.76,175.31,1
189,186.80,175.45,1
190,186.87,175.59,1
192,186.97,175.76,1
189,187.01,175.89,1
189,187.05,176.02,1
188,187.07,176.14,1
189,187.11,176.27,1
188,187.13,176.39,1
188,187.14,176.50,1
187,187.14,176.61,1
189,187.18,176.73,1
189,187.21,176.86,1
187,187.21,176.96,1
188,187.23,177.07,1
188,187.24,177.18,1
188,187.26,177.28,1
188,187.27,177.39,1
190,187.33,177.52,1
189,187.36,177.63,1
188,187.37,177.74,1
187,187.36,177.83,1
187,187.36,177.92,1
188,187.37,178.02,1
185,187.32,178.09,1
185,187.28,178.16,1
188,187.29,178.26,1
186,187.26,178.34,1
185,187.22,178.40,1
186,187.20,178.48,1
188,187.21,178.57,1
185,187.17,178.64,1
185,187.12,178.70,1
185,187.08,178.76,1
183,187.00,178.81,1
185,186.96,178.87,1
184,186.90,178.92,1
184,186.84,178.97,1
185,186.81,179.03,1
185,186.77,179.09,1
183,186.69,179.13,1
183,186.62,179.17,1
184,186.57,179.22,1
185,186.54,179.28,1
183,186.47,179.31,1
182,186.38,179.34,1
183,186.31,179.38,1
184,186.26,179.42,1
183,186.20,179.46,1
182,186.11,179.48,1
183,186.05,179.52,1
181,185.95,179.53,1
181,185.85,179.55,1
181,185.75,179.56,1
183,185.70,179.60,1
181,185.61,179.61,1
181,185.51,179.62,1
179,185.38,179.62,1
181,185.30,179.63,1
182,185.23,179.66,1
181,185.14,179.67,1
181,185.06,179.68,1
181,184.98,179.70,1
179,184.86,179.69,1
179,184.74,179.68,1
182,184.69,179.71,1
181,184.62,179.72,1
180,184.52,179.72,1
179,184.41,179.71,1
182,184.36,179.74,1
181,184.30,179.75,1
179,184.19,179.74,1
179,184.09,179.73,1
183,184.07,179.77,1
179,183.96,179.76,1
179,183.86,179.75,1
178,183.75,179.73,1
180,183.67,179.74,1
177,183.54,179.71,1
177,183.41,179.68,1
177,183.28,179.66,1
179,183.19,179.65,1
177,183.07,179.62,1
177,182.95,179.60,1
177,182.83,179.57,1
178,182.73,179.55,1
177,182.62,179.53,1
177,182.51,179.50,1
176,182.38,179.47,1
178,182.29,179.45,1
175,182.14,179.41,1
175,182.00,179.37,1
175,181.86,179.32,1
178,181.78,179.31,1
180,181.75,179.32,1
176,181.63,179.28,1
175,181.50,179.24,1
175,181.37,179.20,1
177,181.28,179.18,1
177,181.20,179.15,1
177,181.11,179.13,1
177,181.03,179.11,1
177,180.95,179.09,1
177,180.87,179.07,1
177,180.79,179.05,1
176,180.70,179.02,1
175,180.58,178.98,1
175,180.47,178.94,1
178,180.42,178.93,1
175,180.31,178.89,1
175,180.21,178.85,1
175,180.10,178.81,1
177,180.04,178.79,1
175,179.94,178.76,1
174,179.82,178.71,1
175,179.73,178.67,1
176,179.65,178.64,1
174,179.54,178.60,1
173,179.41,178.54,1
173,179.28,178.49,1
175,179.19,178.45,1
174,179.09,178.41,1
173,178.97,178.35,1
173,178.85,178.30,1
173,178.73,178.25,1
173,178.62,178.19,1
173,178.50,178.14,1
172,178.37,178.08,1
173,178.27,178.03,1
173,178.16,177.98,1
173,178.06,177.93,2
173,177.96,177.88,2
173,177.86,177.83,3
171,177.72,177.76,3
171,177.59,177.70,4
173,177.49,177.65,4
173,177.41,177.60,4
171,177.28,177.54,4
171,177.15,177.47,4
173,177.07,177.43,4
172,176.97,177.37,4
170,176.83,177.30,4
170,176.69,177.23,4
171,176.58,177.16,4
171,176.47,177.10,4
169,176.32,177.02,4
169,176.17,176.94,4
172,176.09,176.89,4
170,175.97,176.82,4
170,175.85,176.75,4
169,175.71,176.68,4
171,175.61,176.62,4
169,175.48,176.54,4
169,175.35,176.47,4
168,175.21,176.38,4
170,175.10,176.32,4
168,174.96,176.24,4
168,174.82,176.15,4
168,174.68,176.07,4
170,174.59,176.01,4
167,174.44,175.92,4
167,174.29,175.83,4
167,174.14,175.74,4
167,174.00,175.66,4
167,173.86,175.57,4
167,173.72,175.48,4
168,173.61,175.41,4
171,173.56,175.37,4
167,173.43,175.28,4
166,173.28,175.19,4
169,173.19,175.13,4
166,173.05,175.04,4
166,172.91,174.95,4
165,172.75,174.85,4
167,172.63,174.77,4
166,172.50,174.68,4
167,172.39,174.60,4
166,172.26,174.52,4
167,172.16,174.44,4
165,172.02,174.35,4
165,171.87,174.25,4
164,171.72,174.15,4
166,171.60,174.07,4
163,171.43,173.96,4
164,171.28,173.86,4
165,171.16,173.77,4
165,171.03,173.68,4
165,170.91,173.60,4
164,170.77,173.50,4
163,170.62,173.40,4
165,170.51,173.31,4
164,170.38,173.22,4
163,170.23,173.12,4
163,170.08,173.01,4
164,169.96,172.92,4
163,169.82,172.83,4
161,169.65,172.71,4
162,169.49,172.60,4
162,169.34,172.49,4
163,169.22,172.40,4
161,169.05,172.29,4
163,168.93,172.19,4
161,168.77,172.08,4
161,168.62,171.97,4
161,168.47,171.86,4
163,168.36,171.77,4
162,168.23,171.67,4
162,168.10,171.58,4
161,167.96,171.47,4
162,167.84,171.38,4
161,167.71,171.27,4
160,167.55,171.16,4
160,167.40,171.05,4
161,167.27,170.95,4
162,167.17,170.86,4
160,167.02,170.75,4
160,166.88,170.64,4
161,166.77,170.55,4
160,166.63,170.44,4
157,166.44,170.31,4
159,166.29,170.19,4
161,166.18,170.10,4
163,166.12,170.03,4
160,166.00,169.93,4
158,165.84,169.81,4
159,165.70,169.70,4
159,165.57,169.60,4
157,165.40,169.47,4
157,165.23,169.34,4
159,165.10,169.24,4
158,164.96,169.13,4
159,164.84,169.03,4
157,164.68,168.91,4
158,164.55,168.80,4
158,164.42,168.69,4
157,164.27,168.57,4
159,164.17,168.48,4
158,164.04,168.37,4
157,163.90,168.26,4
156,163.74,168.14,4
159,163.65,168.05,4
157,163.52,167.93,4
157,163.39,167.83,4
157,163.26,167.72,4
157,163.13,167.61,4
157,163.01,167.50,4
157,162.89,167.40,4
155,162.73,167.27,4
159,162.66,167.19,4
155,162.50,167.07,4
156,162.37,166.96,4
156,162.25,166.85,4
156,162.12,166.74,4
155,161.98,166.62,4
156,161.86,166.52,4
154,161.70,166.39,4
156,161.59,166.29,4
154,161.44,166.17,4
155,161.31,166.05,4
155,161.18,165.94,4
155,161.06,165.83,4
155,160.94,165.73,4
154,160.80,165.61,4
153,160.64,165.48,4
154,160.51,165.37,4
153,160.36,165.24,4
154,160.23,165.13,4
153,160.09,165.01,4
153,159.95,164.89,4
154,159.83,164.78,4
153,159.69,164.66,4
156,159.62,164.58,4
153,159.48,164.46,4
153,159.35,164.35,4
153,159.23,164.23,4
155,159.14,164.14,4
153,159.02,164.03,4
152,158.88,163.91,4
152,158.74,163.79,4
153,158.63,163.68,4
153,158.51,163.58,4
152,158.38,163.46,4
151,158.24,163.33,4
153,158.13,163.23,4
152,158.01,163.12,4
151,157.87,163.00,4
152,157.75,162.89,4
153,157.66,162.79,4
152,157.54,162.68,4
153,157.45,162.58,4
153,157.36,162.49,4
152,157.26,162.38,4
151,157.13,162.27,4
151,157.01,162.16,4
150,156.87,162.04,4
153,156.79,161.95,4
150,156.66,161.83,4
149,156.50,161.70,4
150,156.37,161.58,4
151,156.26,161.47,4
151,156.16,161.37,4
150,156.04,161.26,4
151,155.94,161.15,4
151,155.84,161.05,4
149,155.70,160.93,4
149,155.57,160.81,4
151,155.47,160.71,4
151,155.39,160.62,4
150,155.28,160.51,4
150,155.17,160.41,4
151,155.09,160.31,4
149,154.97,160.20,4
149,154.85,160.09,4
149,154.73,159.98,4
151,154.66,159.89,4
149,154.54,159.78,4
150,154.45,159.68,4
150,154.36,159.58,4
151,154.30,159.50,4
149,154.19,159.39,4
149,154.09,159.29,4
149,153.98,159.18,4
151,153.92,159.10,4
149,153.83,159.00,4
148,153.71,158.89,4
147,153.58,158.77,4
151,153.52,158.70,4
149,153.43,158.60,4
149,153.34,158.50,4
149,153.26,158.41,4
150,153.19,158.32,4
148,153.09,158.22,4
147,152.97,158.11,4
147,152.85,158.00,4
148,152.75,157.90,4
148,152.66,157.80,4
147,152.54,157.69,4
149,152.47,157.60,4
146,152.34,157.49,4
147,152.24,157.38,4
147,152.13,157.28,4
148,152.05,157.19,4
147,151.95,157.08,4
148,151.87,156.99,4
146,151.75,156.88,4
148,151.68,156.79,4
147,151.58,156.70,4
145,151.45,156.58,4
146,151.34,156.47,4
148,151.27,156.39,4
145,151.15,156.27,4
145,151.03,156.16,4
147,150.95,156.07,4
146,150.85,155.97,4
147,150.77,155.88,4
145,150.65,155.77,4
145,150.54,155.66,4
147,150.47,155.58,4
145,150.36,155.47,4
145,150.25,155.37,4
145,150.15,155.26,4
145,150.05,155.16,4
145,149.95,155.06,4
145,149.85,154.96,4
145,149.75,154.86,4
145,149.65,154.76,4
145,149.56,154.66,4
144,149.45,154.56,4
144,149.34,154.45,4
144,149.23,154.35,4
144,149.13,154.24,4
147,149.09,154.17,4
145,149.01,154.08,4
145,148.93,153.99,4
144,148.83,153.89,4
144,148.73,153.79,4
145,148.66,153.70,4
144,148.56,153.60,4
143,148.45,153.50,4
143,148.34,153.39,4
145,148.28,153.31,4
144,148.19,153.22,4
143,148.09,153.11,4
143,147.98,153.01,4
144,147.90,152.92,4
144,147.83,152.83,4
143,147.73,152.73,4
141,147.60,152.62,4
145,147.54,152.54,4
143,147.45,152.45,4
143,147.36,152.35,4
142,147.26,152.25,4
145,147.21,152.18,4
142,147.11,152.07,4
142,147.00,151.97,4
141,146.88,151.86,4
142,146.79,151.76,4
143,146.71,151.68,4
142,146.62,151.58,4
141,146.50,151.47,4
143,146.43,151.39,4
141,146.33,151.29,4
141,146.22,151.18,4
141,146.12,151.08,4
141,146.01,150.98,4
142,145.93,150.89,4
141,145.83,150.79,4
143,145.78,150.71,4
141,145.68,150.62,4
141,145.59,150.52,4
141,145.50,150.42,4
141,145.41,150.33,4
141,145.32,150.24,4
141,145.23,150.15,4
140,145.13,150.04,4
143,145.08,149.97,4
141,145.00,149.88,4
141,144.92,149.79,4
140,144.82,149.70,4
141,144.75,149.61,4
140,144.65,149.51,4
139,144.54,149.41,4
139,144.43,149.30,4
141,144.36,149.22,4
140,144.27,149.13,4
139,144.17,149.03,4
140,144.08,148.94,4
139,143.98,148.84,4
140,143.90,148.75,4
139,143.81,148.65,4
139,143.71,148.56,4
141,143.65,148.48,4
140,143.58,148.40,4
140,143.51,148.31,4
140,143.44,148.23,4
140,143.37,148.15,4
138,143.26,148.04,4
139,143.18,147.95,4
140,143.11,147.87,4
140,143.05,147.80,4
139,142.97,147.71,4
139,142.89,147.62,4
140,142.83,147.54,4
138,142.74,147.45,4
138,142.64,147.35,4
138,142.55,147.26,4
139,142.48,147.18,4
138,142.39,147.09,4
139,142.32,147.01,4
138,142.24,146.92,4
139,142.17,146.84,4
138,142.09,146.75,4
137,141.99,146.65,4
137,141.89,146.55,4
140,141.85,146.49,4
139,141.79,146.41,4
137,141.70,146.32,4
137,141.60,146.23,4
137,141.51,146.13,4
137,141.42,146.04,4
137,141.33,145.95,4
137,141.24,145.86,4
140,141.22,145.80,4
137,141.13,145.72,4
137,141.05,145.63,4
139,141.01,145.56,4
140,140.99,145.51,4
137,140.91,145.42,4
137,140.83,145.34,4
139,140.80,145.27,4
140,140.78,145.22,4
139,140.74,145.16,4
139,140.71,145.10,4
137,140.64,145.02,4
138,140.58,144.95,4
137,140.51,144.87,4
137,140.44,144.79,4
140,140.43,144.74,4
137,140.36,144.66,4
137,140.30,144.59,4
138,140.25,144.52,4
140,140.25,144.48,4
138,140.20,144.41,4
139,140.18,144.36,4
139,140.15,144.30,4
138,140.11,144.24,4
139,140.09,144.19,4
139,140.07,144.14,4
137,140.00,144.06,4
140,140.00,144.02,4
137,139.94,143.95,4
137,139.89,143.88,4
137,139.83,143.82,4
138,139.79,143.76,4
137,139.74,143.69,4
137,139.68,143.62,4
138,139.65,143.57,4
141,139.67,143.54,4
137,139.62,143.48,4
137,139.57,143.41,4
137,139.52,143.35,4
137,139.47,143.28,4
141,139.50,143.26,4
139,139.49,143.22,4
139,139.48,143.18,4
139,139.47,143.13,4
137,139.42,143.07,4
137,139.37,143.01,4
139,139.36,142.97,4
137,139.32,142.91,4
138,139.29,142.86,4
137,139.24,142.80,4
139,139.24,142.77,4
137,139.19,142.71,4
137,139.15,142.65,4
136,139.09,142.58,4
138,139.07,142.54,4
136,139.00,142.47,4
137,138.96,142.42,4
137,138.92,142.36,4
140,138.95,142.34,4
137,138.91,142.29,4
137,138.87,142.23,4
139,138.87,142.20,4
137,138.83,142.15,4
139,138.84,142.12,4
138,138.82,142.08,4
137,138.78,142.03,4
139,138.79,142.00,4
137,138.75,141.95,4
137,138.72,141.90,4
137,138.68,141.85,4
140,138.71,141.83,4
136,138.66,141.77,4
137,138.62,141.72,4
136,138.57,141.67,4
135,138.50,141.60,4
137,138.47,141.55,4
137,138.44,141.51,4
137,138.41,141.46,4
137,138.38,141.42,4
138,138.37,141.38,4
137,138.35,141.34,4
138,138.34,141.31,4
137,138.31,141.26,4
135,138.25,141.20,4
135,138.18,141.14,4
137,138.16,141.10,4
135,138.10,141.04,4
136,138.05,140.99,4
135,137.99,140.93,4
137,137.97,140.89,4
136,137.93,140.84,4
136,137.89,140.79,4
136,137.86,140.74,4
137,137.84,140.70,4
135,137.78,140.65,4
135,137.73,140.59,4
135,137.67,140.54,4
137,137.66,140.50,4
135,137.61,140.45,4
135,137.55,140.39,4
133,137.46,140.32,4
135,137.41,140.26,4
133,137.33,140.19,4
135,137.28,140.14,4
135,137.23,140.09,4
135,137.19,140.04,4
135,137.14,139.99,4
134,137.08,139.93,4
135,137.04,139.88,4
135,137.00,139.83,4
135,136.96,139.78,4
135,136.92,139.73,4
133,136.84,139.67,4
137,136.85,139.64,4
134,136.79,139.58,4
133,136.71,139.52,4
135,136.68,139.47,4
133,136.60,139.41,4
133,136.53,139.34,4
133,136.46,139.28,4
136,136.45,139.25,4
133,136.38,139.18,4
134,136.34,139.13,4
133,136.27,139.07,4
133,136.20,139.01,4
133,136.14,138.95,4
133,136.08,138.89,4
133,136.02,138.83,4
135,136.00,138.79,4
132,135.92,138.73,4
133,135.86,138.67,4
132,135.78,138.60,4
133,135.72,138.55,4
133,135.67,138.49,4
133,135.62,138.43,4
133,135.56,138.38,4
133,135.51,138.33,4
132,135.44,138.26,4
131,135.35,138.19,4
133,135.31,138.14,4
135,135.30,138.11,4
131,135.21,138.04,4
132,135.15,137.98,4
131,135.07,137.91,4
133,135.03,137.86,4
133,134.99,137.81,4
132,134.93,137.75,4
131,134.85,137.68,4
133,134.81,137.64,4
131,134.73,137.57,4
132,134.68,137.51,4
133,134.65,137.47,4
131,134.57,137.40,4
131,134.50,137.34,4
131,134.43,137.28,4
132,134.38,137.22,4
131,134.31,137.16,4
129,134.21,137.08,4
130,134.12,137.01,4
132,134.08,136.96,4
131,134.02,136.90,4
132,133.98,136.85,4
130,133.90,136.78,4
131,133.84,136.72,4
131,133.79,136.67,4
130,133.71,136.60,4
129,133.62,136.52,4
133,133.60,136.49,4
127,133.47,136.39,4
129,133.38,136.32,4
129,133.29,136.25,4
132,133.27,136.20,4
129,133.18,136.13,4
129,133.10,136.06,4
129,133.02,135.99,4
131,132.98,135.94,4
129,132.90,135.87,4
130,132.84,135.81,4
129,132.76,135.74,4
130,132.71,135.69,4
129,132.63,135.62,4
129,132.56,135.55,4
129,132.49,135.49,4
129,132.42,135.42,4
129,132.35,135.36,4
128,132.26,135.29,4
132,132.26,135.25,4
128,132.17,135.18,4
129,132.11,135.12,4
130,132.07,135.07,4
131,132.05,135.03,4
130,132.01,134.98,4
129,131.95,134.92,4
129,131.89,134.86,4
130,131.85,134.81,4
129,131.79,134.75,4
129,131.74,134.69,4
129,131.68,134.64,4
129,131.63,134.58,4
130,131.60,134.53,4
129,131.54,134.48,4
128,131.47,134.41,4
131,131.46,134.38,4
128,131.39,134.32,4
128,131.33,134.25,4
128,131.26,134.19,4
131,131.25,134.16,4
131,131.25,134.13,4
129,131.20,134.08,4
129,131.16,134.03,4
129,131.12,133.97,4
129,131.07,133.93,4
129,131.03,133.88,4
128,130.97,133.82,4
129,130.93,133.77,4
128,130.87,133.71,4
127,130.80,133.64,4
129,130.76,133.60,4
127,130.69,133.53,4
127,130.61,133.47,4
127,130.54,133.40,4
129,130.51,133.36,4
127,130.44,133.29,4
127,130.37,133.23,4
127,130.30,133.17,4
128,130.26,133.12,4
127,130.19,133.06,4
127,130.13,133.00,4
128,130.09,132.95,4
128,130.04,132.90,4
127,129.98,132.84,4
127,129.92,132.78,4
127,129.86,132.72,4
129,129.85,132.68,4
127,129.79,132.63,4
125,129.69,132.55,4
125,129.60,132.48,4
127,129.55,132.42,4
127,129.50,132.37,4
127,129.45,132.31,4
127,129.40,132.26,4
127,129.35,132.21,4
126,129.28,132.14,4
127,129.24,132.09,4
125,129.15,132.02,4
127,129.11,131.97,4
127,129.07,131.92,4
126,129.01,131.86,4
125,128.93,131.79,4
126,128.87,131.74,4
125,128.79,131.67,4
125,128.71,131.60,4
127,128.68,131.56,4
125,128.61,131.49,4
125,128.53,131.43,4
125,128.46,131.36,4
127,128.43,131.32,4
126,128.39,131.26,4
127,128.36,131.22,4
125,128.29,131.16,4
127,128.27,131.12,4
125,128.20,131.06,4
126,128.16,131.01,4
125,128.09,130.95,4
127,128.07,130.91,4
126,128.03,130.86,4
126,127.99,130.81,4
125,127.93,130.75,4
125,127.87,130.69,4
125,127.81,130.64,4
125,127.76,130.58,4
125,127.70,130.52,4
127,127.69,130.49,4
125,127.63,130.43,4
125,127.58,130.38,4
125,127.53,130.33,4
125,127.48,130.27,4
123,127.39,130.20,4
121,127.26,130.11,4
124,127.20,130.05,4
126,127.17,130.01,4
125,127.13,129.96,4
123,127.05,129.89,4
123,126.97,129.82,4
125,126.93,129.77,4
126,126.91,129.73,4
125,126.87,129.69,4
125,126.83,129.64,4
125,126.80,129.59,4
125,126.76,129.55,4
124,126.70,129.49,4
125,126.67,129.45,4
125,126.64,129.40,4
123,126.56,129.34,4
124,126.51,129.28,4
127,126.52,129.26,4
124,126.47,129.21,4
123,126.40,129.15,4
123,126.33,129.08,4
125,126.31,129.04,4
125,126.28,129.00,4
124,126.24,128.95,4
123,126.17,128.89,4
123,126.11,128.84,4
123,126.05,128.78,4
123,125.99,128.72,4
124,125.95,128.67,4
125,125.93,128.64,4
122,125.85,128.57,4
121,125.75,128.49,4
123,125.70,128.44,4
125,125.68,128.40,4
123,125.63,128.35,4
123,125.58,128.30,4
122,125.50,128.23,4
124,125.47,128.19,4
122,125.40,128.13,4
123,125.36,128.08,4
121,125.27,128.01,4
123,125.22,127.96,4
123,125.18,127.91,4
122,125.12,127.85,4
123,125.07,127.80,4
123,125.03,127.75,4
123,124.99,127.70,4
121,124.91,127.64,4
125,124.91,127.61,4
122,124.86,127.55,4
121,124.78,127.49,4
121,124.70,127.42,4
124,124.69,127.39,4
121,124.61,127.33,4
121,124.54,127.26,4
121,124.47,127.20,4
124,124.46,127.17,4
122,124.41,127.12,4
121,124.34,127.06,4
121,124.28,126.99,4
123,124.25,126.95,4
123,124.23,126.92,4
123,124.20,126.88,4
121,124.14,126.82,4
121,124.08,126.76,4
122,124.03,126.71,4
123,124.01,126.67,4
122,123.97,126.63,4
123,123.95,126.59,4
121,123.89,126.54,4
121,123.84,126.48,4
121,123.78,126.43,4
122,123.74,126.38,4
121,123.69,126.33,4
121,123.64,126.27,4
121,123.58,126.22,4
122,123.55,126.18,4
121,123.50,126.13,4
121,123.45,126.08,4
123,123.44,126.05,4
120,123.37,125.98,4
121,123.33,125.94,4
120,123.26,125.88,4
124,123.27,125.86,4
119,123.19,125.79,4
119,123.10,125.72,4
120,123.04,125.66,4
121,123.00,125.62,4
122,122.98,125.58,4
121,122.94,125.53,4
121,122.90,125.49,4
121,122.86,125.44,4
120,122.81,125.39,4
119,122.73,125.33,4
117,122.62,125.24,4
122,122.60,125.21,4
119,122.53,125.15,4
119,122.46,125.09,4
119,122.39,125.03,4
120,122.34,124.98,4
119,122.28,124.92,4
119,122.21,124.86,4
119,122.15,124.80,4
120,122.10,124.75,4
119,122.04,124.69,4
119,121.98,124.64,4
119,121.92,124.58,4
121,121.90,124.54,4
120,121.87,124.50,4
120,121.83,124.45,4
119,121.77,124.40,4
119,121.72,124.34,4
119,121.66,124.29,4
119,121.61,124.24,4
122,121.62,124.22,4
119,121.56,124.16,4
120,121.53,124.12,4
120,121.50,124.08,4
120,121.47,124.04,4
119,121.42,123.99,4
119,121.37,123.94,4
119,121.33,123.89,4
121,121.32,123.86,4
119,121.27,123.81,4
119,121.23,123.76,4
119,121.18,123.72,4
120,121.16,123.68,4
118,121.10,123.62,4
119,121.06,123.58,4
119,121.01,123.53,4
121,121.01,123.51,4
119,120.97,123.46,4
119,120.93,123.42,4
121,120.94,123.39,4
119,120.90,123.35,4
121,120.90,123.32,4
120,120.88,123.29,4
121,120.88,123.27,4
121,120.89,123.25,4
119,120.85,123.20,4
119,120.81,123.16,4
119,120.77,123.12,4
119,120.74,123.08,4
120,120.72,123.05,4
120,120.71,123.02,4
121,120.72,123.00,4
120,120.70,122.97,4
120,120.69,122.94,4
121,120.69,122.92,4
119,120.66,122.88,4
122,120.69,122.87,4
120,120.67,122.84,4
119,120.64,122.80,4
121,120.65,122.79,4
120,120.63,122.76,4
119,120.60,122.72,4
119,120.57,122.68,4
122,120.60,122.68,4
119,120.57,122.64,4
119,120.53,122.60,4
120,120.52,122.58,4
121,120.53,122.56,4
120,120.52,122.54,4
119,120.49,122.50,4
119,120.46,122.46,4
119,120.43,122.43,4
121,120.44,122.42,4
119,120.42,122.38,4
119,120.39,122.35,4
120,120.38,122.32,4
121,120.39,122.31,4
119,120.36,122.28,4
119,120.34,122.25,4
120,120.33,122.22,4
119,120.30,122.19,4
117,120.24,122.14,4
118,120.19,122.10,4
120,120.19,122.08,4
119,120.16,122.05,4
119,120.14,122.02,4
121,120.16,122.00,4
120,120.16,121.98,4
118,120.11,121.94,4
119,120.09,121.92,4
121,120.11,121.91,4
119,120.09,121.88,4
119,120.06,121.85,4
119,120.04,121.82,4
120,120.04,121.80,4
119,120.02,121.77,4
119,120.00,121.75,4
117,119.94,121.70,4
117,119.88,121.65,4
120,119.88,121.64,4
119,119.87,121.61,4
119,119.85,121.58,4
120,119.85,121.57,4
118,119.82,121.53,4
117,119.76,121.49,4
117,119.70,121.44,4
122,119.75,121.45,4
118,119.71,121.41,4
117,119.66,121.37,4
117,119.61,121.32,4
116,119.54,121.27,4
117,119.48,121.23,4
117,119.43,121.19,4
117,119.39,121.14,4
117,119.34,121.10,4
118,119.31,121.07,4
118,119.29,121.04,4
118,119.26,121.01,4
118,119.23,120.98,4
117,119.19,120.94,4
117,119.15,120.90,4
119,119.14,120.88,4
117,119.10,120.84,4
118,119.08,120.82,4
118,119.06,120.79,4
119,119.06,120.77,4
117,119.01,120.73,4
117,118.97,120.69,4
117,118.93,120.66,4
119,118.94,120.64,4
117,118.90,120.60,4
118,118.88,120.58,4
115,118.80,120.52,4
118,118.79,120.50,4
117,118.75,120.46,4
117,118.72,120.43,4
117,118.68,120.39,4
117,118.65,120.36,4
117,118.61,120.33,4
116,118.56,120.28,4
116,118.51,120.24,4
119,118.52,120.23,4
117,118.49,120.19,4
117,118.46,120.16,4
117,118.43,120.13,4
118,118.42,120.11,4
118,118.41,120.09,4
117,118.39,120.06,4
118,118.38,120.04,4
115,118.31,119.99,4
119,118.32,119.98,4
117,118.30,119.95,4
117,118.27,119.92,4
117,118.25,119.89,4
117,118.22,119.86,4
117,118.20,119.83,4
119,118.21,119.82,4
117,118.19,119.79,4
118,118.19,119.78,4
117,118.16,119.75,4
120,118.20,119.75,4
117,118.17,119.72,4
117,118.15,119.70,4
119,118.17,119.69,4
117,118.14,119.66,4
120,118.18,119.67,4
120,118.22,119.67,4
120,118.25,119.67,4
119,118.27,119.67,4
117,118.24,119.64,4
117,118.22,119.61,4
118,118.21,119.60,4
119,118.23,119.59,4
117,118.20,119.57,4
117,118.18,119.54,4
117,118.16,119.51,4
120,118.19,119.52,4
117,118.17,119.49,4
118,118.17,119.48,4
117,118.14,119.45,4
119,118.16,119.45,4
117,118.14,119.43,4
117,118.11,119.40,4
117,118.09,119.38,4
117,118.07,119.35,4
117,118.05,119.33,4
116,118.01,119.30,4
118,118.01,119.28,4
120,118.05,119.29,4
117,118.03,119.27,4
118,118.03,119.25,4
117,118.01,119.23,4
119,118.03,119.23,4
117,118.01,119.21,4
117,117.98,119.19,4
119,118.01,119.18,4
116,117.97,119.15,4
116,117.93,119.12,4
116,117.89,119.09,4
119,117.91,119.09,4
117,117.89,119.07,4
117,117.87,119.05,4
119,117.90,119.05,4
118,117.90,119.04,4
114,117.82,118.99,4
117,117.80,118.97,4
116,117.77,118.94,4
117,117.75,118.92,4
117,117.74,118.90,4
117,117.72,118.88,4
117,117.71,118.86,4
118,117.71,118.85,4
116,117.68,118.82,4
116,117.65,118.79,4
116,117.61,118.77,4
117,117.60,118.75,4
116,117.57,118.72,4
117,117.56,118.70,4
116,117.53,118.68,4
117,117.52,118.66,4
117,117.51,118.64,4
118,117.52,118.64,4
117,117.51,118.62,4
117,117.50,118.60,4
117,117.49,118.59,4
116,117.46,118.56,4
118,117.47,118.56,4
117,117.46,118.54,4
117,117.45,118.53,4
116,117.42,118.50,4
118,117.43,118.50,4
116,117.40,118.47,4
115,117.35,118.44,4
116,117.33,118.41,4
118,117.34,118.41,4
118,117.35,118.40,4
117,117.35,118.39,4
116,117.32,118.37,4
117,117.31,118.35,4
117,117.31,118.34,4
115,117.26,118.31,4
117,117.26,118.29,4
117,117.25,118.28,4
116,117.23,118.26,4
115,117.18,118.22,4
117,117.18,118.21,4
117,117.17,118.20,4
116,117.15,118.18,4
117,117.15,118.17,4
117,117.14,118.15,4
117,117.14,118.14,4
115,117.10,118.11,4
116,117.08,118.09,4
116,117.06,118.07,4
117,117.05,118.06,4
116,117.03,118.04,4
117,117.03,118.03,4
117,117.03,118.02,4
116,117.01,118.00,4
115,116.97,117.97,4
115,116.93,117.94,4
119,116.97,117.95,4
115,116.93,117.92,4
116,116.91,117.90,4
115,116.88,117.87,4
117,116.88,117.86,4
117,116.88,117.85,4
117,116.88,117.84,4
116,116.87,117.83,4
117,116.87,117.82,4
115,116.83,117.79,4
115,116.79,117.76,4
116,116.78,117.74,4
118,116.80,117.75,4
117,116.81,117.74,4
117,116.81,117.73,4
117,116.81,117.72,4
117,116.82,117.72,4
115,116.78,117.69,4
116,116.77,117.67,4
117,116.77,117.67,4
116,116.76,117.65,4
116,116.74,117.63,4
117,116.75,117.63,4
115,116.71,117.60,4
117,116.72,117.59,4
117,116.72,117.59,4
116,116.71,117.57,4
116,116.69,117.56,4
117,116.70,117.55,4
116,116.69,117.54,4
115,116.65,117.51,4
117,116.66,117.51,4
115,116.63,117.48,4
116,116.61,117.47,4
115,116.58,117.44,4
117,116.59,117.44,4
116,116.58,117.42,4
115,116.55,117.40,4
115,116.52,117.37,4
118,116.54,117.38,4
116,116.53,117.37,4
116,116.52,117.35,4
115,116.49,117.33,4
117,116.50,117.33,4
117,116.51,117.32,4
116,116.50,117.31,4
116,116.49,117.30,4
117,116.50,117.29,4
115,116.47,117.27,4
115,116.44,117.25,4
115,116.41,117.23,4
117,116.43,117.22,4
116,116.42,117.21,4
115,116.39,117.19,4
115,116.36,117.17,4
115,116.33,117.15,4
116,116.33,117.13,4
114,116.28,117.10,4
115,116.26,117.08,4
116,116.25,117.07,4
115,116.23,117.05,4
113,116.16,117.01,4
114,116.12,116.98,4
114,116.08,116.95,4
114,116.03,116.92,4
115,116.01,116.90,4
117,116.03,116.90,4
114,115.99,116.87,4
114,115.95,116.84,4
114,115.91,116.82,4
115,115.90,116.80,4
116,115.90,116.79,4
115,115.88,116.77,4
115,115.86,116.75,4
115,115.84,116.74,4
113,115.79,116.70,4
114,115.75,116.67,4
113,115.70,116.64,4
117,115.72,116.64,4
116,115.73,116.63,4
113,115.67,116.60,4
116,115.68,116.59,4
115,115.67,116.57,4
115,115.65,116.56,4
114,115.62,116.53,4
115,115.61,116.52,4
116,115.62,116.51,4
115,115.60,116.50,4
116,115.61,116.49,4
115,115.60,116.48,4
116,115.61,116.47,4
115,115.60,116.46,4
113,115.54,116.42,4
115,115.53,116.41,4
117,115.56,116.42,4
115,115.55,116.40,4
116,115.56,116.40,4
116,115.57,116.39,4
117,115.60,116.40,4
115,115.58,116.39,4
115,115.57,116.37,4
117,115.60,116.38,4
115,115.59,116.36,4
113,115.54,116.33,4
114,115.51,116.31,4
117,115.54,116.31,4
115,115.53,116.30,4
116,115.54,116.30,4
115,115.53,116.28,4
116,115.53,116.28,4
115,115.52,116.27,4
116,115.53,116.27,4
115,115.52,116.25,4
120,115.61,116.29,4
116,115.62,116.29,4
117,115.65,116.30,4
116,115.65,116.29,4
115,115.64,116.28,4
117,115.67,116.29,4
117,115.70,116.29,4
116,115.70,116.29,4
117,115.73,116.30,4
116,115.73,116.29,4
115,115.72,116.28,4
116,115.72,116.28,4
116,115.73,116.28,4
115,115.71,116.26,4
115,115.70,116.25,4
116,115.71,116.25,4
117,115.73,116.26,4
117,115.76,116.26,4
119,115.82,116.29,4
115,115.81,116.28,4
116,115.81,116.28,4
115,115.79,116.26,4
116,115.80,116.26,4
116,115.80,116.26,4
116,115.81,116.25,4
116,115.81,116.25,4
116,115.81,116.25,4
117,115.84,116.26,4
116,115.84,116.25,4
114,115.80,116.23,4
115,115.79,116.22,4
116,115.79,116.22,4
115,115.78,116.21,4
115,115.76,116.19,4
115,115.75,116.18,4
117,115.77,116.19,4
114,115.74,116.17,4
114,115.70,116.15,4
116,115.71,116.14,4
117,115.73,116.15,4
117,115.76,116.16,4
117,115.78,116.17,4
116,115.79,116.17,4
117,115.81,116.18,4
116,115.81,116.17,4
116,115.82,116.17,4
115,115.80,116.16,4
117,115.83,116.17,4
117,115.85,116.18,4
115,115.83,116.17,4
117,115.86,116.17,4
117,115.88,116.18,4
116,115.88,116.18,4
115,115.86,116.17,4
119,115.93,116.20,4
117,115.95,116.21,4
116,115.95,116.20,4
115,115.93,116.19,4
117,115.95,116.20,4
115,115.93,116.19,4
116,115.93,116.19,4
118,115.98,116.20,4
117,116.00,116.21,4
117,116.02,116.22,4
116,116.02,116.22,4
115,115.99,116.21,4
117,116.02,116.21,4
115,115.99,116.20,4
115,115.97,116.19,4
115,115.96,116.18,4
117,115.98,116.19,4
115,115.96,116.17,4
116,115.96,116.17,4
115,115.94,116.16,4
117,115.96,116.17,4
116,115.96,116.17,4
115,115.94,116.16,4
115,115.92,116.14,4
115,115.90,116.13,4
117,115.93,116.14,4
116,115.93,116.14,4
116,115.93,116.14,4
117,115.95,116.15,4
116,115.95,116.15,4
117,115.97,116.15,4
117,115.99,116.16,4
116,115.99,116.16,4
115,115.97,116.15,4
115,115.95,116.14,4
117,115.97,116.15,4
116,115.98,116.14,4
115,115.96,116.13,4
117,115.98,116.14,4
116,115.98,116.14,4
125,116.16,116.23,4
118,116.19,116.25,4
121,116.29,116.29,4
124,116.44,116.37,4
119,116.50,116.40,4
121,116.59,116.44,4
120,116.65,116.48,4
120,116.72,116.51,4
121,116.81,116.56,4
119,116.85,116.58,4
120,116.91,116.62,4
120,116.98,116.65,4
120,117.04,116.69,4
119,117.07,116.71,4
119,117.11,116.73,4
120,117.17,116.76,4
118,117.19,116.78,4
119,117.22,116.80,4
119,117.26,116.82,4
119,117.29,116.84,4
118,117.31,116.85,4
119,117.34,116.88,4
119,117.38,116.90,4
119,117.41,116.92,4
119,117.44,116.94,4
118,117.45,116.95,4
118,117.46,116.96,4
120,117.51,116.99,4
118,117.52,117.00,4
119,117.55,117.02,4
121,117.62,117.06,4
121,117.69,117.10,4
122,117.77,117.15,4
120,117.82,117.18,4
123,117.92,117.24,4
121,117.98,117.27,4
120,118.02,117.30,4
120,118.06,117.33,4
121,118.12,117.36,4
120,118.16,117.39,4
119,118.18,117.41,4
119,118.19,117.42,4
120,118.23,117.45,4
120,118.27,117.47,4
123,118.36,117.53,4
121,118.41,117.56,4
120,118.44,117.59,4
120,118.48,117.61,4
121,118.53,117.65,4
123,118.62,117.70,4
125,118.74,117.77,4
121,118.79,117.80,4
125,118.91,117.88,4
123,118.99,117.93,4
123,119.07,117.98,4
121,119.11,118.01,4
123,119.19,118.06,4
121,119.23,118.09,4
123,119.30,118.14,4
121,119.34,118.17,4
122,119.39,118.20,4
127,119.54,118.29,4
127,119.69,118.38,4
126,119.82,118.46,4
125,119.92,118.52,4
125,120.02,118.59,4
129,120.20,118.69,4
129,120.38,118.79,4
125,120.47,118.85,4
125,120.56,118.92,4
125,120.65,118.98,4
125,120.74,119.04,4
125,120.82,119.10,4
130,121.01,119.21,4
128,121.15,119.29,4
125,121.22,119.35,4
129,121.38,119.45,4
135,121.65,119.60,4
129,121.80,119.70,4
128,121.92,119.78,4
129,122.06,119.87,4
129,122.20,119.96,4
129,122.34,120.05,4
128,122.45,120.13,4
129,122.58,120.22,4
129,122.71,120.31,4
131,122.88,120.42,4
131,123.04,120.52,4
129,123.16,120.61,4
128,123.25,120.68,4
132,123.43,120.79,4
129,123.54,120.88,4
131,123.69,120.98,4
132,123.86,121.09,4
133,124.04,121.21,4
136,124.28,121.36,4
132,124.43,121.46,4
132,124.58,121.57,4
133,124.75,121.68,4
135,124.96,121.81,4
133,125.12,121.93,4
137,125.36,122.08,4
133,125.51,122.19,4
132,125.64,122.28,4
136,125.85,122.42,4
133,125.99,122.53,4
131,126.09,122.61,4
136,126.29,122.75,4
135,126.46,122.87,4
133,126.59,122.97,4
137,126.80,123.11,4
138,127.02,123.26,4
135,127.18,123.38,4
135,127.34,123.49,4
135,127.49,123.61,4
134,127.62,123.71,4
137,127.81,123.84,4
135,127.96,123.96,4
136,128.12,124.08,4
135,128.25,124.19,4
136,128.41,124.30,4
139,128.62,124.45,4
137,128.79,124.58,4
139,128.99,124.72,4
146,129.33,124.93,4
139,129.53,125.07,4
137,129.68,125.19,4
141,129.90,125.35,4
142,130.14,125.52,4
140,130.34,125.66,4
140,130.53,125.81,4
141,130.74,125.96,4
140,130.93,126.10,4
141,131.13,126.25,4
139,131.29,126.38,4
142,131.50,126.53,4
149,131.85,126.76,4
155,132.31,127.04,4
151,132.69,127.28,4
149,133.01,127.50,4
159,133.53,127.81,4
161,134.08,128.14,4
164,134.68,128.50,4
159,135.17,128.81,4
154,135.54,129.06,4
163,136.09,129.40,4
163,136.63,129.73,4
165,137.20,130.09,4
157,137.60,130.35,4
162,138.08,130.67,4
159,138.50,130.95,4
161,138.95,131.26,4
159,139.35,131.53,4
160,139.77,131.82,4
161,140.19,132.11,4
166,140.71,132.45,4
164,141.17,132.76,4
163,141.61,133.07,4
167,142.12,133.41,4
168,142.63,133.75,4
167,143.12,134.08,4
166,143.58,134.40,4
163,143.97,134.69,4
165,144.39,134.99,4
165,144.80,135.29,4
164,145.18,135.58,4
166,145.60,135.88,4
167,146.03,136.19,4
175,146.61,136.58,4
165,146.98,136.87,4
169,147.42,137.19,4
179,148.05,137.61,4
174,148.57,137.97,4
171,149.02,138.30,4
170,149.44,138.62,4
169,149.83,138.92,4
169,150.21,139.22,4
171,150.63,139.54,4
172,151.05,139.86,4
177,151.57,140.24,4
182,152.18,140.65,4
181,152.76,141.06,4
175,153.20,141.40,4
183,153.80,141.81,4
189,154.50,142.28,4
185,155.11,142.71,4
181,155.63,143.09,4
181,156.14,143.47,4
183,156.67,143.87,4
185,157.24,144.28,4
183,157.76,144.67,4
183,158.26,145.05,4
193,158.96,145.53,4
194,159.66,146.01,4
188,160.22,146.43,4
185,160.72,146.82,4
188,161.27,147.23,4
193,161.90,147.69,4
195,162.56,148.16,4
199,163.29,148.67,4
191,163.84,149.09,4
193,164.43,149.53,4
199,165.12,150.03,4
192,165.66,150.45,4
192,166.18,150.86,4
193,166.72,151.28,4
192,167.23,151.69,4
191,167.70,152.09,4
198,168.31,152.54,4
195,168.84,152.97,4
195,169.36,153.39,4
193,169.84,153.79,4
197,170.38,154.22,4
201,170.99,154.69,4
196,171.49,155.10,4
193,171.92,155.48,4
198,172.44,155.90,4
198,172.96,156.32,4
195,173.40,156.71,4
199,173.91,157.13,4
200,174.43,157.56,4
201,174.96,158.00,4
199,175.44,158.41,4
203,175.99,158.85,4
209,176.65,159.35,4
209,177.30,159.85,4
205,177.85,160.30,4
203,178.36,160.73,4
202,178.83,161.14,4
207,179.39,161.60,4
207,179.95,162.05,4
205,180.45,162.48,4
207,180.98,162.93,4
209,181.54,163.39,4
205,182.01,163.81,4
203,182.43,164.20,4
210,182.98,164.66,4
217,183.66,165.18,4
209,184.17,165.62,4
214,184.76,166.10,4
210,185.27,166.54,4
208,185.72,166.95,4
210,186.21,167.38,4
211,186.70,167.82,4
211,187.19,168.25,4
208,187.61,168.65,4
211,188.07,169.07,4
210,188.51,169.48,4
212,188.98,169.91,4
211,189.42,170.32,4
208,189.79,170.70,4
213,190.26,171.12,4
216,190.77,171.57,4
212,191.20,171.97,4
214,191.65,172.39,4
211,192.04,172.78,4
215,192.50,173.20,4
217,192.99,173.64,4
214,193.41,174.04,4
217,193.88,174.47,4
225,194.50,174.98,4
224,195.09,175.47,4
217,195.53,175.88,4
223,196.08,176.35,4
229,196.74,176.88,4
226,197.33,177.37,4
221,197.80,177.81,4
221,198.26,178.24,4
220,198.70,178.66,4
220,199.12,179.07,4
229,199.72,179.57,4
230,200.33,180.07,4
226,200.84,180.53,4
225,201.32,180.98,4
229,201.88,181.46,4
225,202.34,181.89,4
225,202.79,182.33,4
227,203.28,182.77,4
228,203.77,183.22,4
231,204.32,183.70,4
225,204.73,184.11,4
229,205.21,184.56,4
233,205.77,185.05,4
229,206.24,185.49,4
227,206.65,185.90,4
232,207.16,186.36,4
233,207.67,186.83,4
236,208.24,187.32,4
232,208.72,187.77,4
233,209.20,188.22,4
234,209.70,188.68,4
231,210.12,189.10,4
229,210.50,189.50,4
230,210.89,189.91,4
231,211.29,190.32,4
230,211.67,190.71,4
229,212.01,191.10,4
231,212.39,191.50,4
231,212.77,191.89,4
229,213.09,192.26,4
229,213.41,192.63,4
229,213.72,192.99,4
230,214.05,193.36,4
232,214.41,193.75,4
229,214.70,194.10,4
229,214.98,194.45,4
231,215.30,194.82,4
229,215.58,195.16,4
229,215.85,195.50,4
228,216.09,195.82,4
231,216.39,196.17,4
229,216.64,196.50,4
229,216.89,196.83,4
229,217.13,197.15,4
229,217.37,197.47,4
231,217.64,197.80,4
231,217.91,198.13,4
230,218.15,198.45,4
229,218.37,198.76,4
228,218.56,199.05,4
229,218.77,199.35,4
227,218.93,199.63,4
230,219.15,199.93,4
228,219.33,200.21,4
228,219.50,200.49,4
229,219.69,200.77,4
229,219.88,201.06,4
229,220.06,201.34,4
229,220.24,201.61,4
230,220.44,201.90,4
231,220.65,202.19,4
228,220.79,202.45,4
233,221.04,202.75,4
234,221.30,203.06,4
232,221.51,203.35,4
229,221.66,203.61,4
229,221.81,203.86,4
232,222.01,204.14,4
229,222.15,204.39,4
228,222.27,204.63,4
228,222.38,204.86,4
228,222.50,205.09,4
229,222.63,205.33,4
228,222.73,205.56,4
227,222.82,205.77,4
229,222.94,206.01,4
226,223.00,206.21,4
227,223.08,206.41,4
227,223.16,206.62,4
229,223.28,206.84,4
226,223.33,207.04,4
225,223.37,207.22,4
226,223.42,207.40,4
228,223.51,207.61,4
225,223.54,207.78,4
225,223.57,207.96,4
225,223.60,208.13,4
225,223.63,208.29,4
227,223.69,208.48,4
226,223.74,208.66,4
224,223.74,208.81,4
225,223.77,208.97,4
224,223.77,209.12,4
224,223.78,209.27,4
223,223.76,209.41,4
224,223.77,209.55,4
224,223.77,209.70,4
222,223.74,209.82,4
221,223.68,209.93,4
224,223.69,210.07,4
221,223.64,210.18,4
221,223.58,210.29,4
223,223.57,210.42,4
221,223.52,210.52,4
222,223.49,210.64,4
221,223.44,210.74,4
222,223.41,210.86,4
220,223.34,210.95,4
220,223.28,211.04,4
219,223.19,211.12,4
221,223.15,211.22,4
220,223.08,211.30,4
218,222.98,211.37,4
219,222.90,211.45,4
221,222.86,211.54,4
218,222.77,211.61,4
219,222.69,211.68,4
215,222.54,211.71,4
217,222.43,211.77,4
217,222.32,211.82,4
217,222.21,211.87,4
216,222.09,211.91,4
218,222.01,211.97,4
217,221.91,212.02,4
216,221.79,212.06,4
216,221.67,212.10,4
216,221.56,212.14,4
216,221.45,212.18,4
215,221.32,212.21,4
215,221.19,212.24,4
215,221.07,212.26,4
214,220.93,212.28,4
213,220.77,212.29,4
213,220.61,212.30,4
213,220.46,212.30,4
214,220.33,212.32,4
213,220.18,212.33,4
215,220.08,212.35,4
213,219.94,212.36,4
212,219.78,212.36,4
212,219.63,212.35,4
213,219.49,212.36,4
213,219.36,212.37,4
212,219.22,212.36,4
211,219.05,212.35,4
213,218.93,212.35,4
211,218.77,212.34,4
211,218.62,212.33,4
210,218.44,212.30,4
211,218.29,212.29,4
211,218.15,212.28,4
209,217.97,212.25,4
209,217.79,212.21,4
212,217.67,212.21,4
209,217.50,212.18,4
209,217.33,212.15,4
211,217.20,212.14,4
211,217.08,212.12,4
208,216.90,212.08,4
207,216.70,212.03,4
208,216.52,211.99,4
209,216.37,211.96,4
208,216.21,211.92,4
209,216.06,211.89,4
207,215.88,211.84,4
209,215.74,211.82,4
207,215.57,211.77,4
206,215.38,211.71,4
207,215.21,211.66,4
206,215.02,211.61,4
206,214.84,211.55,4
207,214.69,211.50,4
208,214.55,211.47,4
205,214.36,211.41,4
205,214.18,211.34,4
205,213.99,211.28,4
206,213.83,211.22,4
204,213.64,211.15,4
204,213.44,211.08,4
204,213.25,211.01,4
205,213.09,210.95,4
204,212.91,210.88,4
204,212.73,210.81,4
203,212.53,210.73,4
203,212.34,210.66,4
204,212.18,210.59,4
203,211.99,210.51,4
202,211.79,210.43,4
205,211.66,210.37,4
201,211.44,210.28,4
202,211.26,210.20,4
200,211.03,210.10,4
202,210.85,210.02,4
202,210.67,209.93,4
201,210.48,209.85,4
201,210.29,209.76,4
202,210.12,209.68,4
200,209.92,209.58,4
200,209.72,209.49,4
200,209.53,209.39,4
200,209.34,209.30,5
199,209.13,209.20,5
199,208.93,209.09,5
201,208.77,209.01,5
199,208.57,208.91,5
199,208.38,208.81,5
197,208.16,208.69,5
199,207.97,208.60,5
197,207.75,208.48,5
198,207.56,208.38,5
198,207.37,208.27,5
199,207.20,208.18,5
197,207.00,208.07,5
197,206.80,207.96,5
197,206.60,207.85,5
199,206.45,207.76,5
197,206.26,207.65,5
196,206.05,207.54,5
196,205.85,207.42,5
196,205.66,207.31,5
197,205.48,207.20,5
195,205.27,207.08,5
195,205.07,206.96,5
197,204.91,206.86,5
194,204.69,206.73,5
195,204.49,206.62,5
196,204.32,206.51,5
195,204.14,206.39,5
196,203.97,206.29,5
195,203.80,206.18,5
193,203.58,206.05,5
195,203.41,205.93,5
193,203.20,205.81,5
193,203.00,205.68,5
193,202.80,205.55,5
193,202.60,205.43,5
193,202.41,205.30,5
192,202.20,205.17,5
193,202.02,205.05,5
193,201.84,204.93,5
192,201.64,204.80,5
192,201.45,204.67,5
193,201.28,204.55,5
193,201.11,204.44,5
191,200.91,204.30,5
191,200.71,204.17,5
192,200.54,204.05,5
191,200.35,203.92,5
191,200.16,203.79,5
190,199.96,203.65,5
195,199.86,203.56,5
190,199.66,203.43,5
189,199.45,203.28,5
189,199.24,203.14,5
191,199.07,203.02,5
189,198.87,202.88,5
189,198.67,202.74,5
189,198.48,202.60,5
189,198.29,202.47,5
189,198.11,202.33,5
189,197.92,202.20,5
188,197.72,202.06,5
189,197.55,201.93,5
188,197.36,201.79,5
187,197.15,201.64,5
187,196.95,201.49,5
186,196.73,201.34,5
187,196.54,201.19,5
186,196.32,201.04,5
185,196.10,200.88,5
186,195.90,200.73,5
185,195.68,200.58,5
185,195.46,200.42,5
187,195.30,200.29,5
186,195.11,200.14,5
186,194.93,200.00,5
185,194.73,199.85,5
187,194.57,199.72,5
185,194.38,199.58,5
184,194.18,199.42,5
184,193.97,199.27,5
186,193.81,199.13,5
185,193.64,198.99,5
185,193.46,198.85,5
183,193.25,198.69,5
185,193.09,198.56,5
184,192.91,198.41,5
183,192.71,198.26,5
183,192.51,198.10,5
185,192.36,197.97,5
183,192.18,197.82,5
183,191.99,197.68,5
183,191.81,197.53,5
183,191.64,197.38,5
181,191.42,197.22,5
181,191.22,197.06,5
182,191.03,196.91,5
183,190.87,196.77,5
181,190.67,196.61,5
181,190.48,196.45,5
180,190.27,196.29,5
181,190.09,196.14,5
181,189.90,195.99,5
181,189.73,195.84,5
181,189.55,195.69,5
185,189.46,195.58,5
180,189.27,195.42,5
180,189.09,195.27,5
181,188.92,195.13,5
180,188.75,194.98,5
180,188.57,194.83,5
179,188.38,194.67,5
181,188.23,194.53,5
179,188.05,194.38,5
178,187.85,194.21,5
179,187.67,194.06,5
179,187.50,193.91,5
179,187.33,193.76,5
177,187.12,193.59,5
177,186.92,193.43,5
180,186.78,193.29,5
176,186.56,193.12,5
177,186.37,192.96,5
177,186.18,192.80,5
178,186.02,192.65,5
177,185.84,192.49,5
177,185.66,192.34,5
176,185.47,192.18,5
178,185.32,192.03,5
177,185.15,191.88,5
176,184.97,191.73,5
175,184.77,191.56,5
177,184.62,191.41,5
176,184.44,191.26,5
176,184.28,191.11,5
175,184.09,190.94,5
175,183.91,190.79,5
175,183.73,190.63,5
176,183.58,190.48,5
174,183.38,190.32,5
175,183.22,190.16,5
175,183.05,190.01,5
173,182.85,189.84,5
178,182.75,189.72,5
175,182.60,189.58,5
174,182.43,189.42,5
174,182.26,189.27,5
175,182.11,189.12,5
174,181.95,188.97,5
173,181.77,188.81,5
173,181.60,188.65,5
174,181.44,188.51,5
173,181.28,188.35,5
173,181.11,188.20,5
171,180.91,188.03,5
175,180.79,187.90,5
173,180.63,187.75,5
173,180.48,187.60,5
172,180.31,187.44,5
173,180.17,187.30,5
172,180.00,187.15,5
171,179.82,186.99,5
172,179.67,186.84,5
173,179.53,186.70,5
172,179.38,186.55,5
171,179.21,186.39,5
172,179.07,186.25,5
172,178.93,186.11,5
171,178.77,185.96,5
172,178.63,185.82,5
171,178.48,185.67,5
171,178.33,185.52,5
172,178.21,185.39,5
171,178.06,185.24,5
170,177.90,185.09,5
171,177.76,184.95,5
170,177.61,184.80,5
172,177.49,184.67,5
172,177.38,184.55,5
171,177.26,184.41,5
171,177.13,184.28,5
169,176.97,184.12,5
171,176.85,183.99,5
170,176.71,183.85,5
169,176.56,183.70,5
169,176.41,183.56,5
171,176.30,183.43,5
169,176.15,183.29,5
169,176.01,183.14,5
169,175.87,183.00,5
169,175.73,182.86,5
169,175.60,182.72,5
167,175.43,182.57,5
169,175.30,182.43,5
171,175.21,182.32,5
167,175.05,182.16,5
167,174.89,182.01,5
168,174.75,181.87,5
168,174.61,181.73,5
168,174.48,181.60,5
167,174.33,181.45,5
167,174.19,181.31,5
167,174.04,181.16,5
167,173.90,181.02,5
167,173.76,180.88,5
167,173.63,180.74,5
167,173.49,180.60,5
165,173.32,180.45,5
165,173.16,180.29,5
167,173.04,180.16,5
168,172.93,180.04,5
167,172.82,179.91,5
166,172.68,179.77,5
168,172.59,179.65,5
166,172.45,179.52,5
165,172.31,179.37,5
167,172.20,179.25,5
169,172.14,179.14,5
166,172.01,179.01,5
168,171.93,178.90,5
167,171.83,178.78,5
167,171.74,178.67,5
167,171.64,178.55,5
165,171.51,178.41,5
165,171.38,178.28,5
167,171.29,178.17,5
165,171.17,178.04,5
166,171.06,177.91,5
165,170.94,177.79,5
167,170.86,177.68,5
167,170.79,177.57,5
165,170.67,177.45,5
164,170.54,177.31,5
166,170.45,177.20,5
166,170.36,177.09,5
165,170.25,176.96,5
165,170.14,176.85,5
166,170.06,176.74,5
163,169.92,176.60,5
164,169.80,176.47,5
163,169.67,176.34,5
165,169.57,176.23,5
166,169.50,176.12,5
164,169.39,176.00,5
165,169.30,175.89,5
164,169.20,175.77,5
164,169.09,175.66,5
165,169.01,175.55,5
168,168.99,175.47,5
164,168.89,175.36,5
164,168.79,175.24,5
164,168.70,175.13,5
164,168.60,175.02,5
165,168.53,174.92,5
167,168.50,174.84,5
164,168.41,174.73,5
166,168.36,174.65,5
163,168.26,174.53,5
163,168.15,174.41,5
163,168.05,174.30,5
165,167.99,174.21,5
164,167.91,174.10,5
163,167.81,173.99,5
163,167.71,173.88,5
164,167.64,173.79,5
164,167.57,173.69,5
162,167.45,173.57,5
161,167.33,173.44,5
163,167.24,173.34,5
161,167.11,173.22,5
160,166.97,173.08,5
161,166.85,172.96,5
162,166.75,172.85,5
162,166.66,172.75,5
162,166.57,172.64,5
161,166.46,172.52,5
161,166.35,172.41,5
161,166.24,172.29,5
160,166.11,172.17,5
161,166.01,172.06,5
161,165.91,171.95,5
161,165.81,171.84,5
159,165.68,171.71,5
163,165.62,171.62,5
163,165.57,171.54,5
159,165.44,171.41,5
160,165.33,171.30,5
163,165.28,171.21,5
160,165.18,171.10,5
160,165.08,170.99,5
159,164.95,170.87,5
159,164.83,170.75,5
160,164.74,170.64,5
160,164.64,170.54,5
159,164.53,170.42,5
161,164.46,170.33,5
159,164.35,170.22,5
161,164.28,170.12,5
160,164.20,170.02,5
162,164.15,169.94,5
161,164.09,169.85,5
159,163.99,169.74,5
157,163.85,169.62,5
160,163.77,169.52,5
159,163.68,169.41,5
159,163.58,169.31,5
159,163.49,169.21,5
159,163.40,169.11,5
159,163.31,169.00,5
159,163.23,168.90,5
159,163.14,168.81,5
159,163.06,168.71,5
158,162.96,168.60,5
158,162.86,168.49,5
160,162.80,168.41,5
157,162.69,168.30,5
157,162.57,168.18,5
157,162.46,168.07,5
160,162.41,167.99,5
158,162.32,167.89,5
157,162.22,167.78,5
155,162.07,167.65,5
160,162.03,167.58,5
157,161.93,167.47,5
156,161.81,167.36,5
156,161.70,167.24,5
157,161.60,167.14,5
156,161.49,167.03,5
155,161.36,166.91,5
156,161.25,166.80,5
157,161.17,166.70,5
157,161.08,166.60,5
154,160.94,166.48,5
156,160.84,166.37,5
155,160.73,166.26,5
157,160.65,166.17,5
156,160.56,166.07,5
156,160.47,165.96,5
155,160.36,165.86,5
155,160.25,165.75,5
155,160.15,165.64,5
156,160.06,165.54,5
157,160.00,165.46,5
155,159.90,165.35,5
156,159.82,165.26,5
154,159.71,165.15,5
156,159.63,165.06,5
156,159.56,164.96,5
156,159.49,164.88,5
157,159.44,164.80,5
155,159.35,164.70,5
155,159.26,164.60,5
153,159.14,164.49,5
156,159.08,164.40,5
155,158.99,164.31,5
155,158.91,164.21,5
155,158.84,164.12,5
155,158.76,164.03,5
155,158.68,163.94,5
154,158.59,163.84,5
154,158.50,163.74,5
156,158.45,163.66,5
155,158.38,163.58,5
153,158.27,163.47,5
151,158.13,163.35,5
155,158.06,163.26,5
153,157.96,163.16,5
153,157.86,163.06,5
154,157.79,162.97,5
155,157.73,162.89,5
153,157.64,162.79,5
154,157.56,162.70,5
153,157.47,162.61,5
152,157.36,162.50,5
155,157.32,162.42,5
152,157.21,162.32,5
152,157.11,162.22,5
154,157.04,162.13,5
152,156.94,162.03,5
152,156.84,161.93,5
153,156.77,161.84,5
152,156.67,161.75,5
153,156.60,161.66,5
152,156.51,161.56,5
153,156.44,161.48,5
152,156.35,161.38,5
151,156.24,161.28,5
151,156.14,161.17,5
153,156.07,161.09,5
151,155.97,160.99,5
150,155.85,160.88,5
149,155.71,160.76,5
153,155.66,160.69,5
152,155.59,160.60,5
151,155.50,160.50,5
151,155.41,160.41,5
151,155.32,160.31,5
149,155.19,160.20,5
150,155.09,160.10,5
151,155.01,160.01,5
152,154.95,159.93,5
152,154.89,159.85,5
151,154.81,159.76,5
153,154.77,159.69,5
152,154.72,159.62,5
149,154.60,159.51,5
150,154.51,159.41,5
151,154.44,159.33,5
153,154.41,159.27,5
151,154.34,159.18,5
151,154.28,159.10,5
152,154.23,159.03,5
151,154.17,158.95,5
151,154.10,158.87,5
149,154.00,158.77,5
151,153.94,158.69,5
149,153.84,158.60,5
149,153.75,158.50,5
149,153.65,158.41,5
150,153.58,158.32,5
149,153.49,158.23,5
149,153.40,158.14,5
149,153.31,158.05,5
149,153.22,157.96,5
149,153.14,157.87,5
149,153.05,157.78,5
149,152.97,157.69,5
149,152.89,157.60,5
149,152.82,157.52,5
148,152.72,157.42,5
148,152.63,157.33,5
147,152.51,157.22,5
149,152.44,157.14,5
149,152.37,157.06,5
148,152.29,156.97,5
149,152.22,156.89,5
148,152.14,156.80,5
148,152.05,156.71,5
147,151.95,156.62,5
149,151.89,156.54,5
147,151.80,156.44,5
147,151.70,156.35,5
147,151.61,156.26,5
149,151.55,156.18,5
146,151.44,156.08,5
147,151.35,155.99,5
145,151.23,155.88,5
146,151.12,155.78,5
147,151.04,155.69,5
147,150.96,155.61,5
147,150.88,155.52,5
148,150.82,155.45,5
145,150.71,155.34,5
145,150.59,155.24,5
147,150.52,155.16,5
146,150.43,155.06,5
145,150.32,154.96,5
147,150.25,154.88,5
149,150.23,154.83,5
146,150.14,154.74,5
145,150.04,154.64,5
145,149.94,154.54,5
147,149.88,154.47,5
145,149.78,154.37,5
145,149.69,154.28,5
144,149.58,154.18,5
147,149.52,154.11,5
145,149.43,154.01,5
145,149.34,153.92,5
145,149.26,153.83,5
146,149.19,153.76,5
143,149.07,153.65,5
144,148.97,153.55,5
143,148.85,153.45,5
144,148.75,153.35,5
144,148.66,153.26,5
143,148.54,153.16,5
143,148.43,153.05,5
144,148.34,152.96,5
143,148.24,152.86,5
143,148.13,152.77,5
143,148.03,152.67,5
143,147.93,152.57,5
144,147.85,152.49,5
143,147.75,152.39,5
145,147.70,152.32,5
143,147.60,152.22,5
143,147.51,152.13,5
143,147.42,152.04,5
144,147.35,151.96,5
143,147.27,151.87,5
143,147.18,151.78,5
143,147.10,151.69,5
143,147.02,151.61,5
143,146.93,151.52,5
142,146.84,151.43,5
141,146.72,151.32,5
144,146.67,151.25,5
142,146.57,151.16,5
141,146.46,151.05,5
141,146.35,150.95,5
143,146.28,150.87,5
141,146.18,150.78,5
141,146.08,150.68,5
141,145.97,150.58,5
142,145.89,150.49,5
142,145.82,150.41,5
141,145.72,150.32,5
140,145.61,150.21,5
141,145.51,150.12,5
140,145.40,150.02,5
140,145.30,149.92,5
140,145.19,149.82,5
139,145.07,149.71,5
141,144.98,149.62,5
141,144.90,149.54,5
140,144.81,149.44,5
141,144.73,149.36,5
140,144.64,149.26,5
140,144.54,149.17,5
142,144.49,149.10,5
140,144.40,149.01,5
139,144.29,148.91,5
140,144.21,148.82,5
141,144.14,148.74,5
139,144.04,148.64,5
137,143.90,148.53,5
139,143.80,148.43,5
140,143.73,148.35,5
139,143.63,148.26,5
139,143.54,148.16,5
139,143.45,148.07,5
141,143.40,148.00,5
139,143.31,147.91,5
138,143.21,147.81,5
137,143.08,147.70,5
140,143.02,147.63,5
138,142.92,147.53,5
139,142.84,147.44,5
137,142.72,147.34,5
138,142.63,147.25,5
138,142.54,147.15,5
139,142.47,147.07,5
139,142.40,146.99,5
139,142.33,146.91,5
139,142.26,146.83,5
137,142.16,146.73,5
137,142.05,146.64,5
138,141.97,146.55,5
138,141.89,146.47,5
137,141.80,146.37,5
137,141.70,146.28,5
137,141.61,146.18,5
136,141.49,146.08,5
137,141.40,145.99,5
141,141.40,145.94,5
137,141.31,145.85,5
137,141.22,145.76,5
137,141.14,145.68,5
137,141.05,145.59,5
139,141.01,145.52,5
140,140.99,145.47,5
139,140.95,145.40,5
139,140.91,145.34,5
137,140.84,145.26,5
137,140.76,145.17,5
137,140.68,145.09,5
139,140.65,145.03,5
136,140.56,144.94,5
137,140.49,144.86,5
138,140.44,144.79,5
137,140.37,144.71,5
137,140.30,144.64,5
136,140.21,144.55,5
136,140.13,144.47,5
138,140.09,144.40,5
136,140.01,144.32,5
137,139.95,144.24,5
137,139.89,144.17,5
137,139.83,144.10,5
136,139.75,144.02,5
135,139.66,143.93,5
135,139.56,143.84,5
136,139.49,143.76,5
135,139.40,143.67,5
135,139.32,143.59,5
136,139.25,143.51,5
135,139.16,143.43,5
135,139.08,143.34,5
133,138.96,143.24,5
137,138.92,143.18,5
136,138.86,143.10,5
135,138.78,143.02,5
134,138.69,142.93,5
136,138.63,142.86,5
136,138.58,142.79,5
135,138.51,142.72,5
133,138.40,142.62,5
135,138.33,142.54,5
135,138.27,142.47,5
134,138.18,142.38,5
135,138.12,142.31,5
136,138.07,142.25,5
133,137.97,142.15,5
133,137.87,142.06,5
134,137.80,141.98,5
135,137.74,141.91,5
137,137.73,141.86,5
133,137.63,141.77,5
133,137.54,141.69,5
137,137.53,141.64,5
133,137.44,141.55,5
133,137.35,141.47,5
133,137.26,141.38,5
134,137.20,141.31,5
133,137.11,141.23,5
133,137.03,141.14,5
133,136.95,141.06,5
135,136.91,141.00,5
135,136.87,140.94,5
135,136.83,140.88,5
136,136.82,140.83,5
134,136.76,140.76,5
132,136.67,140.68,5
133,136.59,140.60,5
136,136.58,140.55,5
133,136.51,140.48,5
133,136.44,140.40,5
133,136.37,140.33,5
133,136.30,140.26,5
133,136.24,140.18,5
132,136.15,140.10,5
133,136.09,140.03,5
134,136.05,139.97,5
132,135.97,139.89,5
133,135.91,139.82,5
132,135.83,139.74,5
133,135.77,139.68,5
133,135.72,139.61,5
133,135.66,139.54,5
134,135.63,139.49,5
133,135.58,139.42,5
133,135.53,139.36,5
132,135.45,139.29,5
131,135.37,139.20,5
133,135.32,139.14,5
131,135.23,139.06,5
132,135.17,138.99,5
132,135.10,138.92,5
134,135.08,138.87,5
133,135.04,138.81,5
131,134.96,138.73,5
133,134.92,138.68,5
133,134.88,138.62,5
133,134.84,138.56,5
132,134.79,138.50,5
133,134.75,138.44,5
133,134.72,138.39,5
131,134.64,138.31,5
131,134.57,138.24,5
133,134.54,138.19,5
133,134.51,138.14,5
132,134.46,138.08,5
132,134.41,138.01,5
133,134.38,137.96,5
131,134.31,137.89,5
131,134.25,137.83,5
133,134.22,137.78,5
135,134.24,137.75,5
132,134.19,137.69,5
131,134.13,137.63,5
131,134.07,137.56,5
133,134.04,137.51,5
133,134.02,137.47,5
134,134.02,137.43,5
134,134.02,137.40,5
133,134.00,137.36,5
133,133.98,137.31,5
133,133.96,137.27,5
131,133.90,137.21,5
134,133.91,137.17,5
133,133.89,137.13,5
133,133.87,137.09,5
133,133.85,137.05,5
133,133.83,137.01,5
132,133.80,136.96,5
133,133.78,136.92,5
133,133.77,136.88,5
133,133.75,136.84,5
131,133.70,136.78,5
132,133.66,136.74,5
133,133.65,136.70,5
133,133.64,136.66,5
133,133.62,136.62,5
132,133.59,136.58,5
134,133.60,136.55,5
131,133.55,136.50,5
133,133.54,136.46,5
133,133.53,136.43,5
135,133.55,136.41,5
133,133.54,136.38,5
133,133.53,136.35,5
133,133.52,136.31,5
133,133.51,136.28,5
134,133.52,136.26,5
133,133.51,136.22,5
131,133.46,136.17,5
135,133.49,136.16,5
132,133.46,136.12,5
132,133.43,136.08,5
132,133.40,136.04,5
135,133.44,136.03,5
132,133.41,135.99,5
131,133.36,135.94,5
132,133.33,135.90,5
133,133.33,135.87,5
133,133.32,135.84,5
131,133.27,135.79,5
133,133.27,135.76,5
133,133.26,135.73,5
133,133.26,135.71,5
132,133.23,135.67,5
132,133.21,135.63,5
132,133.18,135.60,5
131,133.14,135.55,5
131,133.10,135.51,5
133,133.09,135.48,5
131,133.05,135.44,5
131,133.01,135.39,5
132,132.99,135.36,5
133,132.99,135.33,5
132,132.97,135.30,5
133,132.97,135.28,5
132,132.95,135.24,5
133,132.95,135.22,5
132,132.93,135.19,5
131,132.90,135.15,5
131,132.86,135.11,5
131,132.82,135.07,5
133,132.82,135.05,5
132,132.81,135.01,5
132,132.79,134.98,5
133,132.80,134.96,5
131,132.76,134.93,5
131,132.72,134.89,5
132,132.71,134.86,5
133,132.72,134.84,5
132,132.70,134.81,5
131,132.67,134.77,5
129,132.59,134.71,5
131,132.56,134.68,5
131,132.53,134.64,5
131,132.50,134.60,5
131,132.47,134.57,5
132,132.46,134.54,5
131,132.43,134.51,5
134,132.46,134.50,5
131,132.43,134.47,5
130,132.39,134.42,5
129,132.32,134.37,5
130,132.27,134.32,5
133,132.29,134.31,5
131,132.26,134.28,5
129,132.19,134.22,5
129,132.13,134.17,5
132,132.13,134.15,5
130,132.09,134.11,5
130,132.04,134.07,5
131,132.02,134.04,5
130,131.98,134.00,5
130,131.94,133.96,5
129,131.88,133.91,5
128,131.81,133.85,5
129,131.75,133.80,5
129,131.70,133.75,5
129,131.64,133.70,5
129,131.59,133.66,5
131,131.58,133.63,5
129,131.53,133.58,5
129,131.47,133.54,5
128,131.41,133.48,5
131,131.40,133.46,5
129,131.35,133.41,5
129,131.30,133.37,5
129,131.26,133.33,5
129,131.21,133.28,5
129,131.17,133.24,5
129,131.12,133.20,5
129,131.08,133.16,5
128,131.02,133.10,5
129,130.98,133.06,5
129,130.94,133.02,5
131,130.94,133.00,5
129,130.90,132.96,5
129,130.86,132.92,5
129,130.83,132.88,5
130,130.81,132.85,5
131,130.81,132.84,5
129,130.78,132.80,5
129,130.74,132.76,5
131,130.75,132.74,5
129,130.71,132.70,5
129,130.68,132.67,5
129,130.64,132.63,5
131,130.65,132.61,5
129,130.62,132.58,5
129,130.59,132.54,5
129,130.55,132.51,5
130,130.54,132.48,5
130,130.53,132.46,5
130,130.52,132.43,5
127,130.45,132.38,5
129,130.42,132.34,5
131,130.43,132.33,5
128,130.39,132.29,5
129,130.36,132.26,5
132,130.39,132.25,5
129,130.36,132.22,5
129,130.34,132.19,5
128,130.29,132.15,5
129,130.26,132.11,5
129,130.24,132.08,5
129,130.21,132.05,5
129,130.19,132.02,5
130,130.18,132.00,5
